1567996454.000000, 1567996454.000000, 1567996454.000000
32.000000, 32.000000, 32.000000
-43,-27,48
-43,-29,49
-38,-29,51
-36,-28,50
-38,-26,47
-37,-24,51
-36,-22,54
-37,-20,56
-37,-20,52
-36,-19,49
-29,-20,44
-27,-22,38
-28,-22,36
-31,-25,34
-36,-27,37
-36,-26,41
-40,-23,48
-39,-22,52
-35,-23,54
-32,-25,52
-33,-26,51
-37,-27,50
-38,-26,48
-39,-25,48
-38,-24,47
-37,-22,47
-37,-21,47
-36,-20,46
-36,-20,45
-37,-20,45
-38,-19,45
-38,-19,47
-38,-19,49
-37,-19,50
-34,-18,51
-33,-19,50
-32,-20,49
-35,-21,47
-37,-21,46
-39,-21,47
-40,-20,46
-40,-19,47
-37,-19,47
-37,-20,47
-37,-20,48
-37,-20,49
-37,-20,48
-37,-20,47
-38,-22,45
-40,-23,44
-42,-23,43
-44,-24,42
-49,-24,40
-54,-27,38
-62,-32,37
-65,-39,39
-66,-40,40
-60,-37,33
-29,-36,31
-21,-43,32
-26,-27,32
-16,-22,35
-5,-15,44
-13,4,39
2,14,65
6,34,77
-8,26,57
3,24,53
2,21,59
-12,12,59
0,9,58
1,21,69
-19,23,63
-24,24,60
-3,27,67
-31,27,36
-3,28,59
-41,27,46
-14,32,39
18,29,72
-18,25,52
-8,34,57
-2,25,58
-13,26,68
-19,16,57
-16,14,52
-4,14,54
0,16,49
4,22,61
-2,25,58
5,30,60
7,29,61
3,24,54
8,24,51
12,21,53
41,22,66
21,22,49
22,22,47
27,27,53
23,28,54
23,30,59
31,30,55
14,27,50
15,30,58
12,32,56
19,35,65
20,35,66
18,28,72
5,23,57
2,27,62
-1,5,63
-31,37,55
-30,16,61
-31,11,52
-25,-10,43
-22,-22,32
10,-22,53
-1,-19,50
9,-17,35
-7,5,50
-27,24,57
-93,40,46
-28,27,69
-18,16,59
-11,10,55
18,1,66
-8,15,59
-16,19,83
-31,12,54
-49,12,35
-35,28,57
-86,19,20
-76,21,25
-33,13,36
-52,18,12
-33,19,33
-38,39,35
-26,8,14
36,20,56
43,30,101
15,32,73
41,28,70
26,19,46
9,38,45
18,42,63
27,38,82
19,30,55
22,41,64
20,19,62
-3,26,55
-8,24,57
18,1,70
24,4,79
29,-3,77
18,-15,62
4,-12,49
10,-16,48
15,-21,41
17,-20,41
18,-19,41
24,-15,42
27,-8,50
28,-9,49
33,-11,44
36,-8,47
42,-9,50
37,-13,51
26,-14,50
29,-13,53
28,-16,53
23,-12,50
27,-11,53
31,-8,55
28,-7,53
30,-9,51
33,-8,52
31,-6,52
27,-9,50
30,-8,51
32,-9,51
31,-10,50
31,-10,51
33,-10,51
34,-10,52
30,-11,52
29,-10,52
32,-10,54
31,-10,54
30,-10,54
28,-10,55
29,-10,55
30,-10,56
28,-9,55
27,-9,55
28,-9,54
30,-9,55
28,-9,55
27,-8,55
28,-8,56
26,-7,55
26,-8,55
26,-7,55
28,-7,56
28,-7,56
28,-7,55
27,-7,55
28,-7,55
28,-7,55
25,-8,55
25,-7,55
26,-6,56
28,-5,57
27,-3,57
28,-3,57
31,2,55
31,6,56
33,7,58
33,6,57
30,-6,58
30,-9,62
28,-9,63
25,-12,66
30,-6,75
29,0,76
21,3,68
10,-9,56
5,-18,50
-3,-28,39
4,-40,41
14,-38,47
8,-30,48
-14,-36,39
-18,-44,36
-10,-54,36
-7,-56,38
-5,-58,32
0,-52,35
1,-42,46
5,-40,47
13,-42,49
4,-40,46
6,-39,48
-2,-30,54
-5,-33,45
-1,-28,48
6,-11,69
14,2,66
-1,6,53
-47,14,19
-70,2,-17
-68,-13,-25
-63,-8,-47
-68,-14,-62
-56,-16,-57
-55,-16,-56
-55,-17,-50
-55,-15,-43
-54,-17,-40
-55,-17,-37
-50,-21,-42
-35,-13,-46
-9,7,1
7,12,51
-34,2,36
36,3,41
54,-5,51
71,-4,42
73,-7,49
60,-2,57
55,-1,54
59,3,56
42,6,75
55,12,89
61,4,79
36,11,20
-123,-7,-55
-118,-8,-30
-45,26,38
-20,23,40
-27,-3,23
-3,0,39
-5,-20,29
23,-16,46
60,-14,71
20,-18,65
29,-12,74
17,-15,69
22,-8,75
22,-3,83
26,18,107
-13,10,47
-17,7,47
4,16,60
5,6,60
13,7,65
-16,2,58
-5,1,69
-8,-1,70
-29,11,47
-2,8,63
10,12,64
-7,9,52
7,13,67
5,25,84
-14,9,55
15,0,45
22,23,62
-8,20,52
-18,28,65
-20,26,71
-21,25,68
-14,18,69
-23,13,61
-27,11,77
-17,4,75
-35,1,63
-25,-3,61
-19,-7,61
-38,-18,40
-35,-31,45
-10,-41,22
-20,-46,12
-41,-48,-9
-53,-44,-8
-75,-31,24
-35,-43,26
-56,-39,14
-55,-37,20
-43,-33,29
-48,-36,27
-51,-36,12
-45,-39,14
-44,-37,13
-40,-37,18
-19,-38,21
-26,-37,18
-33,-39,12
-31,-44,5
-31,-45,4
-34,-47,1
-48,-79,-4
-41,-82,0
-29,-34,24
-33,-58,10
-35,-49,17
-41,-51,26
-44,-49,21
-43,-47,18
-35,-49,17
-35,-52,20
-34,-51,19
-30,-51,18
-33,-52,22
-32,-51,18
-36,-52,16
-45,-53,15
-43,-54,17
-37,-45,19
-40,-46,16
-37,-47,17
-27,-37,22
-41,-37,22
-41,-48,16
-44,-46,15
-39,-48,19
-35,-46,23
-35,-49,23
-38,-45,23
-37,-44,20
-47,-44,21
-49,-44,25
-47,-37,25
-33,-41,27
-40,-43,22
-46,-43,21
-41,-46,21
-38,-45,22
-37,-45,23
-38,-48,22
-37,-51,23
-36,-45,24
-49,-43,22
-42,-45,23
-41,-45,20
-37,-48,15
-39,-47,14
-34,-48,21
-44,-48,14
-42,-48,17
-36,-47,21
-33,-49,17
-37,-47,19
-31,-48,29
-32,-46,31
-35,-46,27
-32,-49,27
-32,-48,27
-30,-48,26
-33,-50,21
-26,-51,26
-24,-52,28
-25,-51,27
-21,-51,27
-20,-51,27
-17,-54,29
-23,-52,24
-23,-52,26
-23,-52,30
-17,-51,33
-18,-51,33
-19,-52,32
-22,-51,32
-23,-51,31
-23,-51,29
-23,-51,29
-20,-51,30
-14,-51,29
-11,-51,32
-7,-53,34
-8,-52,35
-9,-53,33
-8,-52,34
-10,-51,33
-9,-52,33
-9,-51,37
-8,-51,37
-7,-50,38
-9,-51,37
-9,-53,37
-14,-50,33
-9,-51,36
-9,-52,32
-11,-52,31
-9,-53,33
-11,-52,34
-9,-51,35
-8,-51,35
-7,-51,35
-6,-51,35
-5,-53,38
-13,-51,35
-14,-52,35
-9,-51,36
-10,-53,31
-10,-53,29
-7,-53,32
-6,-52,35
-6,-52,35
-8,-51,33
-12,-52,34
-11,-52,36
-14,-51,36
-11,-52,37
-9,-51,38
-7,-52,38
-18,-53,28
-23,-52,25
-36,-52,24
-13,-46,27
-31,-43,21
-55,-50,16
-30,-47,23
-26,-49,26
-27,-51,29
-29,-52,27
-29,-51,24
-25,-51,22
-21,-52,24
-23,-52,26
-30,-51,24
-32,-50,22
-25,-51,25
-27,-50,26
-30,-50,27
-33,-49,27
-30,-48,28
-26,-48,31
-23,-49,34
-27,-49,26
-35,-50,20
-37,-52,16
-35,-50,16
-38,-49,18
-41,-51,12
-36,-51,10
-34,-50,13
-41,-50,14
-34,-50,18
-32,-51,20
-34,-48,21
-29,-49,25
-25,-50,27
-25,-52,23
-43,-51,13
-39,-50,14
-39,-49,15
-35,-50,13
-37,-49,13
-38,-51,17
-33,-47,25
-30,-47,24
-34,-51,19
-31,-50,17
-32,-52,17
-35,-51,16
-28,-47,23
-32,-47,25
-39,-49,22
-33,-50,20
-39,-50,17
-35,-50,19
-33,-49,23
-36,-49,22
-32,-50,20
-31,-50,19
-31,-49,22
-33,-49,22
-31,-49,23
-33,-48,22
-35,-50,21
-36,-50,21
-35,-49,22
-37,-49,22
-36,-49,22
-28,-47,24
-35,-49,23
-31,-50,23
-35,-49,22
-32,-50,24
-33,-50,24
-32,-50,23
-29,-48,26
-35,-49,22
-30,-50,21
-31,-51,21
-37,-49,21
-29,-50,28
-31,-47,26
-35,-48,24
-30,-48,23
-30,-49,26
-30,-50,25
-29,-49,27
-32,-50,24
-32,-49,23
-33,-48,24
-30,-50,25
-29,-49,25
-33,-49,24
-29,-49,25
-29,-50,26
-31,-49,26
-30,-50,25
-32,-49,25
-31,-49,24
-25,-49,26
-27,-52,28
-28,-50,28
-29,-50,26
-29,-50,27
-26,-50,29
-25,-49,30
-28,-49,29
-31,-50,28
-27,-48,29
-25,-48,29
-29,-50,27
-30,-51,25
-26,-49,25
-28,-52,26
-29,-51,26
-25,-49,27
-23,-48,33
-22,-48,34
-26,-50,28
-30,-50,23
-34,-51,23
-35,-50,23
-27,-50,28
-25,-50,28
-30,-49,28
-30,-50,30
-28,-50,29
-27,-50,25
-29,-49,20
-28,-50,21
-22,-52,31
-31,-50,27
-27,-50,27
-27,-50,26
-34,-49,24
-21,-48,27
-29,-49,27
-29,-50,28
-29,-52,29
-31,-47,28
-23,-48,27
-29,-49,26
-33,-49,26
-33,-50,28
-31,-49,29
-29,-50,29
-28,-47,26
-30,-49,25
-30,-50,25
-29,-49,25
-29,-47,24
-32,-50,26
-29,-48,29
-29,-51,29
-31,-50,26
-29,-49,28
-31,-48,28
-29,-49,24
-29,-48,25
-32,-50,24
-31,-50,26
-31,-49,26
-28,-49,28
-29,-49,27
-28,-50,27
-28,-49,26
-30,-49,25
-29,-50,26
-29,-49,26
-30,-49,24
-29,-48,25
-26,-51,29
-30,-49,27
-33,-48,25
-31,-49,24
-26,-51,28
-27,-50,29
-30,-49,28
-27,-48,27
-28,-49,27
-29,-51,26
-33,-50,24
-32,-49,24
-30,-50,24
-28,-49,26
-30,-49,26
-30,-50,25
-26,-49,29
-26,-49,30
-28,-50,28
-28,-50,27
-27,-50,27
-25,-51,28
-27,-50,28
-27,-50,27
-26,-50,27
-28,-51,27
-29,-51,25
-25,-51,27
-22,-51,32
-20,-50,33
-17,-49,34
-23,-51,29
-24,-50,29
-25,-50,31
-23,-48,35
-24,-47,36
-39,-49,22
-31,-56,15
-25,-55,16
-20,-52,28
-15,-48,36
-7,-49,41
-21,-49,32
-27,-48,30
-25,-51,29
-21,-49,34
-23,-49,36
-23,-48,36
-21,-49,33
-21,-50,30
-26,-50,28
-24,-50,28
-28,-48,25
-36,-50,25
-29,-47,37
-24,-52,38
-27,-46,32
-19,-48,37
-17,-49,39
-21,-47,35
-27,-48,32
-26,-48,31
-22,-49,32
-19,-49,33
-22,-49,31
-27,-49,31
-21,-50,33
-17,-50,36
-12,-51,34
-17,-50,32
-17,-50,32
-17,-51,33
-14,-52,33
-14,-51,34
-14,-51,37
-3,-51,46
-1,-49,44
-25,-50,16
-48,-50,-2
-52,-52,-6
-40,-54,-2
-35,-53,5
-36,-51,5
-36,-53,6
-34,-45,28
-30,-59,26
-26,-46,24
-28,-50,33
-34,-50,33
-29,-49,27
-29,-51,23
-32,-51,21
-33,-51,25
-30,-52,27
-29,-51,24
-25,-53,24
-22,-54,22
-31,-54,17
-26,-53,14
-28,-53,17
-19,-54,28
-19,-49,32
-24,-50,31
-21,-54,31
-13,-55,22
-26,-54,11
-36,-54,8
-36,-53,8
-39,-52,13
-28,-52,25
-35,-50,16
-32,-50,18
-28,-51,22
-30,-51,24
-29,-51,24
-32,-51,20
-32,-53,19
-29,-53,19
-31,-53,22
-28,-49,24
-29,-50,23
-34,-50,19
-33,-51,19
-33,-51,19
-29,-52,23
-31,-52,24
-34,-52,20
-25,-51,21
-30,-52,18
-32,-50,18
-37,-54,18
-29,-51,25
-28,-53,25
-33,-51,19
-29,-52,19
-29,-52,20
-29,-52,20
-30,-53,22
-29,-51,25
-29,-53,21
-30,-52,21
-30,-52,21
-30,-53,20
-32,-53,17
-30,-52,19
-30,-51,24
-28,-52,25
-30,-53,23
-30,-51,19
-23,-52,21
-31,-51,21
-28,-53,22
-28,-52,23
-26,-52,26
-30,-53,20
-26,-53,21
-26,-52,24
-27,-51,23
-29,-52,22
-29,-52,21
-27,-51,21
-27,-52,21
-27,-54,26
-29,-52,22
-24,-52,24
-29,-53,20
-23,-53,24
-25,-54,22
-25,-53,23
-24,-53,23
-28,-53,22
-26,-53,25
-28,-53,23
-28,-53,22
-27,-54,24
-22,-53,24
-22,-53,23
-23,-53,23
-22,-53,23
-23,-53,22
-23,-53,23
-25,-53,23
-25,-52,24
-24,-53,26
-26,-52,27
-26,-53,25
-24,-53,23
-24,-54,23
-21,-54,25
-25,-52,26
-27,-53,27
-25,-52,25
-29,-53,21
-23,-53,22
-24,-53,22
-29,-53,22
-27,-52,25
-31,-53,23
-26,-52,24
-27,-52,24
-29,-51,23
-29,-52,23
-26,-51,25
-27,-52,27
-29,-51,30
-32,-51,23
-31,-48,23
-30,-53,20
-26,-49,21
-29,-51,27
-31,-52,27
-30,-51,24
-27,-52,25
-27,-51,25
-26,-51,26
-25,-51,24
-26,-52,23
-26,-52,24
-26,-51,26
-29,-52,24
-27,-52,24
-26,-51,23
-28,-53,23
-29,-52,22
-27,-51,24
-29,-51,26
-28,-51,27
-27,-51,24
-31,-51,22
-28,-51,24
-25,-52,23
-25,-52,23
-27,-53,24
-25,-53,28
-28,-51,22
-26,-51,22
-29,-51,22
-27,-51,25
-27,-52,26
-25,-51,31
-28,-51,24
-25,-53,22
-26,-53,24
-25,-52,24
-26,-50,21
-27,-52,24
-28,-53,26
-26,-51,26
-32,-51,22
-32,-52,22
-29,-52,24
-26,-51,24
-27,-51,24
-26,-51,23
-26,-51,24
-29,-51,23
-28,-52,23
-28,-51,25
-28,-51,25
-28,-52,23
-28,-51,23
-27,-51,25
-28,-51,27
-27,-51,26
-28,-51,24
-29,-51,24
-28,-51,25
-28,-51,24
-28,-52,24
-28,-51,24
-28,-52,24
-26,-51,25
-28,-51,25
-27,-52,25
-29,-51,24
-27,-51,24
-26,-51,26
-29,-51,24
-28,-51,24
-27,-52,24
-28,-51,24
-27,-52,24
-27,-51,24
-28,-51,24
-27,-52,24
-27,-51,24
-27,-51,24
-26,-51,25
-27,-52,25
-27,-52,26
-28,-52,24
-26,-51,25
-28,-51,23
-28,-51,23
-28,-52,24
-26,-51,26
-26,-51,27
-27,-51,25
-26,-51,27
-28,-52,26
-27,-51,25
-26,-51,26
-26,-51,25
-27,-53,23
-24,-51,26
-25,-51,27
-28,-53,26
-27,-48,25
-24,-51,24
-25,-49,24
-31,-52,22
-28,-53,25
-23,-52,30
-22,-51,26
-26,-52,25
-29,-52,23
-28,-53,24
-27,-53,26
-27,-51,24
-25,-52,25
-27,-51,23
-26,-52,25
-26,-52,25
-26,-52,26
-25,-53,27
-29,-52,25
-27,-52,24
-22,-52,25
-30,-51,25
-29,-52,24
-28,-51,26
-30,-53,23
-20,-50,25
-27,-52,24
-26,-52,25
-28,-53,26
-28,-51,26
-28,-50,23
-23,-52,24
-28,-51,23
-27,-51,25
-27,-52,24
-28,-51,26
-27,-52,26
-27,-51,24
-27,-51,25
-26,-51,25
-27,-51,24
-27,-51,25
-27,-51,26
-28,-51,26
-27,-52,24
-26,-52,24
-28,-52,24
-27,-51,24
-24,-51,25
-27,-51,25
-30,-51,24
-28,-51,24
-27,-52,26
-27,-52,26
-27,-52,25
-26,-51,25
-23,-52,25
-32,-51,19
-27,-51,23
-28,-53,26
-27,-51,27
-27,-53,26
-28,-51,24
-27,-52,21
-27,-52,24
-27,-51,24
-26,-51,25
-29,-53,28
-27,-51,25
-27,-50,22
-27,-52,23
-23,-49,23
-25,-52,26
-28,-53,25
-26,-51,28
-27,-52,26
-25,-51,23
-27,-52,24
-26,-51,25
-25,-51,25
-28,-53,26
-27,-52,26
-28,-53,22
-24,-51,22
-26,-52,25
-29,-53,25
-27,-52,27
-28,-52,25
-27,-52,23
-25,-52,25
-27,-51,25
-28,-52,24
-28,-52,25
-27,-52,25
-27,-51,23
-24,-51,24
-25,-51,25
-28,-52,25
-28,-51,25
-27,-52,25
-27,-51,25
-27,-51,24
-27,-52,23
-25,-52,26
-27,-52,26
-25,-51,27
-24,-52,26
-23,-52,27
-25,-51,26
-24,-52,27
-23,-52,27
-24,-52,26
-25,-51,27
-26,-52,27
-25,-51,27
-24,-51,28
-26,-51,27
-24,-51,27
-26,-51,27
-23,-52,28
-26,-52,27
-24,-52,27
-24,-51,26
-23,-52,28
-24,-52,27
-26,-51,27
-23,-51,28
-26,-51,26
-24,-50,24
-27,-53,29
-29,-50,25
-28,-51,25
-28,-54,26
-29,-53,25
-32,-49,24
-27,-47,25
-28,-49,23
-24,-51,29
-21,-48,27
-23,-51,26
-28,-53,25
-24,-51,23
-23,-51,26
-30,-52,26
-26,-51,27
-25,-51,26
-25,-50,26
-23,-53,27
-21,-53,29
-25,-52,31
-26,-53,31
-28,-53,30
-28,-50,23
-27,-51,19
-26,-57,22
-27,-46,28
-30,-51,23
-26,-52,23
-31,-53,20
-27,-52,19
-26,-53,19
-22,-55,19
-24,-54,23
-25,-53,24
-27,-53,23
-26,-53,23
-25,-52,23
-27,-53,23
-26,-53,23
-26,-53,23
-25,-53,23
-25,-52,25
-28,-53,23
-24,-54,24
-25,-54,22
-24,-54,23
-23,-54,23
-26,-54,19
-27,-54,19
-28,-53,19
-29,-54,19
-31,-53,17
-33,-53,14
-33,-53,14
-30,-54,16
-31,-54,16
-28,-56,18
-30,-55,15
-31,-58,16
-29,-51,13
-25,-48,15
-19,-48,36
-19,-47,38
-31,-54,28
-29,-54,25
-27,-53,24
-30,-53,19
-25,-54,22
-24,-53,23
-27,-52,23
-28,-52,23
-29,-52,22
-28,-53,21
-30,-53,19
-30,-53,20
-26,-53,22
-22,-45,32
-29,-51,26
-27,-52,17
-27,-53,16
-28,-54,17
-25,-54,20
-21,-54,27
-23,-55,27
-27,-47,25
-30,-50,22
-32,-52,20
-26,-54,20
-25,-54,19
-27,-55,19
-29,-53,18
-24,-53,22
-17,-53,25
-23,-54,22
-30,-52,28
-25,-52,29
-27,-50,27
-22,-53,30
-21,-52,30
-23,-51,28
-28,-51,24
-29,-51,24
-26,-52,25
-26,-53,25
-23,-52,26
-26,-51,25
-25,-52,24
-29,-51,21
-33,-50,20
-33,-50,20
-29,-50,26
-28,-49,25
-30,-49,26
-31,-49,27
-30,-48,28
-31,-48,27
-30,-49,27
-29,-49,28
-28,-49,28
-28,-49,28
-31,-49,28
-31,-48,26
-30,-49,27
-31,-48,27
-29,-49,28
-29,-48,29
-31,-48,28
-29,-49,29
-29,-49,28
-29,-48,28
-29,-49,28
-29,-49,27
-27,-49,28
-28,-49,28
-26,-48,30
-27,-50,30
-26,-49,30
-27,-49,29
-27,-49,30
-28,-48,30
-29,-48,30
-26,-49,29
-25,-49,30
-28,-48,30
-28,-48,30
-27,-50,29
-27,-49,30
-26,-49,31
-25,-50,31
-25,-50,29
-27,-49,28
-24,-50,29
-24,-50,32
-25,-50,32
-26,-51,28
-25,-49,25
-26,-49,25
-39,-48,18
-31,-50,18
-37,-49,11
-42,-49,4
-41,-51,6
-42,-50,6
-40,-49,8
-41,-48,9
-40,-50,9
-40,-48,11
-38,-49,13
-39,-49,12
-41,-48,11
-39,-49,13
-38,-49,13
-38,-48,15
-38,-48,15
-37,-48,15
-38,-49,16
-33,-49,18
-31,-49,22
-27,-49,29
-27,-48,32
-27,-48,33
-29,-48,33
-32,-48,29
-33,-49,27
-29,-49,26
-26,-50,26
-26,-50,27
-31,-50,26
-30,-49,24
-30,-49,25
-29,-49,27
-29,-49,27
-29,-49,27
-30,-49,26
-29,-49,26
-28,-48,26
-29,-50,27
-32,-48,24
-34,-48,24
-33,-50,31
-28,-46,28
-42,-50,18
-33,-50,26
-20,-52,28
-21,-51,26
-27,-48,27
-27,-48,28
-9,-53,35
-19,-50,30
-23,-55,26
-21,-56,29
-9,-55,30
-7,-54,30
-7,-53,25
5,-56,28
2,-56,30
-2,-54,34
-3,-55,32
-5,-55,32
-9,-56,30
-9,-56,26
-10,-54,24
-11,-55,31
-2,-56,24
1,-52,30
3,-51,46
6,-50,39
6,-50,41
2,-51,42
-1,-54,30
-4,-55,26
-14,-57,23
-12,-56,25
-14,-56,23
-12,-56,23
-8,-56,26
-7,-55,27
-9,-55,27
-5,-55,30
-6,-54,31
-9,-55,25
-16,-57,26
-18,-56,26
-6,-53,29
1,-50,42
3,-51,43
8,-50,46
1,-51,37
-1,-52,32
-5,-54,28
-6,-55,31
-8,-55,30
-10,-55,27
-7,-54,33
-6,-54,32
-12,-53,24
-5,-55,31
-3,-53,39
-4,-54,35
1,-51,46
-14,-55,26
-12,-56,21
-11,-56,23
-7,-56,25
-8,-55,26
-9,-55,28
-9,-54,34
-12,-54,37
-11,-55,33
-14,-54,19
-11,-52,32
-7,-55,30
12,-51,43
-6,-51,40
-7,-50,42
-2,-51,42
-12,-54,31
-10,-54,30
-7,-54,28
-17,-54,22
-11,-54,28
-14,-55,27
-9,-55,28
-1,-53,32
-13,-53,35
-12,-52,37
-14,-53,36
-9,-53,38
-6,-54,28
-7,-53,24
-10,-54,28
-12,-53,34
-14,-53,34
-16,-54,31
-11,-54,33
-10,-53,34
-14,-53,30
-12,-52,36
-10,-54,32
-16,-55,24
-14,-55,27
-12,-55,25
-8,-55,27
-9,-54,33
-15,-55,30
-13,-53,31
-7,-53,33
-11,-52,32
-1,-53,35
-7,-53,31
-11,-53,30
-14,-57,25
6,-53,31
8,-50,36
-4,-48,44
1,-49,46
-5,-50,40
-4,-52,31
-1,-50,35
-3,-54,39
-14,-55,31
-14,-53,30
-9,-53,28
-9,-54,28
-11,-54,28
-13,-54,31
-18,-53,29
-14,-53,28
-6,-53,34
-7,-53,32
-7,-52,32
-6,-52,36
-15,-52,36
-12,-52,36
-10,-53,31
-12,-53,32
-13,-53,32
-16,-54,29
-15,-54,28
-14,-53,28
-14,-54,26
-15,-53,28
-14,-53,30
-14,-53,30
-11,-51,33
-15,-51,30
-17,-51,34
-1,-47,48
-19,-42,40
-22,-50,23
-46,-54,6
-57,-48,15
-34,-48,28
-47,-47,8
-51,-44,7
-42,-48,18
-37,-48,20
-32,-46,19
-43,-47,20
-44,-47,19
-38,-48,18
-37,-48,18
-37,-49,19
-32,-49,21
-30,-49,23
-29,-48,24
-33,-47,23
-39,-46,24
-39,-45,26
-29,-47,30
-30,-46,28
-37,-49,26
-39,-49,21
-29,-48,27
-26,-49,30
-29,-49,28
-34,-48,21
-35,-49,20
-36,-49,19
-37,-48,18
-37,-50,18
-34,-49,21
-33,-49,20
-33,-50,19
-33,-50,19
-32,-50,21
-33,-49,20
-32,-49,20
-38,-48,21
-36,-46,20
-36,-50,22
-38,-49,19
-37,-48,20
-35,-48,23
-35,-49,25
-33,-48,25
-35,-49,23
-29,-48,25
-33,-49,23
-35,-48,22
-34,-48,24
-33,-48,24
-32,-49,24
-32,-48,23
-34,-49,22
-32,-50,22
-34,-50,18
-34,-51,17
-35,-49,21
-36,-48,21
-34,-49,26
-32,-48,27
-30,-46,25
-34,-50,27
-30,-48,26
-24,-49,30
-32,-49,24
-29,-50,26
-28,-49,27
-30,-49,26
-36,-48,22
-41,-48,16
-38,-48,17
-35,-50,21
-34,-50,22
-29,-49,25
-30,-53,23
-32,-49,23
-34,-52,20
-31,-48,22
-30,-50,23
-31,-49,24
-32,-48,25
-33,-49,24
-32,-50,23
-33,-49,22
-32,-49,23
-33,-48,24
-32,-50,24
-34,-48,23
-32,-50,23
-32,-51,23
-32,-50,22
-32,-50,22
-33,-50,22
-34,-50,22
-34,-49,22
-34,-50,23
-32,-49,24
-35,-49,23
-32,-50,23
-31,-49,23
-33,-49,22
-32,-49,23
-33,-49,23
-32,-49,24
-31,-50,25
-34,-49,21
-28,-50,22
-27,-50,23
-32,-50,23
-35,-49,21
-35,-46,21
-40,-49,25
-32,-52,26
-33,-47,23
-32,-46,23
-38,-48,19
-39,-50,18
-36,-51,18
-27,-46,27
-31,-47,26
-32,-49,21
-30,-49,24
-26,-49,29
-30,-47,31
-29,-48,33
-28,-47,35
-30,-47,33
-31,-47,32
-29,-47,33
-30,-47,30
-31,-47,28
-30,-48,29
-31,-48,29
-26,-48,31
-27,-48,30
-26,-47,30
-26,-49,30
-26,-48,33
-33,-46,31
-25,-50,29
-23,-49,31
-20,-50,31
-30,-50,21
-33,-50,19
-41,-46,22
-32,-45,29
-31,-50,21
-36,-47,17
-51,-46,18
-52,-46,15
-43,-44,10
-23,-44,13
-28,-43,16
-45,-36,26
-43,-31,44
-41,-33,44
-14,-35,55
6,-42,60
-12,-41,54
-37,-32,32
-39,-31,32
-37,-36,37
-25,-39,42
-29,-36,41
-30,-33,39
-35,-32,38
-35,-29,39
-35,-28,35
-37,-28,38
-33,-29,39
-34,-27,41
-35,-25,47
-37,-24,49
-34,-23,50
-37,-24,49
-40,-26,51
-38,-23,49
-35,-22,46
-39,-21,45
-40,-21,43
-39,-20,44
-42,-20,46
-51,-18,52
-67,-12,50
-46,-10,47
-35,-15,50
-39,-13,46
-39,-14,43
-41,-15,43
-41,-16,49
-40,-17,50
-38,-15,47
-38,-16,48
-38,-17,47
-38,-18,45
-39,-19,45
-40,-17,46
-38,-15,49
-39,-15,48
-39,-16,48
-38,-17,48
-37,-16,48
-38,-16,48
-36,-18,49
-35,-17,49
-36,-16,50
-37,-17,51
-38,-16,49
-38,-16,49
-40,-16,50
-44,-10,51
-39,-10,47
-31,-12,49
-28,-13,49
-30,-19,46
-38,-18,45
-37,-19,47
-36,-18,49
-38,-18,49
-40,-17,49
-40,-18,48
-41,-18,46
-42,-18,46
-42,-20,43
-43,-20,41
-44,-20,40
-46,-20,40
-45,-20,41
-46,-20,41
-47,-18,43
-46,-17,44
-46,-16,45
-46,-15,47
-46,-15,46
-45,-15,45
-39,-14,47
-35,-13,46
-34,-13,45
-38,-13,43
-39,-13,45
-40,-14,48
-39,-14,51
-38,-12,52
-37,-10,53
-32,-11,57
-27,-9,59
-28,-7,57
-27,-6,58
-29,-6,55
-30,-7,52
-29,-7,49
-36,-10,46
-37,-12,48
-40,-13,49
-44,-13,50
-44,-12,49
-42,-14,46
-45,-13,43
-44,-17,43
-45,-15,45
-43,-19,47
-42,-16,47
-39,-15,49
-37,-15,49
-29,-14,51
-28,-11,55
-30,-10,54
-33,-9,50
-36,-8,46
-37,-11,46
-40,-14,49
-41,-16,51
-41,-16,51
-41,-17,51
-39,-17,50
-39,-17,48
-39,-16,41
-48,-19,37
-52,-18,35
-46,-17,39
-46,-17,36
-48,-15,34
-56,-15,24
-66,-12,15
-66,-12,13
-56,-15,9
-57,-15,12
-64,-16,7
-67,-20,6
-58,-24,6
-72,-22,8
-80,-28,-6
-60,-17,11
-51,-15,18
-15,-6,40
-53,-3,47
-71,-6,35
-55,-5,39
1,-7,62
-8,-6,54
-12,3,61
-21,0,62
-30,5,53
-29,6,53
-15,32,91
-32,15,55
-12,6,57
-9,4,59
-8,4,61
-6,2,66
-8,5,61
-14,3,55
-7,2,64
-3,-2,58
7,-1,62
-2,1,81
-23,5,68
-11,-1,59
-3,7,62
1,3,63
0,6,63
-8,9,66
-10,8,65
-4,8,62
2,4,60
-3,4,59
-3,3,68
-2,5,68
-23,0,49
6,-3,63
5,0,67
1,0,71
-16,7,73
-6,3,72
-5,1,71
-19,-2,63
-14,-7,63
-12,-6,64
-10,-9,61
-10,-13,59
-7,-13,58
1,-11,57
9,-11,56
6,-9,56
-4,-2,58
-11,0,59
-13,-2,59
-12,-11,60
-18,-14,56
-17,-20,51
-11,-19,48
-9,-16,55
-16,-15,58
-22,-9,63
-9,-7,65
-8,-5,66
-11,-6,64
-10,-8,63
-8,-9,66
-7,-7,65
-15,-7,61
-17,-7,60
-15,-9,58
-11,-12,64
-12,-12,64
-14,-10,65
-10,-9,67
-6,-6,66
-9,-5,59
-10,-5,57
-5,-5,60
-4,-5,64
-10,-5,64
-9,-5,68
7,-5,70
6,-5,68
5,-4,65
15,-3,61
15,-1,60
13,-1,55
15,-1,51
17,-2,49
25,-3,50
18,-2,50
13,-2,52
15,0,61
22,2,65
24,1,63
25,5,58
23,6,63
28,-16,58
6,20,44
-12,-12,64
-9,-9,71
-10,-19,67
-21,-22,59
-30,-21,57
-20,-14,54
-26,5,60
-35,9,60
-27,4,65
-14,12,77
-11,2,71
-17,1,64
-16,-1,56
-41,2,45
-39,3,55
-56,3,38
-62,1,26
-63,0,16
-67,0,14
-65,-2,14
-76,-2,8
-54,-12,11
-62,-13,10
-51,-19,3
-56,-20,-8
-55,-25,-1
-49,-25,-4
-55,-30,-16
-71,-26,-32
-71,-32,-24
-54,-17,-9
-65,-38,-25
-65,-26,-26
-70,-33,-17
-38,-29,-1
-45,-20,14
-53,-21,18
-46,-29,-1
-58,-20,11
-47,-27,13
-44,-29,9
-48,-28,18
-58,-26,17
-58,-26,21
-58,-28,21
-63,-28,19
-50,-32,25
-56,-31,24
-55,-30,21
-52,-33,20
-54,-34,17
-56,-37,13
-49,-32,14
-55,-36,11
-57,-34,12
-51,-33,22
-54,-33,16
-47,-36,20
-50,-37,22
-47,-34,22
-49,-33,22
-50,-39,15
-51,-35,21
-49,-35,22
-50,-38,17
-46,-38,20
-41,-39,23
-37,-41,23
-35,-40,25
-35,-41,27
-38,-41,25
-35,-41,23
-38,-40,22
-43,-43,29
-39,-44,27
-36,-45,32
-38,-43,30
-35,-46,30
-35,-46,26
-35,-45,25
-33,-46,25
-31,-46,24
-33,-42,25
-33,-39,28
-38,-44,38
-36,-42,36
-33,-40,34
-36,-41,31
-37,-46,27
-35,-46,28
-35,-43,29
-32,-44,30
-34,-43,30
-37,-41,28
-34,-40,29
-35,-41,29
-37,-45,29
-38,-43,28
-39,-44,29
-40,-42,30
-40,-40,30
-41,-40,29
-40,-40,30
-39,-40,30
-39,-40,30
-37,-41,32
-37,-41,32
-36,-41,32
-37,-40,29
-37,-40,31
-37,-40,31
-37,-41,31
-37,-40,31
-38,-40,31
-40,-39,31
-41,-39,31
-39,-39,32
-40,-39,31
-39,-39,31
-36,-39,33
-42,-38,30
-38,-39,31
-35,-39,33
-39,-39,34
-39,-39,33
-39,-39,31
-40,-38,32
-41,-38,32
-30,-41,29
-38,-39,44
-29,-42,49
-22,-39,38
-25,-40,34
-26,-41,29
-33,-41,29
-43,-41,29
-44,-41,29
-40,-40,27
-37,-38,31
-35,-38,37
-40,-39,34
-38,-39,34
-38,-38,34
-36,-39,36
-37,-39,39
-37,-39,39
-37,-38,37
-37,-39,31
-34,-39,30
-43,-39,22
-47,-42,26
-42,-43,30
-38,-41,33
-37,-40,33
-38,-40,32
-39,-42,34
-32,-42,29
-36,-41,26
-39,-41,33
-37,-41,29
-39,-41,26
-35,-42,27
-38,-43,29
-38,-43,32
-36,-42,29
-37,-41,25
-37,-41,26
-40,-43,31
-41,-42,32
-38,-41,31
-37,-40,27
-40,-40,28
-39,-40,30
-39,-41,31
-38,-41,29
-38,-40,29
-39,-41,30
-38,-41,31
-37,-41,31
-38,-41,30
-38,-41,31
-36,-41,30
-38,-41,30
-37,-41,32
-32,-40,32
-35,-42,34
-34,-42,34
-41,-42,25
-39,-43,31
-35,-43,35
-32,-44,35
-31,-42,27
-33,-42,25
-34,-44,28
-30,-43,35
-30,-43,38
-41,-41,31
-38,-41,33
-36,-41,33
-33,-41,33
-35,-41,32
-37,-42,31
-38,-40,30
-34,-41,32
-36,-41,29
-40,-42,32
-39,-41,31
-36,-41,30
-38,-41,28
-36,-41,32
-32,-42,34
-31,-43,35
-28,-41,38
-30,-42,36
-30,-43,37
-24,-43,35
-26,-43,33
-25,-42,37
-31,-42,41
-36,-42,38
-33,-41,38
-30,-41,38
-32,-41,36
-36,-42,35
-35,-42,37
-33,-41,34
-39,-43,28
-37,-43,28
-35,-44,29
-34,-44,31
-32,-44,32
-29,-44,30
-34,-45,26
-38,-45,24
-34,-45,25
-28,-45,33
-29,-45,35
-33,-44,34
-33,-44,31
-33,-44,31
-33,-45,30
-30,-45,30
-29,-45,31
-32,-45,32
-33,-44,30
-31,-45,31
-33,-45,28
-30,-45,32
-30,-45,33
-36,-44,32
-30,-44,34
-29,-43,37
-42,-43,28
-35,-45,25
-31,-46,25
-31,-46,28
-33,-45,27
-33,-45,28
-33,-44,31
-41,-42,32
-38,-44,30
-32,-44,27
-32,-44,31
-31,-44,33
-29,-43,33
-38,-42,31
-38,-42,31
-39,-43,31
-36,-43,31
-36,-42,31
-35,-43,30
-35,-43,28
-35,-43,28
-34,-43,29
-30,-43,33
-30,-43,36
-32,-41,39
-27,-40,45
-28,-41,45
-30,-40,44
-26,-40,45
-21,-41,43
-7,-41,46
-6,-41,44
-8,-44,51
-8,-42,46
-4,-46,46
-11,-44,37
-21,-42,33
-22,-43,35
-21,-44,43
-15,-41,45
-18,-42,43
-14,-42,41
-12,-43,41
-14,-43,39
-12,-42,39
-9,-37,45
-9,-37,49
-15,-44,53
-19,-35,64
-13,-32,65
-4,-26,62
0,-21,59
-2,-23,52
9,-19,51
20,-13,54
17,-10,54
27,-4,57
32,3,54
31,5,57
35,7,58
34,12,53
34,12,52
40,14,49
37,17,46
38,18,45
39,21,44
38,22,43
37,21,44
31,21,44
34,21,44
34,21,44
35,22,47
32,21,46
32,21,47
33,21,49
33,21,51
32,21,52
31,21,52
31,20,53
31,19,53
32,19,52
32,18,52
30,17,51
32,19,52
32,17,51
31,18,53
36,19,61
31,21,61
12,21,55
-1,15,55
-2,10,55
-7,1,44
-4,-13,49
-6,-12,49
-11,-11,52
-15,-11,57
-18,-12,55
-16,-17,68
-13,-9,69
-7,-8,67
4,-8,68
5,-6,69
4,-5,67
2,-5,60
0,-7,59
0,-8,60
-3,-8,61
-10,-16,52
-13,-18,50
-23,-22,45
-29,-34,43
-30,-37,43
-36,-40,45
-47,-35,50
-40,-33,53
-19,-25,64
-19,-22,63
-22,-22,59
-36,-17,51
-48,-9,46
-33,-7,52
-23,-1,61
-15,-3,63
-22,-5,57
-27,-6,51
-31,-4,49
-29,-4,51
-30,-2,56
-31,-2,59
-26,-3,60
-25,-1,58
-25,-1,55
-25,-2,49
-21,-4,48
-29,2,59
-46,-8,77
-25,-10,63
-26,-4,57
-35,1,54
-36,2,56
-32,3,56
-34,5,53
-39,3,50
-38,2,50
-45,4,43
-47,5,43
-49,4,38
-40,4,48
-31,2,55
-31,0,56
-36,-2,54
-37,-1,52
-37,1,52
-37,2,51
-39,1,51
-39,0,51
-37,0,52
-37,2,51
-38,3,50
-38,3,50
-37,3,51
-38,2,51
-38,1,51
-37,2,52
-37,3,52
-39,4,50
-38,3,50
-37,3,51
-37,2,51
-40,2,50
-39,2,50
-38,3,51
-38,3,50
-39,3,50
-39,1,50
-38,2,51
-38,2,50
-40,2,49
-40,1,49
-39,2,50
-40,1,49
-40,1,49
-40,1,49
-40,1,49
-40,1,49
-40,1,49
-40,2,49
-40,1,49
-42,1,49
-41,1,48
-41,1,49
-41,1,49
-41,0,48
-42,0,48
-42,0,48
-41,0,48
-42,0,48
-43,0,48
-47,-2,47
-53,-1,46
-41,-3,49
-19,-6,65
-3,-4,84
-10,-6,85
-20,-9,68
-8,-5,66
-9,-5,59
4,-6,60
9,-9,61
9,-5,56
12,-3,54
14,-1,52
10,2,50
13,4,53
13,5,51
14,3,52
15,5,57
12,5,57
22,4,69
3,0,58
-1,2,59
14,3,65
11,6,63
11,5,64
6,7,65
2,8,62
2,8,62
-2,7,60
-2,3,58
0,2,59
-2,2,59
1,0,61
4,-2,63
-1,-4,62
-5,-6,62
-5,-6,63
-4,-11,63
-7,-13,63
-8,-15,63
-6,-14,63
-8,-13,64
-7,-12,64
-1,-8,63
-2,-6,64
-13,-6,58
-15,-12,57
-17,-12,52
-19,-17,51
-18,-22,55
-21,-19,57
-12,-13,63
-7,-7,67
-11,-6,66
-10,-6,66
2,-9,71
8,-11,77
22,-14,79
18,-27,59
17,-33,50
10,-33,48
-7,-31,30
-48,-19,25
-48,0,48
-42,17,46
-66,25,33
-77,29,32
-46,31,60
-47,24,51
-35,19,51
-3,8,62
-19,6,52
-23,8,62
-54,11,55
-70,7,34
-61,-1,14
-72,8,18
-71,7,14
-56,2,26
-61,3,33
-63,-8,17
-72,-2,7
-79,-18,12
-60,-23,14
-50,-28,-3
-58,-34,-8
-55,-34,-13
-55,-31,-6
-49,-29,-4
-49,-29,-9
-48,-31,-6
-51,-30,-10
-48,-31,-5
-37,-30,2
-36,-30,-6
-52,-29,-10
-47,-31,-16
-52,-33,-13
-42,-35,-23
-63,-30,-20
-57,-32,-13
-53,-31,-11
-39,-38,-26
-39,-38,-24
-53,-39,-29
-51,-33,-30
-48,-32,-27
-58,-33,-37
-53,-30,-37
-57,-28,-39
-52,-29,-38
-50,-26,-37
-51,-26,-37
-45,-28,-37
-46,-29,-38
-43,-28,-34
-44,-27,-30
-52,-28,-32
-55,-27,-33
-52,-28,-33
-47,-29,-34
-46,-28,-34
-45,-29,-35
-49,-26,-34
-47,-26,-33
-48,-27,-36
-46,-28,-39
-50,-27,-38
-49,-31,-40
-42,-33,-36
-41,-33,-26
-46,-34,-18
-50,-30,-10
-51,-29,-11
-46,-31,-26
-47,-37,-36
-48,-34,-35
-44,-29,-23
-45,-28,-26
-56,-28,-37
-55,-33,-38
-37,-30,-24
-48,-29,-30
-44,-29,-27
-49,-30,-30
-45,-31,-31
-51,-30,-34
-51,-30,-33
-49,-27,-29
-53,-28,-32
-51,-29,-31
-48,-28,-32
-46,-28,-32
-48,-29,-31
-54,-30,-33
-47,-33,-34
-44,-35,-35
-47,-33,-32
-46,-33,-31
-48,-34,-32
-50,-33,-31
-47,-33,-27
-47,-33,-27
-50,-32,-29
-48,-32,-30
-48,-32,-30
-48,-31,-28
-47,-31,-27
-47,-31,-29
-45,-30,-28
-46,-31,-31
-47,-29,-28
-51,-28,-26
-51,-29,-26
-51,-31,-28
-49,-33,-33
-45,-34,-37
-44,-34,-34
-49,-33,-28
-50,-32,-28
-48,-31,-27
-49,-33,-30
-51,-34,-31
-49,-34,-30
-46,-35,-28
-47,-33,-29
-49,-32,-29
-48,-32,-28
-47,-32,-28
-47,-32,-28
-48,-32,-25
-45,-32,-22
-42,-32,-21
-45,-30,-27
-46,-30,-30
-45,-31,-29
-48,-33,-30
-51,-33,-30
-56,-34,-32
-52,-31,-33
-54,-30,-36
-51,-31,-35
-47,-32,-32
-48,-32,-30
-51,-31,-28
-54,-35,-26
-53,-36,-24
-60,-33,-22
-70,-32,-16
-70,-33,-14
-66,-33,-18
-64,-34,-11
-60,-33,-5
-48,-32,7
-49,-31,14
-44,-29,19
-42,-29,26
-39,-27,29
-35,-25,31
-27,-21,41
-30,-15,46
-27,-13,49
-18,-11,53
-13,-12,58
-12,-12,59
-11,-15,57
-13,-18,57
-10,-19,57
-6,-20,55
-11,-17,56
-8,-14,58
-4,-13,56
-1,-12,55
1,-15,57
3,-21,57
-12,-22,57
-18,-24,54
-1,-26,58
7,-24,56
2,-20,54
-7,-15,58
-8,-14,61
-1,-6,69
-6,-9,65
-9,-4,77
-53,6,60
-27,1,78
-30,-1,67
5,-4,57
1,-4,44
-2,-2,46
-7,1,58
1,6,65
1,6,62
-2,5,59
13,9,76
34,24,89
-16,1,59
-11,4,68
-12,0,68
-7,-2,64
4,-1,59
-2,0,57
0,4,70
2,2,64
6,1,62
2,1,58
-6,3,57
-4,1,58
13,3,69
-12,3,61
-6,0,61
-4,5,63
2,2,63
3,2,63
2,4,62
4,2,65
0,5,63
3,5,63
3,4,63
2,4,63
0,7,64
6,5,63
7,4,63
2,5,63
-1,5,62
2,5,62
3,5,62
1,5,63
1,5,62
2,5,62
1,5,62
1,5,62
3,5,63
2,5,62
2,5,62
3,5,63
3,5,63
2,5,62
2,5,63
3,5,63
3,5,63
2,7,63
1,4,62
4,4,62
5,4,62
3,5,62
5,5,62
4,5,63
2,5,62
3,5,62
6,5,63
6,5,62
1,6,63
0,6,62
1,5,62
4,6,63
10,4,62
12,8,63
10,6,63
8,6,62
8,6,62
9,8,62
10,5,61
10,7,62
9,6,61
10,6,62
9,7,61
13,6,60
17,4,61
14,6,60
14,6,61
13,6,61
11,6,61
11,6,61
11,6,61
11,6,62
7,8,63
4,6,59
11,2,58
20,4,60
15,4,61
10,4,61
9,8,64
11,3,58
12,7,63
12,10,66
1,3,60
0,7,63
-2,1,60
2,12,65
2,8,63
-4,7,63
-3,8,63
-5,5,62
-9,5,61
-6,7,63
-10,6,63
-12,8,62
-9,5,62
-10,5,62
-11,6,61
-6,5,62
-6,3,63
-8,5,62
-11,6,62
-9,5,62
-13,5,62
-11,6,62
-8,5,62
-9,5,62
-10,5,62
-9,5,62
-10,6,63
-11,5,62
-11,5,62
-8,5,62
-7,6,62
-9,5,63
-10,6,62
-8,5,63
-7,5,62
-10,5,62
-10,5,62
-9,5,62
-9,5,62
-9,5,62
-10,5,62
-9,5,62
-9,5,62
-10,6,62
-11,5,62
-8,6,62
-9,5,62
-9,5,62
-9,5,62
-9,5,62
-10,5,62
-10,5,62
-10,5,62
-10,5,62
-9,5,62
-10,5,62
-9,5,62
-10,5,62
-11,5,62
-12,5,62
-10,5,62
-9,5,62
-11,5,62
-11,5,62
-10,5,62
-10,5,62
-12,5,62
-10,5,62
-10,5,62
-12,5,62
-9,5,62
-9,5,62
-11,5,62
-11,6,62
-11,3,61
-10,4,62
-10,5,62
-10,5,62
-10,5,62
-12,5,62
-11,5,62
-12,4,62
-13,4,61
-13,4,62
-14,5,62
-11,4,63
-11,3,66
-12,4,62
-10,5,62
-10,4,62
-11,6,62
-16,4,60
-14,5,61
-14,4,61
-16,3,61
-20,5,61
-20,4,60
-17,4,60
-15,4,62
-16,4,61
-16,4,61
-17,4,61
-14,5,62
-18,4,60
-20,5,60
-19,3,60
-17,3,61
-18,3,59
-19,4,60
-19,4,60
-21,5,60
-20,5,60
-20,6,60
-19,7,61
-16,5,60
-28,4,54
-24,2,59
-30,3,55
-18,4,61
-26,6,58
-27,5,58
-29,5,57
-24,5,58
-25,5,59
-24,4,59
-23,5,59
-12,3,62
-13,3,61
-25,4,58
-30,5,58
-28,5,57
-20,4,59
-28,3,57
-30,4,56
-24,4,58
-20,4,60
-22,5,59
-23,6,58
-18,5,60
-23,7,58
-22,6,59
-19,6,60
-20,5,59
-25,6,59
-22,6,59
-22,6,59
-27,6,57
-29,6,57
-29,6,56
-28,6,57
-30,6,56
-27,5,57
-29,6,56
-30,5,56
-29,6,56
-29,6,56
-29,5,56
-28,5,56
-28,5,56
-27,5,57
-28,5,57
-26,5,58
-23,5,58
-25,5,58
-27,5,57
-26,5,57
-26,5,58
-26,5,58
-25,4,58
-25,4,58
-27,4,57
-25,4,58
-28,5,57
-28,5,56
-28,5,57
-26,4,58
-27,5,57
-28,5,57
-27,4,58
-27,4,57
-27,4,57
-27,5,58
-27,5,58
-26,5,58
-26,4,58
-26,4,58
-25,4,58
-22,3,59
-24,4,58
-24,3,58
-23,3,59
-24,3,59
-24,4,59
-23,3,59
-23,3,59
-24,3,59
-24,3,59
-24,3,58
-25,4,59
-25,3,59
-24,3,58
-24,3,59
-25,3,58
-26,4,58
-27,4,58
-25,3,59
-23,2,58
-20,4,59
-25,4,59
-26,3,58
-22,3,59
-21,3,60
-23,3,58
-26,3,58
-26,3,56
-24,4,58
-18,1,60
-19,2,61
-18,2,61
-18,2,60
-15,2,61
-12,2,61
-8,1,62
-10,2,62
-12,2,62
-13,2,62
-7,2,62
-8,3,63
-9,2,62
-8,2,63
-9,2,62
-11,2,62
-8,2,62
-7,3,63
-10,2,62
-10,2,62
-7,2,63
-14,2,62
-13,2,62
-15,2,62
-11,2,62
-11,2,62
-12,2,61
-10,2,62
-9,2,63
-9,2,62
-9,2,63
-15,2,62
-13,3,61
-1,2,64
-9,3,62
-13,3,62
-12,2,62
-12,3,62
-12,3,62
-12,3,62
-14,2,62
-12,2,62
-13,2,61
-15,2,61
-16,2,61
-13,1,62
-13,2,62
-13,2,62
-18,2,61
-19,2,60
-15,1,61
-14,1,62
-16,2,61
-17,2,61
-16,1,61
-15,1,61
-16,1,61
-17,1,61
-15,1,61
-15,2,61
-14,1,62
-15,2,61
-14,1,61
-15,1,61
-15,2,61
-16,2,61
-15,2,61
-16,2,59
-18,1,62
-11,0,62
-11,2,62
-12,2,63
-16,3,61
-18,2,60
-14,2,61
-14,2,61
-15,2,62
-15,3,61
-15,2,62
-14,3,61
-10,2,62
-10,2,62
-10,2,62
-10,2,62
-9,3,63
-8,2,62
-14,3,62
-11,3,62
-10,3,62
-14,3,62
-14,3,61
-12,3,62
-8,3,62
-13,3,62
-14,3,61
-14,3,62
-15,3,62
-19,3,60
-16,3,61
-16,3,61
-16,2,61
-16,3,61
-14,5,61
-15,4,61
-16,5,62
-12,2,62
-8,2,63
-9,3,62
-7,4,63
-6,3,63
-9,3,62
-10,4,62
-8,4,61
-8,3,62
-10,3,62
-9,4,62
-10,4,62
-9,3,62
-8,2,63
-14,4,61
-13,3,62
-10,4,63
-11,3,62
-11,4,62
-14,3,62
-14,3,61
-12,3,62
-12,3,61
-16,3,61
-15,4,61
-13,4,62
-14,4,62
-14,3,61
-13,3,62
-13,3,62
-13,3,62
-13,3,62
-12,3,62
-13,4,62
-13,3,62
-11,3,62
-9,4,62
-14,4,62
-16,3,61
-11,3,62
-13,4,62
-14,3,61
-10,3,62
-11,3,62
-13,3,62
-11,3,62
-10,3,62
-11,3,62
-10,3,62
-9,3,62
-12,3,62
-11,3,62
-10,4,63
-12,3,62
-11,3,62
-10,3,62
-10,3,61
-10,3,62
-11,3,62
-11,3,62
-9,3,63
-8,3,63
-8,3,63
-8,3,63
-9,3,62
-10,3,62
-10,2,62
-10,2,62
-10,2,62
-9,2,62
-6,1,60
-8,3,63
-9,3,62
-12,4,63
-4,1,63
-13,-3,60
-11,1,62
-10,1,62
-13,3,62
-11,4,62
-11,4,62
-11,3,62
-12,3,62
-12,3,62
-10,3,62
-10,3,62
-11,4,62
-9,3,62
-10,3,62
-11,3,62
-10,3,62
-9,3,62
-9,3,62
-11,3,61
-8,3,62
-4,5,63
-12,3,63
-14,4,61
-11,4,63
-12,4,62
-13,4,62
-8,4,62
-11,4,62
-11,3,62
-10,4,62
-11,4,62
-11,3,62
-10,4,62
-10,4,62
-11,4,62
-12,4,62
-10,4,62
-10,4,62
-11,3,62
-10,4,62
-10,3,62
-11,3,62
-11,3,62
-11,4,62
-10,3,62
-9,3,62
-10,3,62
-9,3,62
-10,3,62
-10,3,62
-10,3,62
-11,3,62
-11,3,62
-9,4,63
-12,3,62
-9,3,62
-7,2,63
-10,3,62
-11,3,62
-10,3,62
-10,2,62
-6,2,63
-3,5,64
-7,3,63
-9,4,62
-8,3,62
-8,3,62
-10,3,62
-10,4,63
-8,3,62
-7,4,63
-8,4,62
-8,3,63
-8,3,63
-10,2,62
-6,4,63
-12,3,62
-9,3,62
-5,3,63
-12,10,62
-18,6,63
-10,6,66
-4,2,64
-12,1,65
-9,4,67
-8,-1,66
-15,1,65
-15,1,65
-6,-1,72
3,8,66
-3,-3,72
-13,-5,65
14,-12,61
10,-10,60
6,-12,60
8,-10,58
4,-9,56
11,-9,57
14,-10,60
12,-4,57
11,-5,58
14,-6,57
17,-6,56
17,-9,59
26,-12,57
19,-7,60
19,-15,56
19,-16,54
17,-16,53
19,-18,51
19,-17,53
21,-16,54
22,-17,56
27,-15,56
27,-16,55
22,-15,55
24,-17,59
22,-18,60
24,-22,57
18,-22,57
18,-25,61
12,-24,55
3,-25,54
5,-22,53
24,-27,53
24,-26,53
12,-18,45
-1,-28,47
-2,-28,45
-11,-31,39
-25,-34,36
-21,-36,37
-33,-39,31
-39,-39,34
-31,-42,35
-36,-43,35
-42,-44,33
-49,-44,30
-65,-43,33
-36,-42,41
-38,-43,38
-46,-43,26
-43,-39,27
-49,-37,21
-40,-41,17
-52,-39,5
-53,-41,3
-45,-40,11
-47,-39,5
-51,-41,-2
-49,-41,2
-52,-42,-1
-56,-41,-7
-52,-40,-14
-56,-37,-12
-57,-37,-11
-56,-35,-6
-58,-34,-7
-58,-32,-6
-57,-33,-6
-55,-32,-3
-56,-32,-4
-59,-31,-6
-57,-29,-6
-57,-28,-5
-56,-27,-3
-57,-26,-2
-59,-26,-2
-62,-24,0
-61,-24,0
-57,-23,2
-53,-24,5
-49,-24,7
-44,-27,9
-51,-25,14
-57,-27,13
-60,-26,8
-66,-25,-7
-71,-22,-11
-67,-22,-5
-63,-21,-3
-59,-21,-4
-58,-21,-4
-59,-21,-2
-60,-20,-2
-62,-19,-3
-63,-20,0
-64,-19,4
-59,-23,1
-59,-23,-3
-58,-24,-3
-55,-24,-4
-53,-21,-8
-56,-20,-8
-60,-19,-8
-81,-13,-5
-73,-15,0
-63,-15,-1
-60,-15,-6
-61,-14,-8
-63,-16,-10
-63,-17,-9
-64,-17,-9
-61,-18,-10
-62,-18,-10
-63,-17,-9
-62,-15,-9
-62,-15,-8
-62,-15,-8
-62,-15,-8
-62,-14,-7
-62,-14,-8
-63,-13,-7
-62,-15,-8
-62,-14,-9
-63,-15,-9
-63,-15,-8
-62,-15,-7
-62,-14,-6
-62,-13,-6
-62,-14,-4
-62,-14,-1
-61,-15,0
-61,-16,0
-63,-17,-2
-62,-17,-2
-62,-17,-2
-63,-17,-4
-63,-16,-4
-62,-15,-4
-62,-15,-4
-62,-15,-4
-63,-15,-3
-62,-16,-2
-62,-15,-1
-61,-14,-2
-63,-14,-4
-63,-13,-4
-62,-13,-3
-62,-14,-2
-62,-15,-2
-62,-15,-2
-63,-16,-3
-63,-17,-4
-63,-16,-2
-62,-16,-1
-62,-15,0
-62,-15,0
-61,-15,0
-62,-14,0
-61,-14,-1
-63,-15,-2
-63,-15,-1
-63,-16,-1
-63,-15,0
-62,-15,2
-61,-16,4
-62,-18,4
-63,-19,4
-64,-18,3
-63,-16,3
-62,-16,2
-62,-15,2
-61,-16,2
-62,-16,2
-62,-17,2
-63,-17,2
-62,-18,2
-63,-17,2
-62,-17,2
-62,-16,2
-62,-16,0
-63,-16,-2
-63,-16,-5
-60,-16,0
-60,-16,4
-60,-16,6
-62,-17,5
-65,-17,2
-62,-16,0
-61,-14,-4
-64,-16,-4
-60,-13,3
-61,-14,3
-60,-16,3
-63,-16,0
-64,-16,1
-62,-16,2
-62,-16,4
-62,-16,4
-62,-17,3
-63,-18,4
-63,-19,4
-62,-19,5
-62,-17,4
-63,-17,2
-63,-16,2
-62,-16,3
-62,-16,4
-62,-16,4
-62,-15,4
-61,-15,4
-62,-16,3
-63,-16,3
-62,-15,3
-62,-15,3
-61,-14,4
-62,-15,4
-62,-15,4
-62,-14,4
-62,-14,4
-62,-15,3
-62,-14,4
-62,-15,4
-63,-15,3
-62,-15,4
-61,-14,4
-61,-13,4
-62,-13,4
-63,-15,4
-62,-14,5
-65,-14,3
-65,-16,3
-63,-15,3
-63,-13,4
-62,-12,4
-61,-12,3
-63,-11,2
-63,-12,2
-62,-12,2
-62,-13,3
-63,-13,3
-63,-13,3
-63,-13,3
-63,-13,3
-62,-13,3
-62,-13,3
-63,-13,3
-63,-13,2
-63,-13,3
-63,-13,3
-63,-13,5
-63,-12,7
-63,-13,7
-63,-14,4
-62,-13,3
-63,-12,3
-62,-12,4
-62,-13,4
-62,-13,4
-63,-13,4
-63,-13,4
-62,-13,4
-63,-13,4
-62,-13,4
-63,-13,4
-63,-13,4
-63,-13,4
-63,-13,4
-63,-13,4
-63,-13,4
-63,-13,4
-62,-13,4
-62,-13,4
-63,-13,4
-63,-12,5
-63,-13,5
-63,-12,5
-63,-13,4
-63,-13,4
-63,-13,4
-62,-12,4
-62,-12,4
-62,-12,4
-62,-11,3
-62,-11,2
-62,-11,2
-62,-13,1
-63,-13,3
-63,-13,3
-62,-14,4
-62,-14,3
-64,-16,2
-62,-16,3
-62,-16,4
-66,-14,2
-62,-14,3
-63,-14,3
-62,-13,4
-63,-14,2
-62,-14,3
-62,-14,4
-62,-14,3
-62,-14,3
-63,-15,4
-62,-15,5
-62,-15,5
-62,-15,5
-63,-14,4
-64,-14,4
-61,-12,4
-63,-13,3
-63,-13,3
-63,-13,3
-62,-13,4
-62,-13,5
-62,-13,4
-63,-15,5
-63,-15,5
-63,-14,4
-62,-14,6
-63,-15,5
-62,-13,6
-63,-13,5
-64,-14,4
-63,-11,4
-63,-11,4
-63,-11,3
-63,-12,4
-63,-11,4
-63,-12,4
-63,-11,5
-62,-12,4
-63,-12,4
-62,-13,5
-63,-13,4
-63,-13,4
-63,-13,4
-63,-14,5
-63,-13,4
-62,-14,3
-63,-14,4
-63,-14,4
-63,-14,3
-62,-14,4
-63,-14,5
-62,-14,4
-62,-14,4
-62,-14,4
-62,-14,4
-62,-14,4
-62,-14,4
-63,-14,4
-63,-14,4
-62,-14,4
-63,-13,4
-63,-13,3
-62,-13,3
-62,-14,4
-62,-14,4
-62,-13,4
-63,-13,3
-62,-13,3
-62,-13,3
-63,-14,2
-63,-14,2
-62,-13,3
-62,-12,3
-62,-12,3
-62,-12,3
-62,-13,3
-63,-13,3
-63,-14,3
-62,-15,5
-62,-16,5
-62,-17,5
-62,-16,5
-62,-16,4
-62,-17,3
-62,-17,3
-63,-16,3
-63,-16,2
-62,-16,2
-63,-15,2
-62,-16,1
-63,-16,3
-63,-17,4
-61,-16,7
-63,-15,6
-62,-16,6
-62,-15,6
-62,-15,7
-62,-16,7
-62,-16,6
-62,-16,7
-62,-16,8
-62,-15,7
-62,-14,6
-63,-14,6
-62,-13,6
-62,-13,6
-63,-12,7
-63,-12,6
-63,-12,7
-63,-10,7
-62,-10,6
-62,-11,7
-62,-9,7
-63,-14,8
-67,-13,7
-63,-14,9
-64,-12,8
-66,-12,8
-68,-10,9
-62,-12,5
-63,-12,3
-67,-12,0
-65,-13,-3
-66,-14,-4
-62,-15,1
-62,-17,-1
-68,-17,-6
-67,-18,-5
-68,-16,3
-67,-15,7
-63,-18,6
-58,-18,8
-58,-15,10
-58,-10,10
-60,-4,6
-62,-1,4
-64,5,4
-61,6,10
-62,6,11
-62,6,14
-56,5,20
-56,4,22
-57,1,23
-58,0,24
-60,-2,24
-64,-2,21
-65,0,20
-66,2,21
-64,3,21
-62,3,17
-62,2,14
-61,-1,13
-59,-3,13
-61,-4,11
-63,-2,11
-62,-1,12
-62,1,12
-65,1,10
-66,-1,9
-66,-2,9
-65,-4,11
-65,-4,11
-64,-4,11
-64,-3,10
-64,-3,9
-64,-3,10
-63,-3,10
-63,-3,10
-62,-4,11
-63,-5,12
-63,-5,13
-64,-6,12
-65,-6,12
-65,-6,11
-63,-7,10
-63,-7,8
-62,-6,7
-61,-5,6
-62,-7,6
-61,-6,7
-62,-4,9
-63,-3,10
-63,-2,11
-64,-1,11
-64,0,11
-64,1,11
-63,2,13
-61,2,13
-60,1,13
-59,0,13
-59,-1,13
-61,-2,12
-63,-2,11
-66,-1,11
-67,-1,12
-66,-1,12
-66,-2,9
-66,-2,9
-65,-2,9
-63,-2,9
-63,-3,8
-61,-2,8
-61,-2,7
-61,-2,7
-62,-3,7
-63,-3,7
-66,-2,5
-69,0,5
-68,1,6
-66,1,6
-64,-1,5
-62,-2,5
-60,-4,4
-60,-4,4
-61,-4,4
-63,-4,4
-67,-2,4
-67,-1,5
-67,0,5
-66,-1,4
-65,-2,4
-64,-3,4
-63,-3,6
-63,-3,6
-63,-4,6
-64,-4,4
-64,-5,3
-64,-4,3
-65,-2,3
-65,-2,2
-65,-1,2
-64,-1,2
-63,-2,2
-63,-2,1
-63,-3,3
-63,-2,3
-63,-2,4
-62,-1,7
-60,0,9
-65,0,7
-67,-2,3
-72,-3,-1
-75,-8,-5
-80,-8,-10
-69,-10,-6
-80,-15,-18
-67,-18,-18
-58,-18,-14
-49,-20,-8
-52,-20,-22
-56,-21,-26
-52,-20,-17
-41,-21,-16
-49,-21,-19
-51,-23,-28
-47,-27,-22
-53,-21,-16
-54,-25,-18
-54,-25,-20
-58,-27,-21
-53,-27,-21
-48,-29,-23
-49,-30,-23
-50,-30,-19
-49,-33,-17
-51,-35,-17
-46,-36,-12
-45,-35,-13
-48,-38,-19
-45,-38,-18
-47,-38,-21
-53,-37,-24
-52,-34,-21
-51,-34,-21
-56,-36,-24
-54,-36,-20
-54,-36,-17
-52,-37,-16
-55,-36,-17
-51,-36,-14
-53,-35,-15
-51,-35,-15
-50,-35,-15
-50,-35,-14
-54,-35,-17
-52,-36,-16
-52,-35,-14
-53,-34,-16
-53,-33,-17
-56,-32,-20
-60,-32,-24
-61,-31,-27
-57,-29,-23
-53,-26,-20
-50,-26,-20
-46,-29,-22
-48,-29,-24
-48,-30,-24
-50,-29,-26
-46,-28,-21
-46,-28,-20
-46,-30,-21
-46,-34,-22
-48,-35,-24
-52,-36,-27
-55,-36,-27
-55,-36,-29
-52,-35,-27
-52,-35,-27
-51,-35,-27
-50,-34,-26
-51,-33,-26
-51,-32,-26
-51,-31,-26
-52,-30,-26
-54,-28,-27
-52,-27,-25
-52,-27,-25
-52,-28,-25
-51,-30,-24
-50,-30,-24
-48,-31,-21
-49,-32,-22
-50,-33,-24
-52,-32,-25
-53,-31,-27
-53,-31,-28
-53,-29,-27
-52,-27,-25
-53,-26,-25
-54,-26,-25
-53,-26,-26
-54,-26,-25
-52,-26,-25
-52,-26,-24
-52,-26,-23
-52,-25,-21
-53,-26,-23
-53,-27,-23
-52,-28,-23
-52,-28,-23
-52,-27,-23
-52,-28,-24
-52,-29,-26
-52,-30,-26
-52,-30,-27
-53,-31,-27
-53,-31,-28
-51,-31,-26
-50,-31,-26
-51,-32,-27
-50,-32,-27
-50,-31,-27
-50,-31,-28
-50,-31,-28
-50,-31,-28
-51,-31,-29
-51,-31,-29
-51,-29,-27
-50,-29,-27
-50,-29,-27
-51,-29,-26
-50,-29,-26
-50,-29,-25
-50,-29,-26
-50,-29,-24
-48,-29,-23
-49,-29,-23
-50,-30,-23
-53,-31,-26
-53,-31,-25
-54,-29,-24
-56,-29,-25
-61,-29,-26
-54,-30,-22
-52,-29,-23
-53,-29,-23
-56,-30,-22
-51,-30,-21
-50,-30,-21
-54,-29,-22
-53,-29,-24
-53,-29,-24
-50,-30,-24
-53,-30,-24
-54,-31,-24
-53,-30,-23
-54,-31,-22
-54,-31,-23
-52,-30,-21
-52,-30,-21
-52,-30,-21
-53,-30,-24
-52,-32,-28
-52,-32,-29
-48,-31,-27
-44,-32,-28
-44,-32,-29
-42,-31,-28
-42,-28,-28
-43,-28,-28
-45,-28,-30
-47,-28,-32
-48,-28,-33
-53,-27,-35
-55,-27,-36
-54,-26,-36
-55,-25,-36
-53,-22,-33
-53,-22,-32
-55,-21,-33
-57,-20,-33
-57,-18,-32
-57,-17,-32
-56,-16,-30
-56,-15,-28
-52,-16,-27
-51,-18,-27
-49,-20,-28
-45,-22,-27
-47,-24,-29
-49,-26,-32
-49,-27,-33
-50,-27,-35
-50,-27,-36
-50,-26,-34
-50,-25,-35
-52,-25,-40
-49,-25,-42
-50,-25,-43
-50,-25,-42
-51,-23,-38
-56,-23,-38
-63,-18,-36
-66,-8,-27
-67,-3,-21
-64,5,-15
-59,6,-14
-59,5,-17
-58,4,-18
-56,3,-16
-57,3,-15
-62,1,-17
-65,0,-19
-66,1,-19
-68,4,-18
-67,6,-16
-67,5,-17
-65,4,-17
-63,2,-15
-62,1,-15
-58,-1,-15
-58,-4,-17
-57,-5,-17
-57,-7,-18
-58,-5,-19
-60,-3,-20
-62,-1,-18
-65,2,-19
-66,3,-17
-65,3,-15
-67,3,-18
-66,3,-17
-63,4,-13
-62,5,-11
-62,5,-12
-61,4,-13
-60,4,-13
-60,5,-12
-62,6,-11
-63,7,-10
-65,9,-10
-66,9,-11
-65,9,-11
-65,9,-11
-64,10,-10
-64,9,-10
-64,7,-10
-63,7,-9
-62,6,-9
-61,4,-9
-62,3,-10
-62,2,-10
-63,1,-12
-64,2,-13
-65,3,-13
-65,3,-13
-64,3,-12
-63,4,-12
-62,4,-12
-62,5,-12
-62,5,-12
-63,6,-12
-63,7,-12
-63,7,-12
-63,7,-11
-63,8,-10
-63,8,-10
-64,8,-10
-63,9,-10
-63,8,-10
-64,8,-11
-63,8,-11
-62,8,-11
-63,7,-11
-63,8,-10
-62,8,-10
-62,8,-10
-62,7,-10
-62,7,-10
-64,7,-11
-64,7,-11
-64,7,-11
-64,7,-11
-64,7,-12
-63,6,-11
-63,6,-12
-62,5,-12
-62,4,-13
-61,4,-13
-61,3,-14
-61,2,-15
-60,2,-17
-60,2,-17
-59,2,-19
-59,3,-21
-60,4,-21
-63,6,-19
-65,7,-20
-66,6,-21
-67,5,-21
-65,5,-21
-64,5,-23
-63,5,-23
-63,5,-24
-62,4,-24
-61,3,-24
-56,1,-24
-56,0,-24
-56,0,-24
-56,0,-23
-56,0,-24
-57,1,-23
-59,2,-23
-60,3,-23
-62,3,-21
-66,3,-22
-66,4,-24
-68,2,-29
-67,2,-16
-65,3,-11
-59,2,-12
-65,2,-12
-66,1,-8
-66,0,-10
-65,-1,-17
-63,-1,-19
-61,-1,-24
-54,-3,-20
-55,-4,-20
-56,-7,-20
-61,-7,-19
-63,-6,-20
-63,-9,-22
-63,-10,-20
-64,-10,-19
-61,-12,-19
-61,-14,-20
-58,-14,-18
-59,-17,-18
-57,-15,-16
-57,-17,-18
-59,-18,-18
-56,-18,-17
-59,-19,-18
-60,-19,-19
-55,-21,-20
-57,-21,-19
-53,-25,-15
-56,-25,-15
-52,-26,-15
-53,-27,-16
-51,-27,-17
-53,-28,-22
-53,-28,-23
-52,-28,-23
-53,-27,-24
-51,-26,-23
-53,-23,-24
-52,-25,-26
-57,-25,-26
-54,-26,-25
-55,-27,-25
-55,-29,-26
-53,-30,-25
-49,-30,-25
-54,-29,-27
-54,-28,-28
-53,-27,-29
-54,-26,-31
-53,-26,-32
-54,-25,-32
-54,-26,-31
-55,-25,-31
-54,-26,-33
-53,-25,-34
-51,-24,-34
-50,-25,-35
-48,-26,-33
-47,-26,-34
-47,-27,-32
-46,-28,-31
-47,-28,-31
-46,-28,-31
-47,-28,-31
-48,-28,-32
-49,-28,-31
-51,-28,-31
-48,-29,-28
-51,-28,-31
-53,-30,-33
-53,-31,-33
-49,-31,-27
-50,-30,-25
-52,-29,-27
-50,-29,-27
-50,-29,-28
-48,-29,-28
-47,-29,-28
-48,-29,-29
-49,-29,-30
-51,-29,-31
-51,-28,-32
-51,-29,-32
-50,-28,-32
-50,-27,-32
-49,-27,-32
-51,-27,-32
-50,-27,-32
-52,-26,-32
-52,-25,-30
-52,-25,-29
-51,-26,-28
-51,-26,-27
-52,-26,-27
-53,-25,-27
-54,-26,-27
-52,-25,-26
-52,-27,-26
-53,-27,-28
-54,-27,-28
-56,-25,-29
-56,-24,-29
-55,-23,-27
-54,-23,-26
-53,-23,-24
-52,-24,-23
-49,-25,-23
-47,-27,-26
-47,-28,-27
-47,-30,-28
-46,-31,-29
-46,-32,-30
-47,-32,-32
-46,-34,-31
-45,-35,-31
-44,-37,-34
-43,-39,-35
-44,-39,-36
-45,-38,-38
-46,-36,-39
-47,-35,-39
-48,-33,-39
-49,-32,-40
-50,-29,-40
-49,-26,-38
-48,-25,-37
-48,-24,-37
-45,-24,-35
-45,-24,-36
-48,-24,-39
-50,-23,-40
-52,-22,-42
-55,-18,-42
-52,-15,-38
-51,-14,-38
-49,-13,-37
-46,-12,-33
-47,-11,-32
-48,-14,-34
-47,-14,-32
-48,-15,-28
-57,-17,-26
-64,-13,-23
-69,-10,-21
-69,-4,-22
-66,-3,-28
-62,-1,-28
-61,7,-25
-61,5,-28
-60,3,-30
-60,0,-29
-62,0,-27
-61,0,-25
-63,0,-24
-61,-2,-25
-60,-3,-26
-57,-5,-28
-56,-7,-30
-57,-7,-32
-56,-6,-33
-57,-6,-33
-56,-7,-33
-54,-7,-33
-53,-7,-31
-53,-8,-31
-54,-9,-31
-55,-9,-31
-56,-9,-31
-57,-8,-32
-57,-8,-32
-56,-8,-32
-56,-9,-33
-55,-10,-33
-55,-10,-32
-55,-11,-32
-54,-12,-33
-54,-12,-33
-53,-12,-33
-54,-12,-34
-55,-11,-35
-55,-9,-34
-55,-9,-33
-54,-9,-32
-56,-9,-33
-58,-8,-33
-61,-7,-32
-61,-7,-32
-60,-7,-31
-59,-7,-30
-56,-6,-27
-52,-7,-26
-51,-8,-26
-51,-11,-28
-52,-11,-30
-52,-12,-30
-53,-14,-30
-54,-15,-31
-57,-15,-32
-57,-15,-33
-58,-14,-33
-57,-14,-33
-58,-13,-33
-59,-13,-34
-58,-10,-34
-59,-8,-34
-57,-7,-33
-57,-5,-32
-55,-4,-30
-53,-5,-29
-53,-8,-27
-53,-13,-28
-54,-15,-29
-56,-15,-32
-60,-12,-36
-61,-9,-37
-63,-5,-35
-63,0,-32
-63,2,-30
-56,3,-26
-52,0,-24
-51,-3,-25
-51,-8,-28
-50,-11,-28
-51,-13,-29
-53,-15,-33
-53,-17,-36
-55,-17,-37
-54,-17,-39
-49,-18,-41
-52,-19,-43
-51,-20,-44
-51,-20,-44
-49,-20,-43
-47,-20,-40
-46,-20,-38
-46,-21,-39
-46,-23,-42
-44,-23,-43
-44,-22,-42
-39,-23,-37
-38,-23,-36
-39,-25,-37
-42,-27,-39
-46,-27,-40
-51,-25,-42
-55,-23,-43
-56,-21,-41
-52,-20,-38
-49,-19,-33
-52,-21,-35
-53,-21,-41
-53,-19,-37
-55,-18,-34
-56,-17,-31
-55,-15,-29
-57,-14,-29
-58,-14,-31
-56,-14,-31
-53,-15,-28
-52,-16,-22
-52,-17,-21
-53,-18,-21
-56,-19,-21
-57,-20,-21
-57,-21,-21
-57,-23,-23
-58,-23,-23
-58,-23,-24
-58,-23,-25
-58,-24,-26
-58,-25,-27
-61,-26,-31
-63,-25,-32
-61,-23,-31
-56,-21,-28
-53,-21,-28
-52,-21,-29
-50,-23,-30
-47,-24,-31
-45,-23,-30
-44,-23,-27
-47,-25,-32
-49,-25,-33
-53,-22,-35
-53,-21,-33
-52,-20,-28
-51,-23,-26
-51,-24,-27
-53,-24,-28
-53,-24,-28
-53,-24,-28
-54,-23,-28
-53,-22,-26
-52,-21,-26
-56,-21,-27
-54,-22,-28
-53,-23,-29
-53,-22,-29
-53,-22,-28
-53,-22,-28
-55,-23,-32
-56,-21,-32
-57,-21,-31
-60,-20,-31
-57,-18,-22
-56,-18,-17
-53,-19,-15
-53,-21,-18
-53,-22,-19
-54,-23,-23
-54,-24,-24
-53,-24,-25
-56,-23,-26
-57,-23,-26
-57,-23,-26
-58,-24,-28
-60,-23,-32
-59,-23,-31
-57,-22,-30
-55,-22,-29
-53,-22,-29
-53,-21,-29
-54,-20,-30
-54,-19,-29
-56,-18,-30
-56,-17,-28
-56,-17,-27
-55,-18,-26
-56,-18,-25
-56,-17,-25
-57,-17,-23
-57,-17,-22
-57,-17,-22
-57,-18,-22
-57,-19,-22
-57,-20,-22
-57,-20,-23
-56,-20,-23
-57,-19,-23
-56,-19,-23
-56,-18,-23
-55,-19,-22
-54,-18,-22
-57,-17,-23
-55,-17,-21
-57,-16,-22
-58,-16,-22
-57,-15,-23
-59,-15,-24
-57,-14,-24
-56,-14,-24
-57,-12,-25
-58,-12,-26
-60,-9,-29
-57,-10,-27
-59,-9,-26
-81,-12,-21
-60,-7,-23
-55,-10,-23
-59,-7,-28
-59,-8,-30
-59,-8,-30
-61,-8,-28
-55,-3,-23
-58,-13,-29
-60,-11,-31
-55,-12,-25
-61,-12,-24
-60,-14,-21
-59,-15,-22
-61,-13,-22
-57,-8,-20
-55,-7,-19
-56,-9,-18
-59,-12,-19
-54,-14,-23
-50,-13,-25
-57,-2,-33
-61,-3,-38
-57,-4,-37
-58,-5,-40
-69,-2,-50
-58,-5,-47
-58,-4,-38
-57,-6,-35
-55,-5,-34
-55,-5,-29
-55,-5,-27
-59,-6,-24
-53,-6,-21
-56,-4,-23
-57,-2,-26
-64,2,-29
-62,2,-31
-61,1,-27
-62,3,-26
-63,6,-26
-56,10,-24
-54,12,-25
-55,15,-25
-53,18,-26
-53,21,-27
-53,20,-27
-57,17,-27
-58,16,-28
-59,18,-28
-55,21,-27
-57,19,-27
-57,18,-27
-54,19,-25
-57,19,-26
-56,18,-25
-58,19,-24
-57,20,-25
-55,18,-24
-55,18,-22
-56,19,-21
-56,20,-21
-57,20,-21
-57,17,-22
-57,17,-22
-57,19,-22
-55,19,-21
-54,18,-22
-59,17,-24
-63,15,-25
-61,13,-25
-61,13,-23
-60,10,-23
-62,10,-26
-58,7,-22
-60,5,-24
-62,5,-25
-62,1,-29
-57,1,-19
-60,3,-17
-60,2,-20
-62,-1,-21
-60,0,-17
-60,-1,-16
-63,-1,-20
-61,0,-18
-62,0,-19
-62,0,-21
-60,1,-20
-62,0,-20
-62,-1,-20
-61,-2,-18
-62,-3,-17
-62,-3,-17
-61,-3,-18
-62,-3,-19
-62,-3,-19
-62,-2,-19
-62,-2,-19
-62,-2,-18
-62,-2,-19
-62,-2,-19
-62,-2,-18
-62,-2,-20
-61,-2,-20
-61,-2,-19
-60,-2,-21
-61,-2,-22
-58,-5,-22
-59,-1,-22
-61,-1,-23
-59,-1,-22
-61,-1,-26
-59,-2,-25
-59,-2,-25
-59,-2,-25
-60,-4,-25
-60,-2,-24
-60,-3,-25
-61,-3,-26
-60,-2,-25
-59,-4,-24
-61,-4,-22
-59,-4,-21
-61,-4,-24
-60,-4,-22
-60,-4,-22
-60,-3,-23
-60,-3,-24
-60,-3,-24
-60,-3,-23
-60,-4,-23
-59,-4,-22
-59,-5,-22
-62,-5,-22
-59,-6,-22
-62,-7,-26
-64,-9,-30
-60,-4,-27
-61,-3,-27
-63,-4,-27
-61,-5,-20
-62,-7,-18
-62,-8,-19
-61,-8,-13
-62,-10,-10
-64,-14,-22
-85,-5,-36
-64,-11,-14
-62,-13,-20
-64,-22,-28
-53,-26,-23
-52,-26,-24
-47,-26,-26
-50,-26,-25
-52,-27,-25
-55,-27,-24
-58,-25,-21
-57,-24,-19
-51,-26,-14
-51,-27,-11
-51,-26,-11
-53,-23,-8
-58,-25,-9
-60,-23,-11
-58,-17,-5
-56,-17,1
-59,-21,0
-58,-27,-7
-55,-29,-7
-58,-29,-8
-54,-25,-3
-52,-26,-2
-54,-26,0
-66,-19,-21
-51,-32,-18
-54,-30,-8
-70,-35,-19
-75,-40,-28
-64,-39,-23
-49,-35,-12
-50,-33,-14
-49,-27,-15
-44,-23,-17
-44,-28,-20
-47,-31,-25
-47,-34,-34
-49,-39,-34
-53,-38,-32
-53,-37,-29
-49,-34,-30
-48,-32,-29
-54,-26,-26
-57,-24,-24
-58,-24,-19
-60,-28,-19
-61,-30,-19
-51,-32,-14
-56,-30,-13
-58,-26,-13
-50,-27,-11
-52,-25,-11
-51,-25,-12
-48,-27,-16
-46,-27,-15
-45,-27,-15
-49,-26,-16
-49,-28,-19
-47,-29,-21
-56,-30,-34
-69,-25,-49
-67,-23,-48
-56,-22,-36
-48,-23,-27
-48,-26,-26
-47,-31,-24
-48,-35,-26
-52,-36,-28
-53,-35,-30
-52,-33,-29
-51,-32,-27
-50,-29,-22
-47,-27,-19
-46,-28,-19
-48,-31,-22
-60,-33,-35
-65,-30,-39
-56,-26,-33
-51,-24,-28
-50,-23,-27
-44,-24,-26
-45,-25,-26
-47,-24,-29
-52,-22,-31
-55,-20,-31
-53,-21,-30
-53,-21,-31
-57,-22,-30
-56,-22,-29
-53,-22,-26
-53,-24,-28
-53,-25,-28
-53,-28,-31
-56,-29,-36
-58,-28,-34
-62,-27,-32
-57,-26,-29
-51,-30,-27
-49,-26,-25
-46,-25,-22
-46,-24,-24
-46,-22,-24
-44,-26,-24
-44,-31,-28
-45,-35,-34
-47,-36,-36
-48,-37,-36
-53,-35,-34
-53,-33,-34
-54,-30,-33
-50,-27,-32
-49,-26,-30
-48,-25,-29
-45,-24,-28
-47,-24,-29
-53,-20,-36
-60,-13,-44
-54,-14,-32
-42,-23,-18
-45,-24,-27
-37,-29,-28
-38,-30,-40
-64,-30,-55
-55,-34,-44
-41,-25,-35
-50,-23,-47
-47,-21,-49
-36,-16,-43
-47,-17,-42
-50,-18,-40
-51,-18,-36
-52,-18,-40
-51,-19,-42
-46,-21,-41
-46,-23,-40
-48,-22,-40
-48,-21,-35
-49,-20,-34
-49,-18,-33
-49,-19,-34
-53,-18,-35
-56,-18,-36
-54,-18,-36
-51,-18,-33
-50,-17,-33
-48,-15,-34
-48,-14,-35
-45,-17,-33
-57,-18,-31
-53,-15,-35
-61,-17,-39
-49,-14,-33
-50,-13,-35
-54,-10,-43
-54,-8,-42
-53,-6,-43
-51,-11,-40
-49,-14,-35
-55,-11,-34
-54,-14,-32
-54,-14,-36
-52,-15,-37
-49,-13,-35
-46,-16,-35
-53,-18,-38
-51,-20,-39
-50,-21,-39
-48,-22,-40
-44,-22,-35
-51,-19,-32
-55,-19,-35
-53,-13,-39
-53,-6,-42
-51,-10,-39
-54,-3,-39
-58,-3,-46
-53,-1,-44
-44,-4,-37
-50,-10,-40
-50,-14,-40
-50,-17,-39
-51,-20,-40
-50,-22,-40
-48,-25,-39
-52,-29,-40
-54,-29,-41
-47,-29,-38
-48,-30,-36
-51,-30,-34
-48,-26,-31
-41,-27,-24
-44,-27,-24
-44,-28,-23
-49,-27,-27
-50,-27,-28
-54,-27,-31
-59,-27,-37
-57,-26,-38
-56,-24,-38
-55,-22,-34
-52,-20,-24
-49,-17,-17
-48,-17,-18
-48,-19,-24
-46,-22,-33
-48,-24,-35
-47,-27,-35
-43,-28,-26
-44,-28,-23
-45,-28,-28
-40,-32,-34
-38,-35,-37
-40,-39,-42
-43,-40,-43
-46,-39,-44
-53,-35,-44
-54,-32,-38
-54,-31,-38
-52,-30,-38
-56,-29,-47
-61,-24,-53
-59,-15,-50
-47,-11,-38
-45,-10,-35
-41,-11,-33
-36,-13,-30
-37,-15,-31
-41,-19,-39
-47,-21,-48
-49,-21,-49
-47,-23,-44
-44,-24,-36
-45,-24,-37
-46,-26,-37
-50,-26,-37
-53,-26,-38
-54,-25,-36
-55,-23,-35
-53,-23,-34
-47,-23,-30
-44,-24,-27
-45,-24,-27
-47,-25,-27
-49,-27,-28
-49,-27,-29
-49,-30,-32
-49,-32,-36
-50,-33,-37
-58,-29,-40
-59,-28,-39
-57,-23,-33
-56,-17,-27
-52,-12,-23
-50,-10,-23
-50,-9,-25
-50,-11,-29
-55,-13,-36
-54,-17,-32
-54,-18,-28
-54,-19,-23
-53,-22,-24
-53,-24,-25
-54,-26,-30
-54,-28,-33
-56,-28,-33
-54,-25,-30
-51,-24,-23
-51,-24,-22
-53,-25,-24
-56,-26,-28
-56,-26,-30
-53,-28,-29
-54,-31,-32
-58,-29,-38
-65,-24,-43
-60,-18,-37
-59,-16,-35
-50,-14,-31
-44,-16,-28
-44,-17,-29
-45,-20,-31
-46,-21,-33
-47,-21,-34
-47,-22,-34
-47,-24,-35
-48,-25,-36
-51,-27,-40
-52,-26,-39
-52,-25,-37
-52,-24,-34
-48,-23,-29
-47,-24,-27
-45,-24,-25
-45,-26,-26
-46,-28,-27
-49,-29,-29
-52,-30,-30
-53,-31,-29
-53,-30,-28
-53,-30,-26
-53,-31,-27
-52,-30,-28
-52,-30,-29
-54,-31,-33
-64,-28,-43
-63,-25,-41
-61,-21,-37
-59,-14,-29
-56,-10,-25
-51,-6,-20
-51,-5,-20
-50,-5,-22
-50,-6,-24
-51,-10,-24
-52,-12,-23
-58,-17,-25
-58,-20,-23
-56,-22,-22
-56,-26,-24
-59,-29,-28
-61,-29,-29
-62,-25,-29
-61,-21,-27
-58,-20,-24
-52,-20,-19
-49,-21,-18
-50,-21,-18
-53,-23,-20
-55,-24,-22
-57,-23,-22
-60,-21,-22
-61,-20,-22
-63,-21,-23
-64,-19,-26
-65,-18,-28
-66,-18,-30
-64,-14,-33
-58,-11,-29
-55,-12,-27
-50,-15,-25
-48,-18,-27
-48,-18,-29
-51,-19,-33
-58,-19,-40
-62,-19,-41
-59,-18,-32
-59,-16,-24
-55,-16,-21
-51,-19,-18
-50,-23,-17
-53,-25,-18
-53,-31,-16
-52,-31,-13
-49,-32,-12
-46,-34,-12
-49,-35,-14
-51,-35,-16
-52,-37,-22
-51,-38,-26
-50,-38,-26
-48,-37,-28
-49,-38,-30
-55,-36,-35
-57,-34,-36
-54,-32,-34
-50,-27,-29
-46,-22,-24
-45,-21,-23
-48,-19,-24
-52,-18,-25
-56,-18,-28
-62,-20,-32
-52,-28,-21
-46,-29,-18
-46,-33,-17
-39,-33,-16
-38,-33,-17
-43,-30,-27
-78,-38,-38
-31,-31,-23
-58,-23,-33
-42,-23,-35
-44,-24,-39
-49,-23,-40
-54,-26,-37
-54,-26,-36
-50,-28,-34
-49,-30,-30
-48,-31,-27
-48,-27,-27
-50,-27,-29
-47,-27,-28
-54,-27,-32
-52,-26,-34
-51,-24,-35
-46,-28,-35
-49,-21,-35
-51,-22,-38
-55,-17,-36
-54,-19,-36
-55,-17,-37
-54,-18,-35
-53,-19,-33
-54,-20,-30
-52,-23,-23
-56,-24,-21
-54,-23,-21
-55,-24,-21
-54,-24,-21
-56,-23,-20
-55,-25,-20
-55,-26,-20
-55,-25,-20
-57,-25,-20
-57,-24,-20
-57,-25,-20
-55,-25,-20
-56,-26,-20
-56,-29,-19
-55,-28,-17
-56,-28,-15
-54,-29,-14
-54,-32,-12
-50,-31,-13
-59,-34,-18
-80,-28,-16
-79,-34,-8
-73,-30,-3
-63,-34,-5
-59,-33,-1
-47,-29,14
-45,-27,21
-46,-25,22
-52,-29,31
-50,-19,36
-42,-19,40
-23,-9,51
-20,-5,54
-14,-4,53
-12,-9,50
2,-3,53
9,-2,52
15,-1,54
17,-5,56
14,-6,55
18,-7,58
20,-9,57
22,-10,56
21,-10,58
17,-10,60
14,-9,60
4,-9,55
-1,-17,58
-5,-16,57
-18,-19,50
-28,-21,43
-34,-23,41
-39,-23,33
-44,-25,20
-52,-30,16
-54,-35,9
-60,-35,1
-76,-33,-9
-120,-26,-25
-40,-33,-6
-42,-30,-10
-63,-27,-21
-50,-27,-15
-61,-17,-12
-66,-17,-7
-61,-16,-5
-59,-15,-6
-64,-18,-7
-62,-21,-7
-62,-20,-9
-61,-25,-8
-60,-25,-9
-60,-24,-11
-61,-23,-16
-63,-22,-18
-58,-27,-22
-57,-23,-20
-56,-24,-21
-60,-29,-31
-50,-32,-30
-45,-33,-29
-54,-35,-36
-50,-36,-37
-45,-34,-33
-45,-29,-33
-42,-30,-32
-40,-29,-31
-42,-29,-33
-41,-29,-33
-40,-28,-32
-42,-28,-30
-45,-31,-31
-43,-32,-32
-42,-34,-30
-44,-36,-26
-44,-38,-25
-42,-40,-26
-45,-39,-26
-46,-39,-25
-46,-39,-25
-45,-37,-22
-45,-37,-22
-45,-36,-22
-42,-35,-18
-43,-35,-18
-41,-32,-22
-39,-30,-29
-56,-25,-63
-56,-20,-34
-42,-33,-23
-45,-31,-30
-52,-36,-38
-50,-36,-34
-45,-38,-39
-48,-33,-43
-45,-28,-39
-45,-24,-37
-51,-26,-39
-52,-26,-40
-49,-25,-40
-50,-22,-38
-49,-21,-37
-52,-18,-37
-58,-21,-34
-56,-23,-32
-45,-27,-24
-49,-29,-27
-49,-27,-26
-50,-22,-24
-57,-22,-28
-56,-21,-30
-55,-22,-34
-52,-23,-34
-53,-24,-33
-53,-22,-31
-52,-21,-29
-52,-21,-30
-53,-22,-31
-52,-24,-31
-52,-24,-30
-53,-23,-30
-53,-22,-30
-53,-22,-29
-55,-24,-27
-55,-23,-22
-56,-22,-22
-53,-21,-20
-52,-20,-19
-55,-19,-22
-55,-20,-26
-55,-22,-30
-53,-22,-31
-51,-21,-32
-53,-20,-32
-53,-20,-33
-57,-18,-33
-58,-19,-33
-57,-20,-32
-52,-20,-30
-51,-20,-29
-52,-21,-28
-54,-20,-29
-53,-19,-30
-54,-18,-31
-54,-17,-30
-54,-16,-31
-54,-16,-33
-54,-16,-32
-55,-16,-32
-56,-16,-31
-57,-15,-30
-57,-15,-30
-55,-15,-28
-55,-15,-26
-53,-16,-26
-51,-19,-24
-53,-17,-29
-50,-19,-29
-51,-19,-33
-58,-14,-38
-55,-18,-37
-56,-14,-43
-50,-18,-39
-46,-20,-36
-48,-19,-36
-47,-18,-37
-52,-21,-39
-48,-13,-44
-41,-24,-40
-43,-25,-39
-42,-31,-37
-47,-15,-38
-50,-22,-40
-49,-20,-41
-46,-19,-41
-46,-21,-41
-46,-20,-41
-49,-16,-39
-51,-17,-38
-50,-19,-39
-47,-20,-40
-48,-19,-41
-50,-19,-40
-50,-17,-36
-51,-20,-37
-48,-20,-35
-50,-17,-34
-52,-18,-34
-51,-19,-33
-53,-18,-33
-53,-18,-33
-52,-18,-33
-52,-18,-31
-51,-16,-33
-49,-21,-30
-52,-19,-30
-52,-16,-32
-53,-19,-38
-51,-17,-40
-51,-16,-41
-50,-18,-39
-49,-17,-38
-49,-15,-35
-51,-15,-35
-54,-15,-36
-54,-16,-35
-55,-14,-37
-55,-13,-34
-52,-13,-31
-55,-9,-32
-55,-11,-33
-56,-9,-34
-57,-11,-34
-57,-13,-34
-55,-14,-33
-55,-15,-32
-54,-14,-32
-54,-12,-33
-54,-12,-33
-55,-14,-31
-53,-16,-25
-54,-17,-24
-52,-18,-24
-51,-22,-26
-55,-18,-33
-59,-16,-35
-60,-13,-36
-53,-13,-34
-49,-16,-34
-57,-17,-44
-63,-20,-47
-63,-20,-47
-48,-18,-26
-53,-23,-24
-52,-27,-23
-46,-29,-16
-43,-32,-11
-51,-33,-16
-53,-34,-15
-52,-33,-4
-50,-31,-1
-52,-35,-6
-46,-35,-8
-48,-34,-11
-55,-36,-17
-53,-35,-12
-53,-33,-7
-54,-29,-12
-60,-25,-6
-63,-22,-7
-58,-22,-15
-60,-21,-21
-59,-24,-22
-51,-28,-30
-55,-31,-35
-45,-34,-40
-36,-35,-31
-47,-28,-29
-53,-24,-32
-57,-28,-34
-52,-26,-32
-43,-28,-28
-48,-32,-29
-49,-32,-30
-46,-32,-30
-48,-31,-28
-48,-30,-24
-50,-29,-20
-54,-31,-22
-54,-31,-23
-54,-30,-25
-54,-30,-26
-55,-32,-28
-56,-30,-35
-56,-27,-33
-54,-25,-30
-51,-25,-27
-47,-27,-27
-45,-28,-26
-45,-31,-28
-46,-31,-34
-45,-30,-37
-45,-27,-35
-46,-28,-36
-47,-28,-36
-46,-30,-37
-48,-32,-35
-49,-32,-34
-49,-34,-32
-48,-33,-30
-47,-34,-30
-45,-35,-30
-45,-35,-28
-45,-35,-27
-44,-37,-26
-44,-39,-25
-43,-38,-24
-42,-37,-23
-45,-38,-22
-46,-38,-23
-48,-39,-22
-48,-36,-30
-47,-37,-34
-47,-36,-32
-45,-33,-29
-43,-30,-29
-53,-31,-35
-60,-31,-37
-47,-29,-36
-52,-26,-21
-65,-27,-22
-54,-30,-16
-51,-26,0
-56,-29,-3
-50,-19,15
-51,-30,-3
-49,-21,10
-63,-29,-2
-61,-19,22
-56,-20,22
-77,-22,5
-60,-30,9
-68,-33,-11
-93,-50,-24
-77,-38,-24
-67,-33,-19
-38,-21,18
-52,-17,17
-43,-24,11
-31,-26,19
-38,-28,22
-36,-25,28
-38,-23,41
-20,-14,51
-6,-10,57
8,-8,62
11,-9,58
12,-6,63
9,-3,64
13,-3,68
8,-2,68
5,1,66
4,0,57
3,-1,58
16,1,66
11,4,60
15,6,69
7,11,69
21,8,74
11,5,67
2,2,62
-2,7,60
4,4,63
1,9,65
-7,5,67
-8,9,67
-6,9,65
-4,9,63
5,4,62
9,5,63
10,2,59
8,3,58
14,3,61
23,6,70
13,6,63
20,8,64
23,9,64
18,8,60
22,4,60
24,1,60
23,-1,60
24,-2,56
26,-6,57
25,0,61
15,4,50
17,2,44
28,0,43
21,13,40
7,1,44
1,12,58
6,3,69
5,4,74
13,1,73
22,3,76
20,3,70
14,-1,56
30,-1,56
31,-8,57
17,-2,54
11,-6,60
24,-6,67
17,14,63
16,0,56
14,-2,55
16,0,58
13,-7,57
7,-9,57
10,-9,61
13,-6,69
13,-2,70
12,-3,67
12,-3,61
11,-5,60
6,-4,60
3,-2,60
1,-2,60
3,1,63
4,4,64
6,9,64
9,6,63
9,4,60
5,-4,55
2,-15,55
2,-17,55
1,-18,55
-2,-18,59
-3,-15,63
-4,-8,68
2,-5,69
5,-4,70
0,-10,62
-2,-11,63
-1,-13,66
-4,-15,69
-10,-16,72
-14,-17,71
-14,-15,67
-12,-13,60
-13,-10,56
-7,-9,50
-8,-17,45
-10,-20,45
-14,-25,48
-32,-18,63
-29,-17,68
-15,-9,70
-17,-12,62
-16,-15,57
-11,-20,51
-9,-21,52
-11,-21,52
-9,-21,59
-7,-22,60
-7,-23,59
-12,-23,56
-5,-23,58
-2,-23,59
-6,-23,58
-5,-22,59
-4,-23,62
-2,-21,66
-8,-14,67
-10,-11,66
-8,-4,62
-14,-4,52
-17,-7,51
-15,-10,56
-18,-9,60
-18,-6,66
-12,-5,67
-9,-7,63
-11,-11,57
-11,-13,55
-6,-14,60
-8,-12,62
-9,-9,66
-9,-9,66
-9,-9,64
-22,-12,58
-26,-17,56
-24,-18,58
-26,-22,58
-30,-25,56
-41,-24,54
-42,-23,53
-26,-18,50
-24,-18,48
-36,-23,42
-40,-26,44
-45,-19,54
-27,-13,63
-22,-9,63
-27,-8,57
-20,-12,52
-14,-14,50
-21,-21,46
-25,-23,49
-21,-23,51
-13,-25,56
-25,-28,53
-26,-32,52
-30,-33,53
-35,-28,58
-33,-27,64
-30,-14,70
-24,1,59
-18,4,53
-24,-4,42
-29,-7,37
-27,-12,37
-27,-17,45
-34,-15,51
-35,-13,51
-29,-13,53
-25,-17,55
-25,-19,55
-27,-19,58
-29,-22,61
-30,-24,63
-40,-23,67
-51,-21,75
-41,-24,96
-83,-6,46
-42,6,45
-19,-11,45
-39,-20,34
-75,-24,14
-65,-21,22
-30,-14,44
-23,-12,52
-19,-7,54
-12,-11,42
-10,-12,41
-28,-18,39
-28,-24,42
-28,-25,45
-25,-24,51
-23,-20,55
-22,-19,61
-27,-13,71
-29,2,58
-22,1,60
-26,0,60
-31,-4,54
-35,-6,52
-36,-8,53
-27,-8,51
-26,-10,48
-42,-15,42
-54,-21,51
-50,-27,52
-55,-27,51
-48,-32,53
-46,-34,53
-46,-40,53
-51,-42,51
-67,-29,50
-44,-15,42
-31,-24,34
-33,-26,30
-33,-27,32
-48,-24,35
-45,-23,38
-33,-11,43
-28,-9,43
-27,-10,45
-16,-16,50
-10,-20,52
-8,-21,54
-20,-22,58
-19,-13,61
-13,-12,65
-35,-2,63
-36,8,61
-24,7,73
-14,16,75
-34,10,51
-37,0,54
-35,-9,56
-29,-8,48
-36,-12,42
-48,-24,35
-50,-30,34
-48,-37,39
-43,-33,64
-44,-34,64
-44,-30,58
-45,-46,50
-53,-47,43
-54,-29,42
-48,-38,33
-60,-35,33
-54,-28,39
-41,-21,34
-38,-16,28
-30,-4,19
-14,1,7
-12,4,13
-44,17,45
-66,0,78
-67,-6,86
-47,-21,89
-43,-26,52
-49,-20,38
-48,-23,34
-36,-13,30
-28,-17,38
-29,0,58
-36,0,64
-32,-3,54
-17,-5,53
-28,-8,46
-37,-13,36
-44,-30,35
-50,-37,47
-56,-33,53
-51,-32,55
-42,-27,55
-39,-27,53
-41,-38,44
-63,-28,50
-55,-24,47
-36,-36,42
-39,-30,34
-44,-28,31
-53,-21,29
-46,-12,31
-37,-9,31
-28,-9,35
-28,-17,41
-29,-20,44
-23,-18,48
-11,-24,51
-15,-29,54
-41,-33,54
-44,-37,56
-83,-23,52
-80,-24,58
-57,-26,65
-38,-16,56
-32,-18,39
-29,-22,36
-22,-24,33
-22,-38,25
-28,-45,22
-30,-50,24
-29,-52,30
-27,-52,34
-25,-53,38
-14,-57,37
-12,-67,28
-24,-50,8
-35,-69,-2
-34,-66,0
-20,-51,18
-35,-53,12
-49,-36,18
-49,-34,44
-87,-13,49
-99,0,43
-34,-1,60
5,7,66
28,3,71
30,-2,64
30,-2,63
36,6,63
51,6,70
42,16,58
35,13,53
23,20,52
20,19,43
21,12,38
13,1,31
15,5,38
21,7,43
41,-6,55
50,-6,67
50,-7,73
51,-11,76
46,-13,67
40,-3,60
36,-43,49
17,-27,45
22,-23,46
28,-11,38
28,-3,33
26,-1,33
10,6,37
-4,8,42
1,6,55
20,-3,60
16,-9,62
16,-11,74
-2,-4,68
-1,-6,73
9,-4,81
8,-2,87
-6,5,80
-28,17,69
5,1,59
5,8,53
-24,-2,38
-23,-21,52
-23,-29,55
-33,-32,60
-32,-46,63
-26,-53,64
-36,-51,57
-32,-59,48
-34,-43,44
-30,-57,39
-49,-52,37
-47,-40,42
-29,-25,43
-24,-13,40
-29,-8,40
-17,-6,43
-11,-23,46
-24,-23,48
-23,-18,58
-2,-10,68
5,-5,72
-9,-2,78
-23,15,74
-19,11,76
-13,11,72
-29,-2,58
-34,-6,51
-24,-12,44
-27,-19,38
-25,-26,42
-39,-40,45
-40,-44,55
-39,-44,55
-33,-47,58
-40,-48,54
-43,-52,51
-50,-55,42
-52,-52,41
-47,-60,43
-28,-38,45
-15,-31,39
-20,-23,35
-50,-11,25
-50,-5,23
-24,4,34
-29,5,48
-16,2,55
-2,-6,57
-6,-4,62
-6,-10,73
-22,-8,91
-19,2,81
-3,-7,81
11,8,84
-3,11,68
-15,13,55
-21,2,35
-19,-13,31
-25,-20,30
-45,-44,35
-57,-57,41
-61,-56,47
-63,-49,57
-67,-36,70
-48,-34,75
-25,-12,53
-39,-55,45
-49,-55,54
-53,-58,59
-26,-55,63
-31,-41,60
-25,-14,27
-5,6,4
-4,18,-4
-56,51,2
-52,55,25
-45,45,33
-28,43,40
-13,-14,64
-70,-61,64
-128,-45,70
-86,-50,88
-50,-46,74
-34,-48,28
-39,-43,-22
-23,-41,-35
10,-40,-45
27,-35,-29
27,-36,-8
-50,-97,52
-128,-73,15
-128,-69,35
-51,-43,55
-22,-22,41
-31,-25,4
-57,15,11
-45,46,36
-19,49,21
-22,38,19
-11,43,42
-42,29,68
-92,-51,98
-128,-43,70
-90,-43,80
-45,-42,50
-45,-37,31
-39,-56,-3
0,-43,0
5,-26,1
-23,-21,-13
-32,-51,-31
-27,-65,-23
-53,-88,29
-128,-85,5
-128,-81,21
-95,-44,51
-44,-19,42
-48,-3,28
-44,34,25
-17,60,41
-14,65,41
4,47,45
-39,41,55
-54,19,67
-95,0,60
-92,-13,71
-100,-36,57
-79,-52,40
-56,-47,26
-39,-53,16
-21,-60,-10
-17,-52,-16
-15,-58,-20
-20,-61,-15
-51,-82,28
-116,-80,33
-128,-51,35
-81,-15,70
-60,1,77
-57,19,60
-19,26,45
-15,30,37
2,32,36
-2,30,59
-51,51,21
13,27,80
4,-20,75
-109,-80,6
-79,-62,55
-65,-76,58
-52,-65,54
-35,-62,26
-28,-58,14
-17,-45,-1
-8,-35,-10
-6,-35,-13
-11,-48,-23
-21,-83,-9
-45,-101,3
-128,-88,14
-111,-67,48
-97,-42,54
-67,-14,50
-33,13,43
-24,24,44
-25,40,45
-8,40,45
-62,42,67
-11,-12,65
-11,-7,75
-45,-31,69
-113,-75,82
-68,-77,73
-48,-56,70
-37,-50,18
-32,-46,-25
-19,-36,-30
14,-23,-22
2,-37,-9
-16,-45,-1
-99,-94,36
-115,-65,49
-74,-69,61
-72,-58,59
-43,-34,44
-24,-23,43
-25,0,51
-38,20,43
-28,25,41
-1,30,46
2,39,52
-21,28,50
-83,-17,69
-95,-22,94
-73,-44,103
-54,-64,90
-59,-56,71
-52,-58,31
-32,-63,-5
-8,-50,-22
-2,-48,-29
9,-46,-24
0,-47,-23
-43,-83,0
-128,-97,17
-128,-94,35
-126,-48,52
-59,-18,70
-47,10,70
-45,36,48
-14,30,40
-8,36,42
-1,39,47
-16,30,47
-19,11,61
-64,-18,97
-74,-20,118
-62,-38,116
-48,-58,93
-57,-60,53
-44,-64,34
-16,-55,-2
-6,-41,-35
2,-44,-43
16,-47,-26
-4,-83,15
-79,-108,31
-128,-73,42
-95,-65,90
-105,-59,80
-82,-30,59
-25,13,48
-7,31,49
-13,48,47
-21,43,43
-18,40,45
-13,34,41
-12,-8,41
-43,-25,52
-128,-18,67
-77,-40,109
-51,-42,111
-76,-35,57
-78,-62,3
-61,-73,-9
-19,-70,-16
13,-68,-36
24,-66,-38
24,-63,-10
-88,-100,16
-128,-111,-8
-128,-54,61
-59,-21,91
-40,-26,77
-37,6,40
-38,23,33
-15,34,39
-1,34,28
-12,35,18
-40,36,31
-25,5,77
-57,-10,87
-128,-10,87
-102,-57,79
-76,-61,51
-85,-61,23
-49,-84,-4
-30,-83,-13
7,-60,-24
37,-64,-40
36,-67,-34
-5,-65,-6
-128,-106,24
-128,-59,66
-67,-16,127
-54,-31,64
-52,-22,34
-14,7,47
18,21,56
24,28,46
-27,50,9
-35,45,-1
-28,42,15
-19,17,82
-81,-51,85
-97,-46,84
-78,-103,75
-32,-81,60
-20,-80,44
-6,-71,20
11,-39,29
14,-23,30
-34,-13,33
-31,-9,34
-3,-27,54
15,-11,86
-4,-16,79
13,-6,82
52,8,91
24,24,73
29,23,66
11,26,48
-21,25,26
-19,19,22
-24,16,15
-10,-16,41
-21,-25,59
-46,-33,89
-35,-34,114
1,-18,120
-8,-16,70
-24,-29,39
-10,-53,12
18,-59,7
17,-55,3
-7,-53,7
-37,-61,21
-60,-79,50
-97,-51,83
-53,-46,80
-47,-40,75
-72,-31,59
-28,-12,38
-16,-1,33
-17,17,34
-5,32,37
0,32,43
-11,29,50
-12,6,56
-39,-16,68
-127,-27,90
-66,-27,107
-47,-34,93
-56,-40,47
-30,-47,24
-15,-51,18
-3,-46,4
-4,-45,-12
-7,-52,-18
-4,-53,-9
-54,-84,44
-128,-69,61
-115,-57,84
-58,-26,100
-53,-40,75
-59,-23,27
-2,-1,33
30,8,42
30,16,26
-2,32,37
-22,38,56
-31,37,75
-45,22,66
-37,13,83
-66,35,87
-25,9,90
-16,2,85
-21,-13,58
-18,-56,34
-14,-68,21
4,-63,4
8,-63,4
-14,-56,7
-29,-65,50
-75,-36,66
-74,-29,87
-23,-12,100
-24,-14,94
-30,-8,63
-20,2,51
-21,8,45
-26,26,37
-18,39,35
-17,47,34
-12,27,37
-46,-10,45
-89,3,46
-81,-28,76
-87,-28,70
-72,-34,65
-63,-32,43
-49,-40,34
-44,-39,28
-25,-36,21
-24,-63,-4
-35,-68,-19
-27,-82,-10
-83,-66,14
-128,-77,20
-128,-61,48
-91,-43,58
-79,-40,45
-66,-6,12
-35,32,4
-29,42,2
-23,55,-1
-15,51,23
-16,50,40
-22,19,60
-80,-6,63
-102,-2,76
-128,-30,76
-103,-25,61
-79,-22,55
-76,-29,22
-34,-38,2
-12,-31,4
-6,-15,5
-28,-32,2
-50,-54,-5
-84,-99,14
-119,-68,22
-109,-74,32
-109,-65,56
-118,-52,58
-83,-28,54
-45,20,38
-34,35,26
-19,52,10
-18,52,4
-21,40,4
-27,32,20
-38,1,44
-65,-19,67
-128,-15,71
-90,-30,90
-65,-44,78
-84,-45,22
-41,-53,2
-25,-56,-8
-6,-61,-13
1,-47,-6
-9,-53,-15
-43,-69,-21
-101,-88,32
-128,-86,30
-124,-58,52
-67,-21,69
-56,-17,65
-31,6,49
2,27,35
5,27,26
-9,51,34
7,51,42
-3,41,40
-21,15,53
-25,-13,78
-18,-18,86
38,-8,101
38,-17,81
48,-15,78
30,6,50
16,-13,38
25,-20,34
32,-10,25
0,-3,30
25,-11,46
54,-8,86
33,23,78
10,16,72
59,-17,80
51,-3,64
44,9,61
27,3,42
16,44,29
-28,49,28
6,0,9
20,19,1
42,22,36
42,28,77
13,46,75
22,47,92
71,-6,115
66,7,102
25,-9,62
29,-16,52
17,-27,39
15,-10,28
-5,-14,19
-8,-12,20
22,-16,40
39,-41,60
13,-8,64
-45,-45,67
-39,-72,84
-58,-62,72
-67,-31,37
-27,-6,36
-27,11,31
-32,36,29
-33,49,21
-23,57,27
-33,44,43
-93,17,40
-118,10,46
-128,-20,35
-128,-66,29
-126,-63,27
-83,-47,16
-39,-65,7
-28,-68,-6
-12,-76,-33
1,-68,-28
1,-57,-22
-35,-76,-13
-128,-97,-29
-128,-87,-18
-110,-76,22
-56,-42,40
-46,-20,40
-68,42,37
-67,80,45
-45,76,54
2,59,50
-34,50,42
-57,46,34
-52,7,25
-120,-33,13
-128,-33,28
-128,-53,40
-86,-59,43
-65,-58,35
-40,-58,6
-38,-61,-16
-30,-59,-21
-12,-64,-16
1,-52,-12
6,-46,-2
-76,-87,4
-128,-107,-16
-128,-57,0
-118,-15,56
-74,4,58
-28,7,34
-45,9,-2
-48,25,-10
-28,49,0
-8,51,13
0,43,14
-7,28,24
-26,-16,48
-83,-46,64
-128,-25,65
-80,-37,102
-37,-45,74
-42,-29,24
-30,-47,5
-14,-47,0
14,-54,-27
8,-63,-55
11,-52,-37
-41,-60,1
-128,-62,-8
-128,-44,32
-128,-50,68
-96,6,54
-56,19,47
-11,17,24
-2,21,12
-11,29,14
-41,52,16
-29,54,15
-3,42,26
14,24,44
-72,-3,35
-128,-29,25
-128,-29,54
-65,-55,56
-63,-49,33
-79,-47,-8
-10,-55,-12
13,-50,-17
18,-36,-37
16,-48,-30
17,-55,-25
-8,-89,-20
-104,-113,-15
-128,-75,14
-128,-23,77
-91,-14,55
-56,-10,12
-38,35,7
-27,51,7
-8,52,17
-22,48,7
-28,48,18
-5,33,46
-22,12,51
-82,3,44
-128,-6,54
-105,-30,100
-65,-31,85
-95,-47,18
-41,-58,-2
-20,-56,-7
1,-62,-12
32,-62,-33
29,-67,-48
-4,-56,-39
-103,-82,-6
-128,-128,-24
-128,-49,58
-70,28,85
-37,20,58
-43,-21,14
-53,31,21
-61,49,30
-43,53,31
4,39,32
6,36,30
-25,18,29
-73,-66,13
-128,-91,1
-128,-54,21
-58,-61,59
-34,-56,55
-52,-52,8
-23,-69,-19
0,-56,-18
16,-31,-19
20,-57,-32
14,-60,-26
-66,-74,-23
-128,-91,-32
-128,-63,0
-100,-70,33
-113,-54,21
-91,-27,14
-40,5,27
-23,32,13
-21,44,10
-22,55,10
-30,59,12
-34,60,20
-49,30,36
-89,9,33
-128,-4,28
-128,-23,48
-118,-28,46
-91,-33,18
-69,-39,1
-50,-39,-5
-19,-34,-5
-11,-59,-22
-33,-68,-37
-14,-68,-38
-38,-71,2
-95,-94,9
-128,-84,-19
-128,-20,45
-97,-10,57
-35,2,39
-31,38,22
-34,42,16
-54,45,2
-33,49,1
-26,38,14
-18,22,39
-45,-23,40
-85,-38,34
-128,-45,43
-108,-63,53
-88,-59,51
-71,-50,29
-48,-55,5
-36,-58,-1
-19,-40,-6
-6,-41,-19
-5,-47,-19
-4,-50,-5
-56,-108,1
-112,-115,-11
-128,-101,7
-74,-77,37
-91,-62,42
-105,-11,16
-26,39,36
-1,43,40
4,35,24
-6,39,15
-51,58,9
-36,52,20
-34,19,51
-63,3,51
-128,5,35
-128,-14,35
-128,-30,35
-128,-43,23
-103,-47,20
-47,-50,10
-14,-43,-1
-10,-47,-7
-12,-86,-21
-26,-67,-26
-25,-76,-23
-108,-101,-23
-128,-79,-49
-128,-41,9
-128,-16,30
-85,34,10
-40,59,20
-3,60,26
-9,49,17
-14,50,8
-23,42,6
-41,30,17
-42,17,25
-84,-9,33
-128,-16,51
-128,-28,61
-119,-36,56
-91,-31,24
-78,-40,7
-54,-54,-20
-28,-63,-30
-21,-78,-29
-8,-66,-23
3,-66,-20
-34,-64,-20
-128,-105,-44
-128,-38,22
-128,-15,40
-101,-16,23
-46,4,12
-33,34,20
-29,40,24
-16,42,11
-5,43,7
0,31,-4
-12,23,16
-9,14,30
-74,-30,45
-128,-28,42
-128,-16,96
-78,-38,77
-80,-39,12
-68,-40,-1
-26,-48,-10
-3,-41,-1
12,-20,7
7,-44,-37
1,-64,-57
-19,-93,-41
-128,-99,-79
-128,-58,-12
-128,-32,18
-128,-29,-12
-128,7,-11
-62,69,14
-8,69,26
1,55,12
6,41,-6
-9,42,-8
-24,35,-3
-35,9,21
-82,-39,14
-128,-44,11
-128,-35,47
-128,-58,14
-106,-51,12
-24,-52,4
8,-40,-20
8,-32,-26
2,-33,-27
13,-54,-32
13,-63,-34
3,-70,-22
-128,-121,-54
-128,-98,-30
-128,-35,42
-99,-1,17
-63,22,13
-11,47,7
0,54,10
2,52,7
-4,49,-2
-29,52,9
-30,48,24
-18,20,37
-128,-10,11
-128,3,5
-128,-11,53
-44,-23,65
-51,-24,43
-77,-45,-5
-39,-50,-17
-14,-48,-16
8,-50,-16
13,-61,-24
18,-71,-27
-26,-93,-19
-128,-96,-42
-128,-23,22
-58,55,75
-19,42,50
-39,-17,-8
-32,31,-13
-30,37,-7
-26,47,-2
-35,53,-8
-32,49,-1
-14,45,38
-39,4,41
-116,-25,20
-128,-34,34
-99,-32,66
-79,-37,45
-79,-51,2
-8,-61,-15
19,-54,-18
20,-26,-29
19,-37,-29
19,-44,-24
-9,-65,-13
-128,-126,-17
-128,-96,-3
-128,-18,69
-85,-28,17
-73,-24,3
-38,6,-9
-8,35,3
-5,50,11
-2,62,8
-16,31,11
-38,37,13
-44,8,39
-128,-72,-21
-128,-58,-21
-100,-55,53
-73,-46,22
-68,-43,3
-1,-45,-10
40,-37,-16
43,-27,-18
34,-26,-22
38,-40,-26
26,-47,-38
-93,-107,-42
-128,-110,-62
-128,-45,26
-87,-3,71
-37,3,27
-24,6,13
-17,22,5
-40,49,7
-36,51,2
-34,33,-8
-25,36,1
-2,34,35
-60,7,26
-128,-14,10
-128,2,32
-78,-3,76
-48,-18,58
-47,-17,16
-39,-30,-16
-34,-40,-22
-18,-42,-29
-3,-78,-31
1,-88,-28
-9,-70,-18
-128,-120,-66
-128,-101,-98
-128,-34,22
-125,-7,-3
-82,14,5
-29,33,11
-14,47,12
-14,55,13
-26,52,-7
-36,52,-21
-23,42,-5
2,29,41
-115,-26,11
-128,-33,-43
-128,33,112
-65,-42,59
-102,-53,12
-59,-45,-9
12,-58,-10
31,-43,-20
74,-72,-47
89,-103,-20
-48,-94,-52
-128,-59,38
-128,-23,54
-128,-7,46
-83,25,26
-38,51,5
-26,57,5
-18,68,2
-14,61,12
-10,63,24
-18,42,25
-23,29,49
-41,3,56
-128,-48,80
-128,-16,93
-111,-37,49
-52,-32,23
-44,-39,2
-45,-47,-31
-12,-57,-46
8,-58,-41
23,-51,-40
40,-66,-25
15,-83,-2
-128,-127,-39
-128,-86,46
-128,-66,24
-65,-9,12
-33,40,8
-45,29,6
-59,51,-1
-1,50,16
3,36,15
-17,28,6
-19,5,21
-24,-35,18
-128,-94,-14
-128,-57,42
-94,-53,83
-9,-21,65
-25,-40,17
-36,-44,-4
-23,-21,-17
13,-18,-12
33,-24,-15
42,-69,-34
-96,-104,-10
-128,-110,11
-128,-98,49
-92,-37,44
-71,-3,40
-32,3,29
-19,6,16
-14,23,7
-10,51,-6
-12,40,-5
-8,29,-3
-52,22,3
-114,-13,88
-112,-25,127
-128,-2,111
-87,-37,63
-58,-32,46
-35,-37,15
-18,-44,-11
-7,-35,-19
-8,-35,-40
-15,-43,-52
-15,-52,-34
-17,-71,-15
-128,-128,-7
-128,-96,-17
-128,-7,67
-61,27,70
-8,19,23
-34,26,-2
-41,51,7
1,54,18
25,40,2
-4,51,11
-72,55,52
-128,10,76
-128,-20,69
-128,-11,76
-69,-36,44
-58,-48,7
-57,-54,-8
-15,-51,-14
8,-43,-11
21,-25,-15
27,-31,-2
33,-43,3
-6,-128,-3
-128,-124,-45
-128,-30,-15
-41,-18,96
-46,-41,-7
-59,-27,-27
-56,32,-17
-16,64,4
6,58,14
-13,54,13
-29,54,33
-14,39,55
-86,-4,61
-128,-32,23
-128,-31,56
-54,-34,67
-75,-41,1
-61,-47,-12
-10,-54,-15
7,-39,-27
4,-39,-28
11,-35,0
40,-69,7
21,-124,3
-128,-128,-51
-128,-32,18
-72,-21,81
-19,-12,22
-40,-6,-21
-44,9,-20
-59,51,5
-48,59,12
-10,56,5
8,51,16
3,42,32
-41,1,55
-128,-20,65
-128,-16,95
-88,-27,82
-117,-41,4
-99,-40,-7
-24,-45,-19
25,-45,-12
25,-32,-15
8,-42,-34
-6,-70,-40
-21,-73,-21
-128,-123,-13
-128,-78,1
-128,-76,28
-100,-41,39
-57,-10,25
-42,10,18
-31,35,3
-49,60,-1
-39,67,5
-16,67,16
-38,55,34
-43,42,43
-62,-17,46
-128,-41,24
-128,-47,23
-128,-47,31
-83,-46,12
-56,-42,3
-22,-39,-9
-15,-33,-20
-13,-39,-26
-26,-76,-48
-26,-72,-34
-46,-66,-20
-128,-82,-25
-128,-47,16
-128,-19,40
-111,28,44
-27,23,28
-20,31,17
-16,57,11
-6,50,-3
-17,40,-10
-33,43,-9
-31,43,24
-46,25,31
-110,-20,30
-128,-13,40
-128,-14,64
-101,-34,36
-89,-35,27
-63,-32,25
-50,-37,19
-45,-39,12
-34,-74,-7
-25,-71,-13
-27,-61,-13
-71,-78,-4
-128,-49,-10
-128,-33,4
-128,-13,28
-82,-2,28
-62,7,26
-29,37,16
-6,60,3
-3,65,-2
-12,61,-1
-38,43,5
-44,34,20
-29,-3,59
-128,-21,56
-128,-2,61
-128,-43,71
-95,-47,35
-79,-42,18
-46,-56,-8
-12,-48,-18
1,-49,-16
10,-71,-24
3,-77,-36
-13,-80,-30
-128,-121,-21
-128,-74,10
-128,-35,36
-61,34,30
-33,9,2
-43,13,-3
-16,52,7
-17,52,19
-21,49,24
-31,42,43
-49,8,38
-90,-14,31
-128,-35,33
-128,-47,47
-108,-59,43
-85,-53,19
-58,-49,9
-15,-53,-8
16,-31,-5
28,-25,-2
22,-37,-1
-24,-43,-3
-54,-53,8
-128,-128,12
-128,-59,34
-93,-43,38
-36,-36,15
-46,-26,-14
-45,-14,-15
-36,17,-7
-47,43,1
-36,48,10
-14,63,50
-42,33,62
-97,11,57
-128,2,74
-101,-35,98
-101,-41,86
-87,-22,50
-43,-9,21
-24,2,6
-12,0,-14
-28,-42,-15
-43,-60,-20
-48,-74,-51
-53,-70,-5
-93,-90,3
-128,-86,-12
-128,-36,42
-128,-15,64
-61,7,52
-48,29,18
-45,52,15
-33,72,9
-33,55,5
-33,63,1
-7,46,18
-34,19,38
-48,-6,41
-128,-26,44
-128,-44,56
-128,-43,61
-95,-35,46
-50,-47,21
-35,-41,13
-20,-30,-7
-21,-54,-22
-24,-66,-20
-19,-64,-4
-118,-77,-6
-128,-71,-6
-128,-48,35
-128,-18,34
-128,-1,26
-76,0,26
-59,17,23
-27,69,13
1,68,3
11,52,-2
-11,54,8
-30,25,20
-44,13,30
-75,-19,89
-128,-18,89
-128,-17,95
-88,-60,50
-67,-68,30
-51,-55,34
-1,-37,29
11,-28,-5
7,-38,-21
12,-59,-25
-1,-72,-10
-66,-88,12
-128,-96,5
-128,-42,73
-120,-5,57
-46,16,14
-38,31,-14
-29,54,-14
11,68,9
27,53,9
16,48,13
-34,56,33
-122,21,24
-128,-15,6
-128,-47,22
-108,-15,40
-80,-23,29
-59,-38,9
-27,-42,-8
-16,-40,-12
-6,-36,-23
-5,-51,-27
-1,-54,-16
-6,-54,9
-128,-111,-4
-128,-86,-22
-128,-4,47
-48,13,43
-18,9,33
-28,7,0
-25,33,3
-25,38,4
-22,41,-11
-21,54,-17
-12,57,-6
-10,33,53
-35,6,65
-128,-10,17
-128,-4,73
-63,-45,78
-52,-44,61
-39,-22,29
-37,-32,10
-37,-50,-20
-35,-60,-30
-33,-63,-30
-8,-40,-8
-45,-62,31
-128,-88,40
-128,-48,23
-119,10,59
-67,13,61
-16,14,71
-30,22,34
-42,34,6
-36,55,-3
-19,63,-5
-8,61,-5
0,40,7
-7,15,48
-40,-7,55
-128,-33,81
-123,4,112
-63,-17,111
-59,-25,77
-88,-33,53
-80,-35,40
-31,-47,23
-44,-98,-13
-41,-96,-13
-9,-48,-10
-67,-93,29
-128,-128,71
-128,-64,87
-93,16,106
-70,11,84
-32,5,44
-23,33,21
-24,51,11
-24,36,1
-31,61,-10
-22,62,-3
-7,26,21
-20,2,37
-60,-27,43
-128,-50,39
-128,-24,63
-87,-58,93
-64,-33,37
-58,-32,17
-38,-47,-8
-11,-47,-16
-7,-57,-22
-23,-80,-48
-17,-67,-25
-46,-67,-9
-128,-121,-6
-128,-38,86
-128,10,84
-61,18,55
-41,-1,21
-46,8,7
-57,43,0
-37,58,-8
-18,71,-6
10,69,10
5,33,34
-7,20,43
-102,-30,50
-128,-18,68
-128,-9,101
-90,-51,63
-73,-39,22
-66,-46,7
-33,-44,-6
-5,-51,-14
-5,-62,-23
8,-61,-20
-29,-37,5
-74,-63,11
-128,-121,33
-128,-36,64
-110,5,68
-57,15,43
-27,1,47
-41,8,44
-94,29,12
-49,48,0
-18,55,-3
25,68,6
10,38,25
4,16,34
-62,-30,40
-128,-17,62
-128,15,107
-86,-22,76
-128,-48,8
-95,-52,10
-24,-46,13
-9,-41,-33
-8,-68,-40
-5,-79,-19
-25,-66,-3
-89,-64,10
-128,-82,48
-128,-67,84
-128,7,60
-68,50,36
-34,47,32
-22,33,12
-17,40,1
-8,44,-4
-13,48,-7
-25,42,5
-25,33,16
-30,0,29
-128,-36,30
-128,-13,35
-128,-11,92
-61,-54,53
-53,-43,29
-52,-44,-3
-27,-44,4
-17,-48,5
-21,-83,-28
-4,-54,-21
-12,-57,-3
-128,-119,-7
-128,-64,-5
-128,-20,36
-70,14,39
-26,11,19
-29,16,9
-43,54,-3
-19,53,-8
-20,47,-11
-17,43,14
6,24,60
-14,3,44
-128,-63,1
-128,-40,31
-128,-30,67
-55,-44,57
-43,-36,24
-43,-35,6
-33,-43,-12
-18,-37,-14
-10,-40,-13
4,-47,-8
2,-67,9
-45,-118,5
-128,-92,-44
-128,-28,35
-115,-22,50
-41,1,27
-32,7,14
-50,21,-7
-30,43,-11
-17,54,-6
-4,48,-9
7,61,22
15,38,31
-89,-13,11
-128,-32,26
-128,-37,106
-91,-28,83
-52,-31,26
-39,-33,12
-34,-55,-15
10,-45,-10
27,-42,-10
24,-43,-18
10,-43,-15
-2,-47,-7
-128,-128,-53
-128,-37,41
-128,-13,71
-88,-15,16
-39,8,0
-25,27,0
-12,48,-2
5,68,8
-3,71,-5
-29,50,10
-30,39,46
-57,12,40
-128,-46,14
-128,-17,71
-105,-20,72
-69,-42,22
-54,-46,-5
-33,-59,-11
6,-46,-7
10,-21,-6
6,-27,-11
-10,-53,-28
-33,-57,-11
-68,-86,8
-128,-98,-17
-128,-20,59
-71,-3,68
-31,-14,39
-67,-13,5
-82,6,-8
-51,41,-2
4,47,3
10,44,6
-7,40,13
-13,38,22
-21,-13,37
-128,-63,43
-128,-18,81
-128,-22,88
-76,-42,32
-57,-40,19
-37,-38,-6
-13,-43,-13
-3,-43,-11
0,-48,-16
6,-65,-34
-4,-59,-30
-111,-107,-27
-128,-95,-30
-128,-11,45
-84,9,35
-41,6,14
-47,12,3
-26,42,7
-14,56,9
-17,55,10
-30,36,15
-38,35,28
-41,28,33
-99,-26,20
-128,-46,47
-128,-20,81
-67,-40,61
-76,-46,5
-56,-56,-9
19,-62,-18
41,-27,-6
19,-13,-10
-16,-38,-21
-40,-39,-1
-58,-56,13
-128,-98,-10
-128,-49,47
-119,-19,59
-65,-2,35
-31,2,18
-32,9,8
-39,31,-6
-31,47,-1
-25,45,-3
-28,37,1
-9,24,45
-17,0,53
-128,-54,48
-128,-34,89
-71,-25,90
-52,-42,27
-36,-57,-11
10,-60,-11
68,-26,1
47,-20,-28
-43,-32,-42
-36,-52,-23
-128,-87,-33
-128,-101,-41
-128,-54,20
-128,-20,36
-57,-7,38
-37,-4,15
-40,7,2
-47,42,-2
-22,60,4
-10,50,5
-19,33,22
-25,17,37
-39,-6,48
-128,-57,47
-128,-27,56
-104,-33,67
-54,-41,40
-67,-39,-1
-55,-42,-11
-21,-35,-9
-1,-34,-20
2,-49,-29
9,-66,-33
-4,-64,-25
-61,-90,-32
-128,-102,-68
-128,-27,15
-128,2,13
-46,16,20
-31,30,3
-37,36,-6
-9,44,-4
10,45,1
-11,43,9
-48,41,17
-41,16,38
-58,-26,26
-128,-61,-2
-128,-34,35
-106,-37,37
-85,-41,-9
-46,-54,-32
-16,-54,-30
18,-38,-19
19,-32,-8
16,-35,-11
-15,-53,-19
-82,-86,-8
-128,-116,-15
-128,-73,20
-128,-44,33
-82,11,21
-38,-5,5
-39,1,-6
-23,32,-10
-1,53,-3
-4,53,0
-17,40,14
-41,40,32
-57,20,35
-128,-62,15
-128,-32,41
-128,-31,59
-75,-47,25
-49,-49,-3
-19,-55,0
9,-51,-14
12,-28,-21
17,-27,-14
17,-41,-15
-58,-52,-19
-128,-95,-7
-128,-75,25
-122,-19,43
-61,0,41
-41,-14,6
-38,9,-1
-20,24,1
-4,41,5
-9,38,4
-17,30,8
-38,36,28
-75,-10,30
-128,-61,17
-128,-28,44
-67,-27,63
-64,-46,32
-67,-53,-4
8,-61,-6
26,-49,-6
13,-20,-10
8,-39,-13
-8,-50,-15
-69,-49,-1
-128,-126,7
-128,-78,40
-90,-21,63
-53,-18,31
-59,-27,10
-24,-1,4
-8,10,6
-28,37,6
-16,44,8
-4,38,12
-16,36,21
-59,-6,32
-112,-49,27
-128,-14,51
-112,-25,50
-111,-40,20
-69,-45,0
-17,-53,-5
-4,-44,-8
10,-27,-3
0,-40,-13
-18,-50,-22
-33,-54,-20
-83,-111,8
-128,-128,-13
-128,-34,33
-66,21,43
-44,5,24
-52,-2,-7
-8,25,-2
-4,31,2
-19,42,0
-20,38,13
-14,34,12
-24,25,26
-118,-44,25
-128,-50,24
-128,-12,77
-94,-51,27
-83,-52,3
5,-54,-9
23,-42,-19
-6,-37,-28
-3,-35,-17
-14,-32,-3
-30,-33,-2
-75,-58,13
-128,-85,6
-128,-53,37
-95,-17,41
-65,-33,9
-58,-23,-1
-27,4,-3
-17,29,-11
-12,49,-12
-5,52,-3
-25,42,20
-42,39,23
-117,-11,14
-128,-49,6
-128,-34,31
-87,-34,38
-34,-60,2
-6,-65,-4
10,-37,-12
5,-24,-13
0,-28,-12
-43,-56,-29
-52,-58,-31
-68,-59,3
-128,-110,2
-128,-60,19
-96,1,54
-59,-6,15
-58,-10,-1
-9,23,-3
-1,42,5
-16,48,10
-37,37,6
-29,32,14
-21,27,28
-72,-17,20
-128,-58,29
-128,-19,49
-123,-36,37
-72,-44,18
-46,-43,10
-16,-54,-8
2,-33,-9
10,-33,-7
7,-55,-18
-28,-58,-26
-62,-54,-23
-128,-113,-28
-128,-35,25
-128,-5,24
-53,13,20
-33,-14,-1
-17,-4,-7
-14,28,-3
-29,70,7
-25,61,9
-44,33,4
-47,27,21
-62,0,17
-128,-74,2
-128,-36,19
-128,-38,21
-66,-62,-3
0,-53,-9
24,-51,-9
22,-33,-9
2,-41,-11
-29,-51,-19
-58,-52,-19
-50,-48,-9
-128,-126,-18
-128,-59,18
-99,-19,32
-76,-8,15
-33,9,2
-17,16,-1
-10,30,5
-16,41,32
-28,41,20
-50,27,26
-45,8,26
-56,-28,28
-128,-84,16
-128,-19,40
-108,-38,27
-63,-48,5
-14,-35,-5
-11,-41,-9
-27,-28,8
-30,-42,-2
-40,-53,-22
-19,-56,-16
-5,-50,6
-58,-88,-3
-128,-76,-2
-128,-59,39
-128,-44,23
-66,-6,13
-20,15,7
-27,15,-1
-38,38,3
-8,46,15
6,26,20
-23,23,6
-30,19,25
-21,-5,36
-94,-78,36
-128,4,44
-128,6,66
-102,-25,43
-80,-32,34
-69,-35,29
-27,-34,17
-4,-47,-12
1,-60,-21
31,-55,-6
2,-49,4
-70,-88,-1
-128,-119,4
-128,-34,51
-119,-2,64
-47,11,33
-34,3,16
-32,30,4
-24,65,5
3,57,24
-2,55,6
-17,39,6
-23,36,17
-54,-21,35
-128,-58,84
-128,-42,114
-103,-49,81
-30,-40,64
-36,-38,38
-30,-42,2
-13,-34,-19
-5,-36,-22
11,-48,-25
-3,-63,-24
-28,-64,-15
-128,-108,-10
-128,-64,45
-128,-40,45
-114,-5,17
-45,24,8
-18,40,3
-7,54,-9
-20,56,5
-18,56,-1
-22,46,3
0,-23,42
-22,9,46
-81,-67,24
-128,-40,7
-128,-19,34
-65,-40,44
-61,-41,1
-65,-42,-9
-41,-49,-13
8,-43,-23
17,-47,-26
15,-59,-17
7,-63,-12
-42,-74,-11
-128,-115,-35
-128,-35,77
-128,-11,50
-32,12,35
-11,10,1
-14,12,-13
-11,34,-21
-28,43,18
-27,34,-11
-37,31,10
-19,23,54
-33,-9,54
-128,-41,33
-128,-15,41
-90,-31,68
-56,-40,26
-58,-39,10
-37,-42,0
-7,-38,-8
1,-39,-15
11,-57,-30
13,-72,-44
0,-69,-41
-128,-128,-44
-128,-53,4
-128,-27,41
-68,19,40
-56,-16,0
-51,2,-10
-31,21,-8
-29,36,-4
-26,41,-7
-10,36,-1
-20,31,16
-27,22,26
-62,-24,33
-128,-57,14
-128,-30,29
-85,-37,64
-68,-45,11
-66,-40,-2
-25,-51,-9
17,-31,-4
24,-22,-10
10,-28,-20
0,-48,-20
-18,-52,-17
-128,-128,-30
-128,-93,-6
-128,-56,14
-110,-19,31
-64,-12,17
-48,6,15
-38,24,12
-48,49,4
-34,51,-2
-7,50,-3
-16,37,6
-22,28,17
-39,-11,18
-119,-71,20
-128,-48,29
-128,-12,49
-98,-39,30
-88,-35,19
-48,-45,10
-32,-49,7
-20,-42,2
-18,-67,-10
-11,-70,-12
-24,-61,-7
-128,-111,-23
-128,-128,-31
-128,-48,-1
-101,3,21
-57,25,24
-6,22,15
2,16,-5
-30,35,-16
-45,56,-9
-16,41,-7
-14,40,0
-34,28,27
-94,-15,21
-128,-48,15
-128,-41,33
-100,-51,49
-89,-57,20
-78,-63,-16
-21,-55,-15
12,-49,-12
42,-51,-5
23,-64,-18
4,-60,-18
-111,-87,-3
-128,-111,3
-128,-74,42
-128,-19,28
-76,-14,14
-50,-8,12
-35,16,0
-33,46,-7
-44,57,-14
-46,70,-33
-2,55,17
-4,39,32
-31,12,35
-78,-93,27
-128,-102,25
-128,-18,39
-81,-58,52
-85,-49,20
-85,-43,-7
-13,-55,-4
11,-54,-11
5,-65,-47
4,-71,-42
-3,-55,-23
-58,-76,-4
-128,-128,-7
-128,-63,43
-128,18,51
-119,23,41
-56,22,13
16,48,11
21,45,5
-28,53,-32
-27,60,-15
-31,44,-6
-14,26,22
-61,-18,22
-128,-88,-19
-128,-60,18
-128,-40,59
-106,-44,23
-45,-53,-27
2,-54,-14
-15,-39,-24
11,-51,-26
22,-62,-8
-1,-59,-7
-23,-54,4
-128,-115,-4
-128,-110,4
-128,-40,9
-108,-2,4
-69,3,3
-40,16,-2
-42,42,-15
-29,57,-12
-9,60,0
-18,42,-7
-24,34,4
-21,20,20
-106,-30,-9
-128,-38,-28
-128,-4,27
-119,-20,28
-83,-35,24
-49,-29,15
-25,-32,-9
-12,-33,-15
-7,-53,-19
7,-66,-19
13,-63,-16
-46,-69,-5
-128,-103,-19
-128,-62,24
-128,-7,39
-88,-1,9
-71,-6,2
-69,13,-31
-76,78,-30
-45,92,-21
13,89,11
6,77,4
-5,57,27
-61,14,8
-108,-14,5
-128,-27,-23
-128,-25,7
-116,-48,3
-84,-47,-17
-11,-59,-27
14,-55,-23
33,-40,-18
52,-48,-13
51,-52,-17
-40,-51,-35
-128,-99,-34
-128,-109,-17
-128,-45,9
-111,7,9
-70,21,9
-31,29,4
-27,57,-9
-17,63,-11
-14,52,-9
-19,43,-1
-28,43,12
-29,37,32
-128,-7,10
-128,-17,-8
-128,-16,23
-77,-39,23
-67,-42,8
-30,-57,-19
11,-54,-18
23,-44,-16
25,-39,-16
4,-42,-17
-33,-36,-22
-128,-64,-19
-128,-79,-2
-128,-76,-2
-128,-24,1
-67,-9,7
-46,-6,5
-31,14,-9
-20,58,-5
-12,78,-6
-11,69,-14
-35,51,14
-55,39,19
-115,-34,4
-128,-80,-23
-128,-46,-4
-72,-50,21
-59,-60,-16
-37,-72,-29
-5,-48,-25
7,-38,-16
20,-39,-14
-14,-49,-30
-34,-48,-23
-67,-69,4
-128,-120,-28
-128,-83,-1
-113,-30,31
-65,-19,11
-52,-15,5
-32,17,1
-36,43,-9
-35,53,-8
-16,54,-21
-15,40,13
-22,34,26
-69,-8,24
-128,-76,24
-128,-52,66
-93,-49,73
-88,-59,3
-32,-60,2
7,-51,0
4,-26,-13
0,-34,-24
-4,-46,-32
-13,-49,-14
-28,-51,-1
-128,-128,-20
-128,-69,34
-128,-45,47
-92,-22,16
-46,-1,11
-30,18,4
-3,51,-2
-3,54,-4
-16,61,1
-43,34,-1
-74,17,26
-62,-12,32
-128,-21,66
-128,-35,87
-128,-45,68
-89,-48,31
-48,-49,11
-33,-42,4
-6,-26,-1
-11,-40,-13
-21,-50,-21
-30,-60,-18
-28,-41,4
-54,-67,24
-128,-128,9
-128,-71,37
-122,-3,53
-48,24,21
-26,20,14
-14,18,4
-23,45,3
-37,62,1
-50,52,3
-16,62,38
1,56,38
-41,1,7
-128,-46,23
-128,-45,37
-116,-30,65
-81,-57,6
-74,-55,-14
-20,-56,-14
19,-53,-7
16,-44,-11
9,-51,-12
37,-52,2
1,-61,2
-128,-128,-6
-128,-100,13
-128,-47,20
-76,-5,9
-43,7,-12
-26,23,-14
-12,37,-19
-14,87,11
-19,52,-8
-25,46,-2
-12,35,39
-15,22,45
-128,-33,-8
-128,-48,38
-128,-34,82
-94,-32,22
-43,-38,-7
-14,-36,-15
15,-34,-18
24,-40,-13
9,-38,-22
-8,-64,-40
-8,-57,-8
-69,-71,12
-128,-117,-4
-128,-8,67
-128,-2,56
-44,17,30
-19,30,19
-20,44,-16
-14,81,-8
2,58,-8
-18,51,-9
-35,53,22
-28,48,48
-62,3,41
-128,-66,12
-128,-36,46
-79,-33,75
-90,-41,12
-88,-41,-14
-11,-57,-31
48,-44,-12
44,-33,-13
13,-44,-19
-23,-58,0
-65,-54,5
-128,-121,20
-128,-42,53
-128,-4,32
-96,20,30
-20,48,18
-14,46,5
-27,50,-26
-22,59,-13
-17,50,-6
-21,46,9
-7,38,47
-17,23,46
-128,-39,23
-128,-34,70
-128,-34,76
-75,-49,18
-45,-52,-13
-10,-55,-16
36,-45,-17
27,-42,-25
22,-40,-24
16,-39,-14
-83,-34,-34
-128,-71,-43
-128,-107,-7
-128,-30,-9
-128,-4,4
-59,-13,9
-24,19,0
-11,38,-1
-26,59,-2
-28,61,1
-23,52,8
-21,38,24
-54,23,24
-82,-7,15
-128,-70,15
-128,-32,28
-128,-31,37
-82,-55,1
-65,-58,-15
-30,-61,-31
13,-45,-17
20,-38,-16
21,-48,-24
2,-63,-35
-17,-60,-29
-128,-125,-45
-128,-101,-45
-128,-50,-22
-128,28,1
-9,31,12
-8,17,-3
-22,49,-19
-29,61,-15
-25,47,-15
-31,42,-5
-17,36,48
-20,14,45
-128,-47,-1
-128,-58,14
-128,-51,48
-72,-48,28
-36,-37,-1
-25,-41,-9
-5,-35,-16
9,-32,-19
12,-31,-17
13,-34,-6
-5,-59,2
-110,-128,-45
-128,-88,-62
-110,-41,38
-78,-16,34
-46,-9,2
-23,10,-8
-28,22,-14
-31,57,-8
-8,64,-9
-16,45,-5
-34,32,14
-99,-15,1
-128,-41,-9
-128,-44,32
-128,-40,32
-99,-42,13
-51,-41,-13
-1,-44,-15
16,-41,-11
7,-46,-36
14,-64,-39
18,-64,-30
-61,-84,-14
-128,-128,-45
-128,-81,0
-124,-26,33
-99,-14,22
-36,5,19
-16,29,20
-20,33,17
-28,53,-6
-8,74,-2
-3,46,10
-23,35,27
-65,-13,32
-119,-58,19
-128,-43,28
-123,-28,69
-107,-38,37
-81,-45,-6
-30,-46,-14
-12,-46,-12
-3,-34,-15
-20,-66,-48
-17,-82,-53
-4,-60,-21
-108,-87,-10
-128,-111,-44
-128,-19,31
-128,16,45
-84,22,44
-8,40,29
-23,66,17
-22,62,9
1,42,-2
-6,53,-8
-25,28,-9
-49,31,13
-84,3,35
-123,-1,37
-128,10,79
-128,-5,74
-111,-21,60
-50,-27,44
-29,-31,15
-30,-38,6
-35,-80,-3
-18,-94,-23
-5,-67,-17
-44,-78,12
-128,-107,-28
-128,-42,17
-128,16,68
-100,22,58
-61,17,27
-31,51,4
-18,72,-1
-11,72,-11
-2,56,-10
2,59,1
-15,42,26
-59,18,41
-71,-10,48
-128,-54,79
-128,0,77
-128,-21,74
-78,-50,37
-56,-54,11
-49,-58,-1
-13,-55,-9
-8,-73,-32
-9,-79,-42
-1,-59,-23
-84,-90,0
-128,-128,-42
-128,-38,46
-128,2,37
-101,3,20
-50,23,9
-9,75,4
-4,93,-3
1,60,-6
-11,49,4
-29,47,18
-51,31,57
-102,-26,68
-128,-40,64
-128,-31,54
-106,-41,37
-76,-39,25
-39,-39,2
-21,-44,-14
-14,-44,-17
-6,-72,-25
1,-77,-16
-7,-64,-15
-110,-75,5
-128,-82,6
-128,-50,40
-128,-16,28
-94,18,11
-71,48,18
-26,72,17
-14,46,7
-6,33,5
0,33,-1
-14,33,3
-30,28,35
-85,-14,33
-128,-51,7
-128,-51,21
-114,-43,25
-89,-43,10
-34,-35,-4
0,-33,-14
5,-28,-10
1,-32,0
-23,-54,-11
-43,-68,-16
-82,-70,5
-128,-103,-1
-128,-77,14
-128,-41,44
-65,-3,44
-52,6,34
-61,14,11
-45,55,2
-23,64,1
-9,52,-9
-29,34,-5
-37,31,9
-20,-3,30
-68,-75,33
-128,-71,38
-128,-35,48
-89,-49,64
-49,-38,41
-35,-37,23
-24,-28,3
-19,-36,6
-6,-67,-3
-10,-66,-20
-15,-60,-20
-57,-66,14
-128,-128,-13
-128,-67,37
-128,-20,71
-59,23,47
-22,28,38
-11,24,1
-6,58,-13
5,71,8
-21,39,-5
-55,46,15
-6,33,37
18,4,51
-43,-20,34
-128,-43,47
-128,0,127
-111,-20,64
-93,-36,42
-53,-47,19
-42,-42,8
-26,-47,-5
-10,-64,-11
-4,-70,-13
-10,-51,-5
-116,-85,10
-128,-75,12
-128,-44,52
-128,32,66
-93,46,61
-41,38,39
-29,47,20
-33,49,12
-24,52,-3
-12,66,-16
-16,62,-14
-7,35,10
-33,-11,10
-79,-37,24
-128,-2,71
-128,-7,67
-114,-37,38
-43,-50,37
-17,-46,5
4,-35,3
11,-22,3
-27,-63,-21
-45,-69,-25
-51,-54,-4
-128,-79,22
-128,-76,12
-128,-28,53
-104,9,45
-77,10,34
-41,24,24
-29,43,12
-35,48,9
-23,50,3
-16,50,7
-23,45,11
-31,27,29
-77,-11,47
-128,-15,73
-128,-2,97
-75,-38,65
-60,-39,49
-51,-36,21
-16,-41,4
-2,-44,0
10,-38,-11
0,-47,-15
-13,-57,-14
-91,-99,11
-128,-128,28
-128,-66,78
-120,-26,59
-81,-11,44
-24,8,28
-16,25,16
-34,36,1
-30,60,-7
-9,50,8
-12,46,6
-27,19,32
-52,-43,27
-128,-55,16
-128,-16,46
-128,-34,32
-97,-43,16
-37,-39,-1
-38,-34,-12
-32,-45,-8
2,-51,1
3,-76,-7
-10,-70,-12
-52,-59,-6
-128,-117,-14
-128,-79,-15
-128,-24,37
-103,8,14
-58,19,6
-14,43,-4
-16,53,-9
-6,54,-7
6,41,-2
-17,47,23
-17,42,36
-44,4,30
-128,-28,29
-128,1,80
-128,17,63
-87,-24,16
-71,-22,4
-32,-34,-12
-3,-43,-4
3,-43,0
-8,-61,-23
-19,-71,-40
-5,-62,-24
-70,-85,14
-128,-102,-19
-128,-39,33
-118,9,49
-46,12,27
-31,21,19
-21,40,2
-15,61,6
-5,51,4
-42,45,-19
-48,41,-6
-19,31,37
-91,-23,14
-128,-39,1
-128,-23,34
-103,-46,45
-90,-52,23
-62,-53,1
-17,-49,-2
5,-40,-2
39,-35,-7
50,-57,-9
31,-70,-15
-101,-87,-20
-128,-89,5
-128,-64,37
-128,-19,9
-95,-5,16
-58,1,16
-38,18,7
-24,57,-16
-13,70,-11
-2,56,-2
-17,42,-1
-25,43,15
-18,23,38
-115,-14,11
-128,-11,-4
-128,-1,40
-96,-19,61
-80,-22,41
-57,-29,16
-38,-36,6
-28,-41,11
-18,-54,-3
-18,-72,-16
-17,-70,-16
-53,-47,13
-128,-95,-14
-128,-70,-10
-128,18,60
-50,29,49
-24,9,35
-39,17,10
-53,37,5
-50,42,2
-10,54,-5
12,36,-4
22,37,5
-12,34,26
-74,-12,24
-128,-26,21
-128,-16,60
-128,-6,85
-128,-24,51
-78,-55,23
-70,-49,35
-57,-64,38
-31,-100,-24
-37,-109,-51
-9,-54,-28
-34,-43,-10
-90,-71,1
-128,-122,-10
-128,0,67
-95,24,86
-38,-1,44
-47,5,14
-48,29,10
-31,73,8
-19,63,-19
-14,63,-22
-9,46,15
4,2,43
-21,-20,42
-128,-13,25
-128,-23,105
-118,-38,107
-84,-45,44
-55,-64,6
-53,-51,-8
-27,-59,-8
-6,-77,-10
7,-69,-17
17,-51,-8
-77,-96,-2
-128,-128,-46
-128,-34,14
-101,22,63
-63,23,41
-23,19,16
-23,43,-5
-20,52,-10
8,53,-16
-6,47,-13
-26,49,-3
-43,37,44
-89,-16,58
-128,-35,58
-128,-14,98
-60,-42,81
-44,-31,53
-52,-31,-14
-25,-42,-34
-1,-45,-26
15,-57,-9
12,-56,-14
18,-58,-32
-50,-74,-29
-128,-128,-91
-128,-39,-18
-128,-16,-9
-128,-4,-10
-58,14,7
-30,47,-13
-17,67,-9
-11,76,-11
-12,53,-13
-20,36,-9
-31,40,24
-33,2,32
-128,-35,12
-128,-30,29
-128,-28,43
-77,-35,32
-26,-24,3
-22,-21,-37
-8,-28,-41
9,-63,-18
-15,-74,-33
-31,-60,-33
-72,-46,-5
-128,-125,-4
-128,-72,16
-128,-11,51
-33,24,33
-18,22,12
-24,38,-16
-50,56,-31
-63,43,-39
-28,36,-18
-11,25,22
-25,32,35
-73,-9,7
-128,-30,-23
-128,-14,12
-87,-9,29
-64,-25,-23
-55,-29,-40
-7,-47,-27
15,-51,-15
14,-52,-19
10,-58,-20
-22,-53,-15
-65,-60,-20
-128,-109,-34
-128,-50,12
-128,-18,1
-49,32,4
-4,31,7
-7,1,-10
-42,47,-22
-54,51,-16
-36,42,-16
0,40,39
-13,39,45
-110,2,-1
-128,-58,-14
-128,-42,8
-101,-24,23
-61,-36,-2
-46,-38,-12
-15,-38,-14
6,-36,-7
8,-40,-7
9,-52,-12
-18,-56,-15
-69,-68,-12
-128,-128,-26
-128,-46,16
-128,-17,19
-59,-1,6
-24,26,-10
-15,37,-15
-3,89,-54
4,60,-5
-12,44,-5
-40,45,16
-39,14,40
-90,-25,23
-128,-57,5
-128,-37,43
-96,-45,30
-59,-48,-3
-10,-57,-19
13,-49,-14
5,-23,-7
-22,-29,-8
-25,-44,-16
-19,-50,-2
-111,-90,29
-128,-86,22
-128,-41,55
-88,-2,40
-52,-3,24
-31,6,-8
-14,30,-19
-15,47,-20
3,39,-14
-2,51,-2
-43,50,22
-42,28,45
-76,-29,28
-128,-84,2
-128,-64,-4
-97,-56,21
-53,-36,18
-41,-52,-10
-16,-48,-10
37,-29,-1
33,-18,3
21,-24,4
-45,-32,-3
-128,-125,-16
-128,-122,-28
-128,-76,7
-100,-43,12
-83,-36,8
-37,-8,3
-20,16,-6
-19,34,-9
-11,72,-8
-16,46,-6
-24,40,8
-42,39,37
-108,-56,11
-128,-90,-6
-128,-50,6
-87,-58,17
-73,-62,3
-55,-54,-18
2,-44,-20
24,-35,-15
32,-25,-19
28,-36,-20
22,-45,-9
-86,-110,-4
-128,-88,29
-128,-60,105
-31,17,83
-37,-9,26
-3,8,18
38,17,17
-13,15,-8
-65,33,-12
-49,42,29
-20,21,17
-5,5,18
-88,-8,41
-128,-19,48
-128,-26,64
-100,-21,81
-40,-21,56
-36,-21,43
-36,-32,17
-28,-37,-3
-28,-46,-17
5,-66,-19
21,-65,-12
-23,-59,6
-128,-128,4
-128,-81,32
-128,-14,68
-65,14,37
-45,18,21
-47,19,-16
-16,63,-7
7,62,0
6,43,-6
-27,43,17
-37,34,31
-64,-1,55
-128,-46,36
-128,-47,37
-123,-47,40
-62,-42,23
-57,-42,8
-24,-54,-13
9,-44,-11
13,-42,-14
7,-51,-22
3,-63,-16
-13,-57,-8
-128,-103,-16
-128,-60,18
-128,-50,38
-101,-13,19
-52,10,2
-29,20,2
-7,39,-17
-30,58,-12
-10,-5,-3
-45,44,4
-25,34,39
-18,18,45
-83,-27,53
-128,-20,77
-128,-16,88
-73,-40,69
-66,-33,21
-66,-35,0
-47,-47,-21
-18,-43,-27
7,-45,-26
37,-64,-23
-11,-65,-12
-93,-92,-11
-128,-85,-17
-128,-39,36
-128,-22,23
-68,5,13
-37,16,11
-20,26,-7
-25,65,-8
-22,54,-8
-38,43,-8
-52,36,16
-32,30,43
-53,-21,47
-128,-42,7
-128,-42,6
-107,-48,15
-51,-46,6
-35,-47,-3
-6,-45,-12
19,-38,-19
19,-41,-27
14,-47,-20
-8,-47,-16
-42,-63,-20
-128,-128,-28
-128,-57,25
-128,-31,17
-88,-1,14
-29,15,13
-16,21,8
-19,30,5
-29,40,1
-34,53,6
-19,44,25
-50,30,27
-84,3,16
-128,-55,21
-128,-25,28
-128,-43,14
-103,-51,-1
-36,-55,-17
-12,-65,-21
11,-49,-24
9,-41,-21
-4,-53,-29
-27,-53,-21
-33,-52,0
-68,-94,0
-128,-100,-5
-128,-38,34
-124,-21,28
-66,-6,10
-23,18,6
-17,27,1
-31,46,1
-36,56,5
-27,62,14
-7,34,38
-18,8,32
-79,-33,18
-128,-50,19
-128,-11,35
-101,-34,20
-74,-38,1
-68,-26,-1
-54,-33,-3
-19,-36,0
-5,-52,-4
4,-86,-20
15,-52,-1
-1,-54,4
-128,-113,-8
-128,-54,31
-128,-33,42
-127,-10,18
-56,21,10
-34,36,8
-20,84,-18
-9,5,-2
-5,41,-10
-26,45,5
-46,51,45
-37,29,48
-123,-26,28
-128,-7,48
-128,-12,68
-98,-52,37
-73,-29,16
-52,-36,4
-14,-51,-13
7,-47,-15
12,-47,-19
13,-62,-29
-7,-55,-12
-65,-66,-4
-128,-108,-12
-128,-44,31
-128,-19,25
-67,-11,18
-31,-8,12
-20,-3,9
-36,41,-9
-60,87,-25
-36,60,-11
-25,45,24
-51,-1,22
-78,-49,24
-128,-103,48
-111,-33,64
-85,-44,49
-66,-24,24
-55,-25,4
-40,-36,-2
-18,-41,-10
-26,-51,-11
-11,-77,-16
4,-62,-23
-26,-66,-2
-128,-128,5
-128,-87,-4
-128,-52,12
-90,4,8
-8,33,3
-1,44,1
-26,54,-4
-32,44,-5
-30,35,-9
-8,27,12
10,9,35
-20,-8,35
-128,-33,-4
-128,-36,51
-128,-43,47
-87,-51,2
-37,-52,-19
-4,-60,-18
35,-50,-13
21,-46,-20
19,-52,-23
10,-60,-19
-79,-76,-6
-128,-125,-22
-128,-76,2
-128,-9,28
-86,8,26
-28,16,9
-9,24,-15
-12,38,-18
-10,61,-17
-14,57,-14
-36,66,-6
-47,53,36
-76,3,28
-128,-27,5
-128,-36,2
-98,-53,39
-58,-52,35
-55,-45,5
-41,-43,-10
-19,-36,-7
6,-46,-21
-3,-80,-33
-3,-74,-27
-36,-68,-5
-128,-115,-25
-128,-91,-7
-128,-24,33
-119,7,28
-53,25,8
-7,59,4
1,66,-3
-14,51,-11
-19,56,-16
-21,48,-4
-16,38,39
-70,2,32
-128,-22,22
-128,-30,32
-122,-40,32
-89,-46,18
-76,-34,-14
-22,-48,-23
1,-54,-18
15,-60,-15
15,-67,-24
17,-69,-20
10,-57,-11
-128,-103,-98
-128,-66,-74
-128,1,6
-58,25,-8
-39,15,1
-38,16,-16
-4,43,-7
-9,50,-8
-26,48,-8
-14,41,2
-7,35,16
-34,17,29
-128,0,7
-128,-4,20
-128,4,69
-93,-23,29
-77,-35,18
-51,-47,3
-25,-51,-5
-13,-44,-5
5,-48,-10
10,-62,-15
4,-48,-7
-85,-94,-14
-128,-117,-36
-128,-59,-1
-122,-5,9
-66,-2,-14
-47,19,-21
-2,64,-7
-6,59,-10
-13,65,-13
-43,54,-15
-56,43,0
-52,33,37
-128,-15,3
-128,-56,-38
-128,-45,-3
-96,-59,0
-82,-51,-6
-44,-58,-16
6,-54,-16
20,-47,-16
22,-48,-18
20,-53,-20
12,-59,-18
-67,-82,-17
-128,-105,-26
-128,-86,-6
-128,-13,-50
-93,21,-20
-50,27,-15
-3,68,-12
12,84,-4
15,77,0
4,52,0
-71,45,21
-110,32,26
-128,-35,16
-128,-51,-34
-128,-54,-16
-48,-51,9
-54,-46,-6
-36,-46,-16
8,-38,-3
6,-37,-8
-16,-49,-25
-32,-67,-33
-18,-81,-7
-62,-127,-19
-128,-102,-63
-128,3,47
-97,23,56
-58,14,-6
-7,43,-19
6,77,-12
-11,60,-8
-49,51,-11
-42,46,11
-6,28,50
-113,3,3
-128,-12,-17
-128,-52,11
-108,-40,28
-87,-38,16
-72,-50,-10
-20,-59,-13
-2,-56,-14
20,-40,-15
25,-42,-19
20,-46,-22
-18,-61,-14
-95,-100,-19
-128,-98,-19
-128,-32,20
-118,-5,12
-39,15,7
-25,31,0
-11,50,4
-5,50,9
-17,42,-2
-31,43,-3
-51,39,23
-66,19,21
-123,-21,13
-128,-46,9
-128,-38,32
-108,-52,15
-74,-52,-7
-15,-60,-13
8,-52,-10
28,-38,-12
32,-55,-19
31,-59,-20
1,-50,-13
-128,-108,-37
-128,-92,-23
-128,-3,14
-72,14,4
-47,23,-8
-27,52,-17
3,55,-4
-4,50,-7
-31,50,-11
-28,45,19
-27,40,28
-85,17,18
-128,-47,1
-128,-42,10
-105,-29,37
-60,-36,16
-59,-32,2
-14,-41,-17
32,-47,-14
35,-42,-14
22,-45,-23
-12,-50,-24
-53,-55,-22
-128,-123,-35
-128,-69,4
-128,-35,7
-70,6,17
-40,7,16
-20,-3,-1
-18,27,-6
-23,45,-4
-37,54,-20
-26,45,0
-14,42,25
-51,21,26
-128,-38,-2
-128,-64,-15
-128,-47,14
-101,-64,-12
-81,-62,-17
-21,-67,-24
29,-50,-21
35,-43,-20
31,-51,-17
5,-56,-23
-27,-60,-26
-128,-127,-41
-128,-52,44
-128,-45,52
-32,12,48
-11,26,24
-11,24,8
-8,31,0
-17,31,1
-45,38,-2
-74,40,25
-46,10,32
-71,-10,10
-128,-42,1
-128,-35,22
-128,-36,24
-74,-38,9
-35,-40,-5
-19,-48,-10
2,-52,-14
9,-45,-15
12,-50,-21
3,-48,-19
-82,-87,3
-128,-128,-13
-128,-78,35
-114,-3,32
-61,14,24
-27,4,-2
-23,23,-13
-12,42,-7
-4,41,-2
-50,50,-6
-50,59,19
-23,44,44
-49,24,0
-128,-27,-6
-128,-32,35
-103,-35,24
-87,-48,7
-63,-49,-17
-25,-54,-18
28,-44,-10
40,-26,-10
47,-27,-9
46,-33,-14
-90,-28,-45
-128,-52,-43
-128,-83,31
-128,-20,-13
-105,-10,0
-51,-18,-8
-37,-5,-20
-21,-1,-25
-21,36,-20
-45,60,-42
-46,65,-44
-33,69,18
-55,38,5
-91,3,-6
-128,-31,-32
-128,-25,10
-110,-26,-5
-63,-39,-31
-15,-51,-36
3,-48,-23
15,-43,-26
-2,-55,-32
0,-57,-26
-1,-48,-5
-122,-98,-51
-128,-114,-83
-128,-58,-49
-123,-8,-24
-87,4,-15
-35,23,-3
-22,39,-10
-18,53,-11
-22,54,-10
-44,43,-27
-55,44,-18
-43,31,23
-76,-20,19
-128,-37,-13
-128,-26,-6
-128,-33,34
-76,-41,12
-60,-62,-25
-22,-50,-15
1,-44,-11
28,-41,-12
29,-52,-17
-8,-66,-23
-81,-90,-35
-128,-114,-47
-128,-81,1
-128,-13,1
-121,16,3
-28,30,-4
-21,39,-27
-18,50,-25
-6,53,-4
-18,51,11
-29,55,20
-50,32,21
-128,-9,6
-128,-32,-7
-128,-27,14
-87,-48,14
-84,-55,-4
-54,-74,-40
6,-66,-34
24,-55,-25
31,-49,-18
-4,-37,-14
-25,-37,-5
-128,-75,-9
-128,-80,-2
-128,-68,22
-114,-10,32
-49,-1,26
-29,-2,14
-38,9,-19
-34,47,-15
-16,57,-4
-23,51,5
-38,48,26
-46,34,32
-86,-18,11
-128,-46,-19
-128,-37,2
-58,-49,53
-41,-37,23
-60,-50,-1
-48,-48,-15
-1,-37,-9
11,-32,-7
4,-33,-16
-19,-63,-23
-43,-79,-18
-128,-86,22
-128,-31,92
-128,0,77
-68,-1,44
-53,0,24
-30,19,6
-9,43,3
1,50,2
-5,53,-8
-28,44,-4
-41,40,10
-47,8,39
-128,-40,25
-128,-44,8
-128,-23,43
-58,-38,48
-46,-34,34
-39,-38,0
-27,-37,-13
-18,-34,-12
-7,-42,-5
-11,-49,-11
-44,-50,-10
-80,-73,-9
-128,-107,-6
-128,-72,3
-96,9,35
-21,-3,43
-25,-7,25
-42,8,-9
-44,35,-20
-43,43,-17
-67,46,7
-22,49,23
-25,36,36
-90,-7,30
-128,-46,35
-128,-24,66
-52,-29,68
-59,-36,18
-55,-42,3
-32,-47,-10
0,-36,-9
5,-44,-14
8,-67,-17
-20,-60,-11
-83,-78,-12
-128,-113,-19
-128,-48,23
-128,6,41
-42,6,31
-17,26,3
-21,46,-14
-32,65,-14
-7,34,-4
-12,33,-3
-22,40,25
-34,34,53
-128,-24,28
-128,-57,-2
-128,-39,30
-81,-50,41
-56,-42,6
-41,-55,-11
-17,-58,-11
26,-31,-5
28,-26,-5
-4,-40,-27
-11,-44,-2
-38,-55,9
-128,-128,-34
-128,-61,35
-128,-30,35
-65,-22,10
-51,10,-7
-25,30,-2
-16,13,7
-19,57,7
-27,50,5
-28,48,24
-56,19,23
-82,-16,12
-128,-65,42
-128,4,71
-119,-14,55
-78,-38,25
-50,-27,2
-34,-30,-9
-14,-43,-23
0,-35,-21
4,-42,-26
5,-52,-14
-27,-62,-14
-97,-89,-11
-128,-107,-31
-128,-27,33
-120,-5,38
-58,8,12
-26,38,-1
-25,44,-9
-26,50,-9
-24,46,-1
-24,40,-4
-23,38,30
-50,8,40
-103,-24,18
-128,-45,18
-115,-25,60
-85,-34,57
-90,-34,22
-50,-38,15
-34,-36,9
-9,-30,0
-2,-34,-5
-4,-34,-7
-18,-46,-12
-26,-50,-7
-120,-110,9
-128,-80,23
-128,-61,39
-113,-26,32
-49,-3,11
-27,17,5
-19,44,5
-33,66,3
-36,54,-2
-42,52,9
-24,37,47
-44,9,35
-128,-58,1
-128,-49,19
-128,-44,36
-89,-55,29
-72,-50,10
-54,-54,3
-20,-51,-2
4,-46,-13
9,-46,-14
23,-34,6
-15,-41,8
-93,-83,11
-128,-93,11
-128,-35,57
-90,-10,48
-19,-3,24
-38,-14,-7
-38,12,-9
-11,40,-1
-14,34,-11
-24,40,-16
-32,44,13
-27,21,46
-71,4,29
-128,-20,26
-128,-21,72
-128,-19,67
-83,-37,31
-51,-37,7
-36,-34,-3
-13,-41,-7
-3,-35,-1
-4,-46,-4
-8,-49,-8
-48,-62,-8
-128,-100,-15
-128,-51,30
-128,-5,56
-111,8,37
-11,3,24
-9,0,12
-23,22,6
-26,29,16
-36,27,9
-40,37,-14
-10,42,19
-3,27,41
-77,-21,24
-128,-53,17
-128,-41,41
-91,-43,64
-63,-50,26
-54,-45,9
-23,-41,-5
4,-40,-9
0,-46,-17
-13,-59,-19
-24,-47,4
-43,-44,7
-128,-118,-17
-128,-55,7
-128,-28,12
-88,15,23
-19,15,11
-14,16,-3
-19,50,-15
-20,46,-4
-12,18,-4
-30,23,-9
-7,33,35
-8,24,44
-119,-38,3
-128,-20,1
-128,-12,55
-77,-22,77
-63,-28,28
-51,-31,12
-32,-40,0
-15,-40,-4
-17,-44,-8
-9,-57,-16
2,-45,3
-24,-56,11
-128,-122,-26
-128,-41,24
-128,-9,45
-65,7,35
-27,8,30
-27,15,19
-36,42,-12
-36,49,-22
-27,57,-22
-32,40,-6
-38,37,12
-25,5,42
-120,-65,23
-128,-40,-1
-128,-28,55
-70,-51,48
-78,-36,22
-57,-47,-4
-16,-42,-2
0,-49,-7
3,-61,-16
-13,-59,-21
-11,-43,-9
-78,-64,12
-128,-126,-10
-128,-68,10
-104,35,31
-5,35,45
-13,5,28
-41,20,-4
-47,48,-9
-40,46,-14
-32,17,-6
-6,30,24
1,19,41
-40,-24,31
-128,-49,14
-128,-16,23
-62,-33,84
-72,-34,33
-86,-36,10
-55,-48,-6
-22,-49,-9
-21,-62,-19
0,-70,-19
13,-51,6
-19,-70,9
-128,-116,-25
-128,-43,49
-128,5,80
-39,28,71
-37,-9,16
-39,-7,6
-34,24,-2
-29,40,-12
-24,46,-16
-12,50,-6
-21,27,18
-31,15,29
-89,-26,20
-128,-38,13
-128,-2,38
-79,-25,69
-61,-27,33
-61,-26,16
-50,-50,1
-26,-46,4
-27,-61,-4
-21,-67,-15
-16,-54,-8
-43,-55,26
-128,-80,7
-128,-47,20
-128,-3,56
-40,33,49
-14,38,34
-16,17,7
-33,43,-2
-57,52,-20
-13,38,-18
10,33,5
21,36,29
6,13,56
-128,-26,43
-128,-12,36
-105,-5,111
-40,-20,74
-56,-24,46
-63,-35,16
-38,-31,1
-20,-32,-2
-9,-44,-14
-24,-59,-16
-27,-53,-1
-116,-92,23
-128,-61,45
-128,-20,47
-93,22,30
-12,21,15
-13,27,7
-19,50,33
-24,32,5
-17,36,-7
-22,64,-14
-50,39,-7
-29,21,31
-46,-28,57
-128,-20,10
-128,-12,18
-107,-30,66
-34,-41,56
-36,-42,33
-38,-31,5
-26,-49,-7
-27,-56,-15
-18,-56,-14
-14,-41,13
-41,-51,24
-128,-110,-1
-128,-60,9
-111,18,53
-30,9,46
-22,4,30
-31,-1,5
-39,29,-1
-34,43,2
-21,43,-4
-18,46,-4
-23,34,7
-39,2,25
-128,-34,-3
-128,-39,-13
-128,-34,46
-81,-43,26
-72,-49,12
-43,-53,-10
15,-46,-13
20,-42,-13
9,-69,-20
-5,-75,-21
-35,-65,-22
-128,-114,-37
-128,-73,-3
-128,-41,23
-65,33,35
-14,10,15
-19,-3,-4
-41,30,-16
-45,45,-6
-26,48,-10
-22,35,1
-3,35,55
-19,7,42
-128,-48,-9
-128,-41,39
-125,-34,72
-48,-24,43
-46,-33,1
-41,-36,-3
-23,-45,-9
-10,-44,-7
-11,-50,-14
-18,-56,-28
-16,-53,-3
-42,-90,5
-128,-108,-28
-128,-26,20
-84,1,52
-11,6,50
-25,-6,8
-43,1,-5
-63,29,-16
-54,39,-14
-7,40,6
-7,43,17
-12,33,31
-104,-4,-1
-128,-43,-12
-128,-46,13
-93,-19,67
-55,-31,39
-62,-33,19
-62,-42,-4
-41,-36,-3
-24,-41,-1
-13,-49,-9
0,-48,-3
4,-49,7
-100,-110,-2
-128,-70,-17
-128,-40,16
-51,16,62
-10,6,31
-23,-8,15
-45,13,-12
-35,46,-21
-13,42,-7
-14,33,13
-36,41,38
-54,18,33
-128,-29,26
-128,-23,55
-128,-14,64
-72,-30,37
-55,-30,10
-41,-40,1
-14,-48,-10
5,-36,-10
9,-38,-8
11,-50,-2
-17,-55,8
-85,-85,-12
-128,-80,-20
-128,-47,41
-128,-17,31
-54,-9,12
-12,-5,-2
-13,0,-18
-31,47,-27
-45,63,-21
-36,47,-12
-15,47,35
-14,35,49
-83,-16,11
-128,-82,-23
-127,-16,51
-79,-10,55
-70,-21,6
-54,-39,-18
-44,-51,-26
-20,-47,-19
-10,-36,-13
1,-36,-15
-1,-47,-6
-22,-61,3
-128,-118,-46
-128,-37,17
-115,-10,53
-24,9,48
-20,-8,-1
-37,4,-23
-46,56,-22
-16,54,5
-11,28,2
-29,33,10
-65,28,25
-94,15,32
-128,-34,29
-128,-13,56
-88,-17,52
-62,-32,19
-66,-51,-17
-42,-51,-18
4,-40,-12
19,-31,-12
24,-34,-13
12,-40,-13
-78,-84,-2
-128,-128,-35
-128,-61,-23
-86,-4,37
-39,7,47
-20,-8,23
-15,-7,0
-24,-3,-9
-51,34,-11
-43,42,-3
-26,35,8
-21,30,34
-111,3,3
-128,-22,-17
-128,-29,11
-80,-27,35
-63,-34,26
-57,-34,2
-38,-38,-9
-23,-36,-4
-7,-31,-3
-13,-38,-14
-16,-46,-18
-16,-59,-5
-39,-99,0
-128,-119,-42
-128,-40,-6
-106,-8,8
-12,-1,14
-34,-10,-17
-43,5,-18
-42,36,-7
-27,42,-13
-8,39,12
-8,41,32
-70,1,4
-128,-23,-25
-128,-16,-15
-109,-39,33
-64,-39,38
-34,-34,25
-44,-57,-11
-37,-54,-16
-9,-48,-3
10,-43,5
6,-50,-9
-65,-55,-36
-128,-115,-31
-128,-112,-48
-128,-30,-1
-47,37,45
-28,16,21
-30,-8,-19
-27,32,-25
-19,50,-12
-4,52,6
-41,42,3
-40,41,21
-77,5,14
-128,-77,-25
-128,-61,-12
-95,-37,51
-77,-46,13
-88,-50,-11
-34,-50,-7
4,-46,-10
19,-37,-11
36,-32,-8
16,-49,-15
-3,-47,-11
-85,-117,-7
-128,-95,13
-128,-55,31
-62,-16,21
-40,-27,-14
-46,-21,-23
-38,12,-16
-39,36,-8
-20,58,1
-24,40,-7
-29,31,16
-87,-9,44
-128,-45,64
-128,-25,84
-61,-25,70
-73,-16,16
-61,-16,8
-28,-28,-5
3,-39,-4
8,-54,-8
4,-69,-21
-28,-70,-28
-46,-58,-14
-128,-120,5
-128,-66,18
-128,-28,23
-45,16,32
-10,3,16
-10,-2,8
-36,26,-3
-31,40,0
-23,46,4
-29,40,-2
-31,37,25
-31,24,29
-121,-33,-5
-128,-40,0
-128,-31,48
-118,-36,29
-67,-44,-7
-45,-55,-13
-33,-56,-5
-2,-38,-12
37,-37,-14
49,-54,-9
-19,-47,-11
-61,-61,-4
-128,-128,-33
-128,-50,5
-128,-9,18
-30,26,26
-7,14,11
-15,12,4
-37,34,11
-42,22,-10
-49,32,-19
-39,44,-10
-28,38,10
-49,-18,31
-128,-46,-7
-128,13,101
-47,-7,102
-66,-28,22
-67,-45,-35
-36,-59,-32
4,-38,-10
11,-34,-1
22,-37,4
18,-40,1
-3,-39,2
-128,-128,-9
-128,-88,19
-128,-42,30
-94,10,34
-35,5,25
-32,-1,18
-46,31,-12
-40,75,-16
-27,69,-14
-20,45,-15
-7,34,30
-8,16,41
-102,-40,11
-128,-35,5
-128,-21,63
-91,-36,59
-72,-40,14
-61,-41,-3
-9,-52,-10
17,-48,-7
15,-48,-11
16,-50,-17
29,-42,-6
2,-51,-6
-128,-128,-55
-128,-40,56
-128,-3,74
-78,10,33
-50,10,9
-46,18,0
-24,59,-9
-13,74,-9
-14,62,-11
-20,57,-3
-20,45,32
-35,36,39
-127,-22,43
-128,4,68
-128,-2,92
-97,-34,49
-90,-30,17
-84,-36,9
-31,-45,0
3,-44,-32
11,-45,-47
42,-47,-30
32,-36,-9
-43,-68,1
-128,-128,21
-128,-111,51
-128,-18,62
-72,11,54
-44,7,39
-44,31,6
-22,62,5
-10,56,0
-20,56,-8
-18,57,11
-8,41,24
-24,0,40
-128,-38,36
-128,-33,46
-118,-34,94
-77,-46,29
-77,-44,6
-39,-59,-12
10,-45,-9
31,-37,-9
46,-41,-13
19,-44,-8
-12,-40,1
-128,-111,-15
-128,-38,82
-128,-19,66
-93,-14,34
-57,-7,18
-54,2,6
-73,37,-22
-29,68,-10
0,67,-1
8,56,3
-11,45,23
-28,32,26
-110,-15,31
-128,-22,96
-128,-1,124
-81,-20,67
-69,-46,22
-40,-46,17
2,-45,7
6,-31,-7
2,-36,-11
1,-56,-6
10,-46,27
-44,-62,31
-128,-82,-59
-128,-11,53
-63,36,110
-17,20,64
-27,-3,23
-55,-2,-9
-69,56,-13
-54,65,-12
-12,58,-16
-12,68,6
-10,48,21
-18,21,48
-128,-23,56
-128,-7,83
-128,-16,121
-40,-25,83
-43,-22,56
-67,-42,0
-33,-47,-15
-8,-45,-14
14,-56,-19
11,-63,-21
-10,-57,6
-81,-73,-1
-128,-115,-57
-128,-61,6
-126,4,52
-42,24,21
-29,17,0
-51,40,-16
-34,69,-18
-2,58,-18
5,57,-6
-11,40,30
-11,28,44
-116,-9,35
-128,-29,49
-128,-24,74
-91,-12,59
-61,-25,14
-58,-26,-3
-33,-39,-19
1,-40,-16
6,-41,-19
4,-64,-31
-6,-62,-10
-36,-75,5
-128,-119,-42
-128,-28,62
-128,-11,49
-91,1,16
-56,17,0
-24,28,8
1,57,3
1,42,-8
-7,64,-12
-27,46,1
-31,25,29
-51,-4,35
-128,-28,48
-128,-7,64
-124,-20,78
-68,-37,38
-66,-33,23
-46,-38,7
-15,-44,-5
-6,-45,-10
-3,-47,-21
11,-41,-14
5,-34,-2
-128,-128,7
-128,-70,24
-128,-26,46
-75,6,40
-39,6,13
-47,10,-8
-45,54,3
-7,62,-3
0,58,-2
-5,56,4
-22,41,26
-30,24,37
-128,-6,51
-128,-2,78
-128,-9,97
-59,-24,56
-54,-18,7
-58,-22,-15
-32,-40,-25
23,-52,5
39,-67,10
12,-85,-46
-54,-83,-50
-128,-94,-18
-128,-62,17
-126,-19,63
-127,5,42
-86,5,15
-43,20,4
-32,33,0
-16,67,9
-8,62,12
-17,56,4
-18,55,12
-6,31,44
-45,12,35
-128,1,21
-128,-8,64
-123,-16,59
-61,-25,32
-37,-27,9
-35,-36,-3
-34,-42,-15
-26,-42,-20
-14,-57,-32
7,-50,-13
-6,-49,-3
-128,-97,-9
-128,-73,19
-128,-38,52
-86,15,57
-44,11,16
-34,23,-11
-46,37,-19
3,58,-13
17,63,-8
-22,21,-17
-39,45,33
-23,35,43
-95,-14,34
-128,-29,47
-128,-24,92
-76,-33,59
-82,-35,12
-68,-44,1
-32,-55,-11
10,-33,-5
22,-24,-4
34,-45,-17
16,-53,-7
-35,-48,4
-128,-111,-10
-128,-37,76
-128,-7,55
-88,-26,18
-44,0,7
-38,15,0
-33,44,-11
-12,52,-6
-18,49,-10
-45,57,2
-27,53,43
-20,47,44
-107,-3,-14
-128,-15,35
-128,-34,77
-112,-50,51
-67,-33,16
-46,-29,4
-17,-34,-5
-3,-43,-11
3,-49,-19
13,-68,-36
-2,-65,-21
-38,-77,-11
-128,-100,-43
-128,-45,1
-128,7,34
-95,21,10
-60,33,2
-26,57,-11
-28,71,-4
-5,69,4
-24,68,-2
4,57,29
0,44,32
-94,8,3
-128,-24,4
-128,-18,49
-115,-14,66
-59,-27,44
-52,-27,32
-29,-20,18
-4,-27,31
-13,-41,20
-22,-69,-3
-15,-49,-6
-21,-47,-2
-128,-123,-37
-128,-30,-13
-128,-4,25
-85,15,26
-39,15,-12
-21,30,-21
-13,80,-27
-23,52,-6
-13,38,-2
-5,39,2
-11,53,55
-54,52,67
-128,-10,-11
-128,-26,15
-128,-22,34
-66,-27,40
-49,-18,6
-39,-29,-5
-25,-48,-14
-18,-44,-6
-15,-51,-7
-28,-55,-20
-44,-49,-16
-78,-54,-9
-128,-91,7
-128,-42,9
-128,-1,9
-22,31,26
-13,9,4
-28,17,-7
-21,49,-4
-2,55,-4
-13,55,2
-39,38,31
-105,5,38
-128,-26,38
-128,-25,53
-128,-13,68
-51,-28,52
-51,-32,16
-50,-38,0
-21,-44,-10
2,-37,-8
4,-41,-8
-7,-51,-20
-23,-37,-4
-56,-51,5
-128,-105,15
-128,-37,42
-123,-13,40
-76,-13,23
-60,19,4
-47,44,-3
-7,72,8
-14,65,1
-33,58,-8
-42,44,-2
-2,27,34
-7,5,36
-128,-30,15
-128,3,31
-128,-5,70
-85,-35,45
-49,-40,15
-34,-40,9
-28,-42,-3
-14,-39,-2
-5,-43,-2
3,-48,-5
-20,-43,9
-89,-64,12
-128,-95,-3
-128,3,63
-91,16,61
-43,12,29
-34,6,19
-33,11,14
-34,34,-11
-30,53,-16
-35,59,-5
-6,55,17
-4,32,21
-27,23,26
-128,-37,32
-128,-2,84
-122,0,118
-74,-35,49
-77,-34,10
-76,-48,-6
-31,-56,-7
4,-54,-4
0,-63,-14
-6,-60,-16
-8,-52,-3
-121,-105,3
-128,-72,15
-128,-45,69
-96,17,80
-65,-8,34
-51,2,21
-48,45,-25
-23,81,-23
-9,94,-23
-17,62,-10
-28,45,12
-20,34,30
-30,-11,46
-128,-57,52
-128,-5,70
-89,-33,118
-72,-27,60
-77,-30,40
-55,-44,6
-20,-45,-12
-11,-51,-20
-3,-50,-21
-4,-26,16
-11,-20,30
-128,-128,0
-128,-78,9
-116,-47,50
-31,-23,62
-36,-32,11
-48,-21,-3
-67,14,-3
-24,55,3
-20,66,2
-23,46,20
-24,32,25
-23,21,33
-45,-23,40
-128,-44,35
-128,-12,39
-113,-40,98
-55,-38,67
-52,-40,48
-61,-41,10
-36,-57,-7
-23,-66,-10
-10,-83,-23
-1,-65,-22
-4,-46,7
-128,-128,-17
-128,-38,51
-128,3,80
-49,43,60
-16,37,45
-19,5,9
-70,63,-33
-44,84,-20
6,56,3
-6,50,7
-6,45,15
-13,26,33
-91,-23,30
-128,-26,29
-128,23,110
-118,-35,47
-89,-44,20
-59,-46,-10
-32,-63,-14
-12,-59,-7
11,-63,-11
13,-63,-18
11,-52,-8
-57,-73,9
-128,-103,5
-128,-53,94
-103,23,77
-33,24,19
-31,22,3
-2,54,21
4,48,-17
7,46,-22
-12,41,-5
-39,47,36
-31,35,59
-124,-15,56
-128,-40,74
-128,-23,107
-43,-23,89
-41,-21,43
-43,-36,25
-20,-44,19
-2,-30,12
-4,-35,1
-18,-50,-13
-34,-54,-14
-61,-54,5
-128,-95,46
-128,-35,74
-128,-7,59
-54,24,44
-30,-4,25
-43,8,11
-34,44,0
-10,55,-18
-3,52,-20
-12,55,-9
-27,54,1
-44,25,24
-128,-55,45
-128,-48,52
-128,-10,94
-67,-49,42
-74,-44,19
-57,-44,-13
0,-46,-15
23,-46,-12
35,-44,-22
33,-53,-19
11,-51,7
-128,-84,-4
-128,-45,75
-128,-11,106
-113,-13,58
-71,-9,25
-66,9,21
-54,38,5
-13,72,3
8,76,1
21,27,14
-23,47,14
-44,38,14
-111,-19,40
-128,-33,64
-128,-13,81
-102,-38,35
-80,-47,-11
-40,-48,-15
20,-56,-13
33,-35,-13
22,-34,-16
-2,-46,-19
-34,-38,-15
-60,-38,4
-128,-104,34
-128,-71,52
-128,-30,63
-79,17,59
-34,4,39
-40,-4,22
-66,16,-7
-31,54,4
-14,52,4
-10,66,-5
4,49,29
-11,30,31
-81,-18,38
-128,-61,28
-128,-33,55
-64,-25,73
-57,-29,46
-74,-34,10
-42,-47,0
-18,-43,-4
4,-48,-15
16,-65,-12
12,-57,-8
-39,-53,11
-128,-107,16
-128,-98,35
-128,-44,50
-128,-18,29
-83,-8,25
-42,22,16
-23,54,2
-14,68,3
-41,71,-18
-28,65,0
-19,50,18
-11,27,46
-86,-25,43
-128,-49,54
-128,-36,78
-77,-42,69
-70,-39,44
-70,-56,-4
-17,-62,-11
11,-47,-14
2,-55,-43
3,-47,-24
-1,-35,-4
-88,-36,30
-128,-108,52
-128,-78,75
-128,-10,94
-60,26,44
-32,10,20
-37,10,-8
-21,39,-7
-16,45,-7
-21,62,-12
-5,48,17
8,46,30
-21,26,34
-128,-18,44
-128,-26,64
-120,-18,91
-94,-34,34
-107,-42,8
-38,-45,-2
9,-46,-8
6,-43,-16
3,-42,-18
11,-49,-15
-9,-47,-13
-88,-74,13
-128,-103,36
-128,-77,64
-128,-10,63
-98,1,48
-53,12,16
-48,36,-5
-23,59,-1
-14,64,0
-5,57,1
-8,46,2
-29,29,24
-67,-5,47
-128,-15,55
-128,-2,72
-100,-19,63
-84,-29,40
-77,-38,0
-38,-58,-13
-16,-52,-9
4,-49,-11
1,-60,-28
5,-63,-27
-8,-69,-15
-128,-122,-36
-128,-90,-11
-128,3,47
-128,69,34
-74,63,27
-9,76,19
21,59,12
18,48,2
-14,51,-4
-26,35,5
-32,34,12
-49,11,16
-128,8,31
-128,8,42
-128,-31,43
-94,-33,28
-76,-30,23
-42,-38,-2
-13,-37,-9
-2,-33,-12
17,-45,-12
14,-53,-15
4,-50,-8
-89,-86,18
-128,-112,37
-128,-66,63
-121,-20,60
-56,-10,28
-39,-5,18
-38,9,-6
-46,58,-14
-31,66,-9
-7,64,-9
-18,52,-3
-10,41,26
-37,11,33
-106,-10,32
-128,-10,61
-128,-42,68
-109,-54,41
-77,-53,13
-47,-67,-5
-30,-62,-8
0,-54,-13
9,-61,-23
13,-54,-16
-7,-49,7
-128,-111,-23
-128,-92,-26
-128,-31,57
-80,19,52
-42,24,35
-19,17,10
-26,31,-13
-26,50,-20
-1,50,-19
-22,43,-12
-37,46,8
-30,32,51
-101,-13,37
-128,-30,30
-128,-19,80
-69,-34,59
-48,-33,41
-46,-38,9
-33,-42,-1
-12,-38,2
4,-40,-5
-5,-54,-17
-5,-62,-17
-40,-58,9
-128,-119,-2
-128,-79,22
-128,-3,55
-52,12,39
-30,17,23
-20,33,5
-23,56,-12
-18,47,-20
9,43,-14
-12,32,4
-51,46,22
-77,12,65
-128,-20,80
-128,-17,86
-104,-33,87
-53,-37,78
-37,-27,42
-38,-47,1
-37,-48,-12
-26,-56,-21
-15,-73,-31
1,-60,-26
11,-44,-1
-128,-128,11
-128,-111,-10
-128,-10,61
-66,31,61
-38,26,34
-23,29,1
-33,58,-18
-10,48,0
29,48,10
4,35,13
-23,40,24
-65,18,68
-128,-32,60
-128,-38,51
-128,-26,50
-87,-38,15
-82,-39,1
-25,-55,-10
10,-52,-10
13,-41,-11
5,-45,-17
2,-51,-16
-10,-53,-11
-128,-98,5
-128,-77,17
-128,-47,48
-96,-3,41
-60,6,14
-44,24,8
-13,51,-1
11,62,16
9,61,-11
-11,43,-4
-36,43,19
-29,34,38
-87,-2,42
-128,-50,36
-128,-32,72
-84,-44,59
-73,-40,18
-66,-44,4
-8,-51,-10
28,-45,-10
43,-32,-13
-6,-63,-32
-16,-68,-18
-91,-53,-1
-128,-91,-2
-128,-61,32
-128,-38,37
-76,1,40
-58,6,37
-65,13,22
-46,58,6
-22,76,4
-9,82,-41
-10,44,-11
-5,-10,-4
-47,17,32
-102,-58,43
-128,-56,55
-128,-26,83
-81,-44,45
-72,-40,20
-36,-47,-8
22,-49,-15
37,-51,-16
16,-39,-24
-28,-43,-19
-47,-43,-10
-94,-72,17
-128,-114,17
-128,-90,27
-128,-22,36
-39,3,27
-25,1,11
-37,16,-11
-48,57,-14
-42,55,-9
-17,40,-3
9,35,24
3,31,36
-59,-8,34
-128,-58,27
-128,-42,51
-111,-25,72
-62,-34,25
-53,-35,10
-32,-48,-10
22,-43,-4
41,-35,1
59,-37,-6
-70,-53,-67
-128,-78,-72
-128,-94,-41
-128,-71,-14
-128,-53,-10
-119,9,-1
-39,17,2
-28,19,-5
-35,43,-11
-23,59,-4
-11,63,-10
-14,45,7
-15,41,43
-33,29,47
-123,-38,38
-128,-59,38
-128,-24,51
-75,-38,35
-65,-34,18
-40,-49,-9
7,-53,-12
20,-31,-5
13,-33,-6
-3,-48,-20
-19,-51,-22
-99,-67,-6
-128,-107,-14
-128,-58,17
-128,3,37
-41,12,27
-28,16,14
-38,26,-3
-22,60,-2
2,62,0
20,49,1
-30,43,13
-55,39,24
-70,-12,46
-128,-41,42
-128,-28,43
-112,-33,52
-50,-39,24
-48,-41,10
-29,-35,-4
25,-22,4
18,-29,-5
-15,-52,-29
14,-67,-22
-10,-70,-12
-128,-114,-48
-128,-38,18
-128,-7,31
-61,1,21
-53,12,-4
-47,30,-6
-20,67,11
-8,76,-14
-11,49,1
-23,45,15
-22,33,44
-63,16,31
-128,-11,12
-128,-7,41
-128,0,46
-94,-41,18
-72,-32,11
-40,-47,-12
-8,-46,-3
-4,-45,-4
19,-51,-3
14,-48,-3
-5,-41,3
-120,-98,-7
-128,-85,-25
-128,-34,22
-121,11,32
-31,19,1
-12,30,-2
-14,42,-9
-19,50,7
-16,48,1
-28,64,-11
-26,58,28
-13,48,57
-102,7,40
-128,-44,26
-128,-26,83
-87,-27,74
-85,-43,18
-69,-43,6
-23,-39,-3
13,-30,-4
15,-35,-9
11,-52,-21
7,-49,-2
-25,-52,2
-128,-116,12
-128,-56,77
-128,-22,65
-61,28,34
-12,27,21
-10,17,6
-39,37,-25
-2,57,-13
9,58,-2
-10,42,17
-39,29,43
-60,6,48
-128,-58,47
-128,-3,108
-116,-14,83
-61,-30,35
-44,-22,19
-31,-25,8
4,-22,1
16,-22,1
9,-27,-6
-5,-46,-17
-53,-79,10
-128,-128,13
-128,-71,20
-128,-19,46
-25,28,56
-28,-25,8
-39,-20,-10
-33,33,-25
19,60,-22
10,66,-13
-26,52,-4
-30,47,51
-36,16,63
-128,-44,27
-128,-34,85
-95,-36,81
-69,-35,29
-56,-52,-12
-16,-58,-21
48,-52,-13
21,-29,-19
5,-40,-26
-45,-36,-6
-128,-38,15
-128,-63,21
-128,-37,25
-128,-6,41
-126,4,34
-59,30,11
-31,40,-6
-25,42,-13
-7,52,-13
-6,35,-11
-4,38,-9
-17,26,20
-55,26,55
-77,-7,60
-128,-31,60
-128,-13,71
-100,-35,53
-74,-40,14
-32,-51,-7
-10,-59,-12
22,-43,-7
20,-40,-9
10,-51,-14
-19,-57,-12
-128,-110,-3
-128,-102,-1
-128,-40,43
-89,7,35
-40,16,24
-17,19,0
-26,44,3
-24,53,6
-6,49,3
0,43,1
-7,37,13
-35,22,46
-64,2,56
-128,-41,29
-128,-26,79
-97,-38,68
-85,-40,18
-52,-58,-6
-21,-59,-10
31,-46,2
26,-34,-2
14,-36,-16
-19,-41,-22
-101,-51,15
-128,-87,26
-128,-64,18
-109,15,68
-68,26,59
-30,15,28
-39,20,5
-33,30,8
-17,51,19
-24,51,0
-25,63,-8
4,38,23
-18,9,55
-94,-12,62
-128,-20,76
-74,-32,89
-34,-35,71
-70,-44,8
-48,-61,-11
-9,-58,-7
45,-46,-12
40,-65,-35
34,-60,-28
-106,-30,64
-128,-102,53
-128,-59,49
-117,-32,72
-77,-13,39
-57,-2,23
-46,12,11
-59,39,10
-49,64,12
-7,80,10
23,61,8
15,52,13
-29,44,29
-59,-15,32
-127,-37,28
-128,-16,0
-128,-21,37
-70,-41,44
-60,-32,-4
-48,-41,-21
-11,-46,-28
2,-50,-24
9,-49,-21
33,-49,-14
-48,-102,-15
-128,-119,-51
-128,-46,20
-50,55,116
-21,53,94
-54,-12,10
-57,42,-17
-33,62,-15
17,57,-3
9,42,-5
-26,51,17
-53,44,25
-128,8,40
-128,-12,76
-128,12,96
-85,-25,46
-72,-39,27
-56,-44,2
-29,-55,-12
-8,-45,-4
2,-36,3
3,-56,-17
15,-54,-15
-42,-102,-8
-128,-79,-54
-128,-38,-14
-35,36,84
-22,6,29
-37,-5,-7
-51,19,-26
-6,22,-19
0,46,-5
8,53,2
-53,49,20
-69,45,35
-88,-15,58
-128,-40,31
-128,-37,41
-90,-40,51
-49,-38,19
-43,-49,1
-25,-47,-19
4,-42,-13
9,-37,-11
10,-48,-9
10,-51,-8
-75,-50,-8
-128,-108,-23
-128,-43,25
-116,-6,41
-33,23,37
-23,12,22
-30,8,-14
-25,47,-14
-20,70,-19
-8,45,-6
-30,52,4
-26,49,25
-64,13,53
-128,-37,15
-128,-31,43
-85,-34,66
-75,-40,24
-85,-40,4
-23,-46,-5
28,-38,-4
34,-28,-4
12,-42,-14
-6,-60,-15
-35,-66,-6
-128,-101,-14
-128,-70,24
-128,-56,33
-92,-24,34
-52,-12,16
-40,8,6
-27,48,-3
-19,61,12
-22,69,21
-30,50,12
-38,39,38
-56,28,41
-128,-11,31
-128,-26,44
-128,-35,39
-103,-36,22
-75,-39,4
-52,-34,1
-12,-29,-7
-11,-36,-15
-23,-35,-15
-30,-65,-12
-49,-69,-9
-85,-67,4
-128,-83,14
-128,-40,45
-128,-14,53
-84,18,55
-49,28,22
-33,31,4
-40,59,-10
-10,41,-8
-4,28,-10
-24,43,4
-30,46,27
-29,17,55
-109,-40,35
-128,-45,37
-120,-24,76
-99,-37,46
-86,-35,31
-46,-34,15
-35,-24,2
-47,-24,-3
-32,-47,-5
-28,-94,-22
-30,-84,-18
-47,-63,3
-128,-93,5
-128,-77,14
-128,-31,44
-107,23,44
-62,38,41
-30,44,12
-31,74,-13
-5,82,-14
3,37,-1
-49,48,10
-50,39,34
-43,-16,54
-128,-28,28
-128,-30,40
-128,-51,40
-92,-44,27
-66,-45,25
-22,-39,8
-6,-31,-1
-2,-33,0
-14,-64,-5
-34,-62,-6
-40,-51,-2
-124,-80,-2
-128,-64,-4
-128,-2,15
-108,47,42
-33,2,34
-37,11,14
-27,55,-2
6,68,1
11,53,-3
-7,54,-11
-35,45,14
-53,23,25
-128,-14,10
-128,4,71
-128,-19,66
-111,-38,30
-95,-38,24
-54,-44,8
-23,-63,-8
-17,-61,-14
-2,-68,-30
4,-48,-15
-10,-39,-8
-104,-72,-3
-128,-69,1
-128,-38,23
-128,-3,32
-67,-8,15
-48,-1,6
-19,33,-6
-6,66,-1
-19,63,-12
-32,33,-6
-25,34,16
-20,18,17
-63,-31,3
-128,-14,12
-128,-13,44
-128,-22,59
-120,-34,43
-100,-41,33
-40,-41,18
-23,-56,-6
-21,-67,-22
6,-75,-32
14,-51,-13
-11,-56,3
-128,-114,-8
-128,-47,78
-128,-26,78
-121,10,38
-48,32,15
-27,37,11
-21,46,-15
-11,63,9
-12,43,9
-20,37,27
-11,19,60
-48,-6,55
-128,-10,58
-119,-16,82
-108,-26,63
-100,-28,24
-54,-31,5
-38,-33,-4
-25,-31,-3
-26,-40,0
-37,-60,-11
-50,-81,-17
-52,-64,-7
-115,-79,12
-128,-68,4
-128,-47,13
-122,-2,29
-55,33,4
-39,48,-6
-24,87,11
-5,53,-11
-19,45,-6
-36,46,4
-40,43,29
-43,26,43
-115,-8,33
-128,-18,51
-128,-32,52
-100,-41,43
-63,-40,22
-48,-43,12
-28,-46,-3
5,-36,-3
15,-33,-3
8,-40,-5
-24,-54,13
-84,-78,26
-128,-88,26
-128,-58,43
-125,-35,38
-55,-3,24
-25,1,7
-36,6,-9
-44,50,-14
-22,61,-3
-20,43,5
-23,41,29
-48,29,34
-73,7,31
-128,-51,31
-128,-27,62
-102,-29,68
-65,-44,16
-29,-44,2
6,-49,4
31,-38,-4
23,-25,-17
27,-32,-15
-15,-19,2
-128,-41,4
-128,-93,5
-128,-66,52
-123,-7,43
-66,3,42
-30,3,26
-32,5,0
-28,30,-4
-11,58,-6
2,56,-4
-8,52,-9
-30,42,16
-44,27,22
-128,-15,37
-128,-19,59
-128,-15,69
-86,-44,36
-54,-44,4
-26,-53,-6
15,-46,-17
36,-32,-21
19,-23,-23
-46,-15,-11
-70,-33,32
-128,-62,34
-128,-46,28
-128,0,64
-110,24,53
-40,21,30
-42,9,1
-43,21,-12
-13,54,-18
10,34,-5
-5,42,-9
-18,47,9
-57,31,32
-97,11,39
-128,-17,66
-126,-11,73
-68,-15,57
-55,-37,16
-45,-56,-12
-21,-57,-15
19,-52,-6
17,-48,6
1,-53,0
-83,-46,27
-128,-74,47
-128,-50,67
-128,9,83
-33,55,50
-26,32,28
-20,6,7
-24,28,-9
-21,30,-10
-17,41,-7
-33,43,2
-27,40,19
-23,23,53
-127,-33,39
-128,-49,33
-128,-22,67
-35,-42,53
-40,-41,24
-36,-61,-17
-1,-61,-13
9,-26,6
-25,-39,-13
-35,-48,-15
-60,-39,-1
-128,-56,26
-128,-66,35
-128,-36,64
-71,11,53
-38,10,48
-28,-3,19
-24,10,-3
-28,23,-10
-20,45,-14
-27,41,-5
-42,50,16
-23,30,30
-60,-5,41
-128,-24,59
-128,-25,90
-57,-31,83
-30,-32,63
-57,-29,15
-37,-45,-8
-17,-42,-7
8,-31,-2
-8,-39,-9
-18,-47,-16
-68,-63,-4
-128,-128,1
-128,-90,13
-123,-13,38
-33,11,27
-33,-4,8
-46,11,-16
-22,46,-2
-3,44,-4
11,49,-9
-16,53,13
-32,52,38
-122,17,36
-128,-61,39
-128,-35,54
-101,-37,46
-57,-38,14
-26,-41,4
8,-55,-13
11,-34,-7
9,-24,-2
-17,-28,-8
-53,-35,-9
-70,-32,1
-128,-94,20
-128,-77,27
-128,-2,58
-39,23,49
-29,-1,26
-47,-5,-13
-11,28,-6
12,35,-2
10,39,0
-26,40,3
-37,43,16
-54,32,39
-114,-16,33
-128,-38,33
-128,1,68
-61,-19,52
-55,-32,29
-56,-58,-7
-15,-42,-3
7,-30,1
20,-21,-1
2,-33,-7
-13,-32,-1
-78,-45,13
-128,-101,31
-128,-61,67
-120,-1,55
-43,23,37
-30,8,26
-37,4,-4
-23,41,-16
2,45,-5
0,31,-6
-33,56,0
-32,47,13
-62,13,41
-128,-32,30
-128,-10,43
-104,-1,68
-70,-28,25
-63,-30,19
-32,-21,15
-5,-13,9
1,-17,2
-23,-38,-15
-9,-50,-20
-1,-55,-15
-128,-110,-8
-128,-56,20
-128,-18,57
-104,15,55
-80,-1,42
-75,5,18
-35,61,-5
-16,87,-5
9,63,-17
-13,47,-19
-25,35,8
-31,20,30
-82,-40,45
-128,-47,25
-128,-5,73
-77,-41,50
-59,-41,30
-48,-50,-4
-9,-49,-8
15,-44,-7
10,-50,-15
-21,-70,-33
-17,-63,-16
-128,-83,26
-128,-69,32
-128,-47,50
-88,10,47
-35,-2,21
-31,-7,5
-26,29,-18
-4,56,-23
-6,66,-10
-17,51,-8
-35,41,32
-40,28,39
-123,-32,13
-128,-13,36
-128,1,69
-89,-22,51
-50,-32,30
-44,-40,21
-37,-41,10
-15,-38,5
-13,-44,-2
-4,-49,-5
-19,-48,2
-68,-61,4
-128,-96,-8
-128,8,40
-116,42,41
-18,34,29
-28,22,-18
-19,41,-34
6,40,-5
-11,40,-3
-29,47,-6
-23,40,27
-54,7,39
-128,2,30
-128,4,43
-128,-17,53
-114,-33,40
-65,-43,19
-50,-45,9
-28,-36,-2
-3,-34,-6
1,-39,-10
7,-47,-14
0,-51,-3
-128,-128,-33
-128,-115,-33
-128,-38,59
-128,-11,38
-95,34,-1
17,95,10
28,88,2
-11,53,-22
-43,53,-13
-39,39,-1
-3,30,37
-52,5,25
-128,-3,20
-128,-4,95
-128,-12,71
-125,-27,51
-84,-61,12
-45,-73,-12
-13,-55,-8
27,-39,-7
23,-36,-8
7,-28,-4
-31,-39,18
-128,-103,1
-128,-62,29
-123,-21,52
-58,-16,30
-66,-24,4
-38,4,1
-13,20,-10
-18,31,-7
-35,52,-3
0,56,17
4,49,29
-35,31,34
-128,-19,13
-128,-35,26
-128,-4,45
-91,-42,-2
-83,-45,-11
-40,-46,-12
9,-40,-7
20,-35,-7
19,-41,-17
17,-62,-26
8,-65,-27
-128,-87,-32
-128,-126,-59
-128,-51,-9
-128,-6,-7
-119,22,-6
-45,64,-8
-7,65,-5
-17,44,-34
4,43,-9
-23,37,-12
-38,41,-4
-46,26,33
-94,-9,47
-128,-25,16
-128,-28,34
-76,-42,42
-65,-35,25
-56,-39,-7
-18,-50,-15
3,-47,-11
18,-39,-16
11,-43,-18
6,-48,-12
-45,-70,-3
-128,-115,-24
-128,-73,22
-128,2,42
-35,34,31
-18,29,24
-39,28,-16
6,46,-6
15,46,2
-12,37,-5
-31,41,17
-24,29,36
-123,8,55
-128,5,123
-128,13,111
-85,-22,40
-64,-38,7
-57,-44,-1
-26,-47,-3
2,-41,-6
5,-43,-9
1,-48,-15
-15,-40,1
-53,-47,18
-128,-115,22
-128,-22,68
-113,4,61
-62,12,28
-41,22,6
-34,41,0
-28,53,-4
-26,45,-18
-22,37,-13
-18,51,13
-30,33,40
-73,12,33
-128,-23,48
-128,-26,61
-83,-14,74
-50,-42,21
-64,-51,-5
-37,-72,-19
19,-48,0
26,-37,2
9,-43,-15
-10,-39,-11
-44,-43,1
-128,-75,30
-128,-32,39
-128,-7,44
-48,0,40
-34,-4,6
-36,2,-7
-39,27,-22
-21,45,-14
-13,40,-15
-28,59,6
-13,38,39
-40,22,39
-128,-10,24
-128,-29,68
-81,-28,67
-40,-37,32
-55,-48,-2
-44,-59,-6
0,-50,-4
12,-32,-7
7,-38,-10
-10,-39,-10
-77,-56,13
-128,-107,-4
-128,-27,3
-97,31,38
-26,25,43
-7,-7,5
-34,15,-18
-45,40,-15
-35,43,-12
-26,40,-8
-15,41,6
2,37,47
-65,-3,20
-126,-36,4
-128,-39,8
-118,-22,53
-76,-25,43
-41,-27,14
-14,-40,-8
-13,-49,-15
1,-40,-7
10,-44,-4
-1,-47,-10
-35,-55,4
-73,-87,6
-128,-96,35
-128,33,59
-98,53,42
-39,6,4
-17,19,3
-10,34,5
12,43,2
17,29,-9
6,45,-4
-29,53,24
-100,33,52
-128,3,58
-128,-18,55
-125,-20,53
-86,-26,45
-38,-26,29
-29,-40,9
-32,-39,2
-25,-32,-2
-21,-47,-13
-20,-54,-19
-15,-46,-5
-104,-84,10
-128,-97,-14
-128,-3,39
-65,18,46
-34,10,18
-28,18,-15
-13,42,-8
3,45,6
12,45,-14
-8,49,-11
-19,47,6
-49,23,35
-128,-24,31
-128,-35,35
-128,-16,54
-74,-28,33
-58,-26,20
-32,-37,-8
7,-49,-10
16,-46,-9
12,-43,-11
5,-46,-9
-6,-46,-10
-128,-119,-14
-128,-128,-29
-128,-22,32
-75,30,43
-19,23,34
-21,16,-15
-23,57,-5
-10,46,-10
17,42,-4
-8,47,-9
-31,43,1
-52,21,36
-122,-46,32
-128,-58,5
-128,-6,33
-67,-28,34
-47,-34,-8
-39,-43,-28
4,-57,-31
24,-55,-21
20,-48,-6
-3,-45,-10
-22,-45,-15
-128,-58,-14
-128,-59,15
-128,-43,47
-113,3,29
-28,22,13
-13,9,4
-14,7,-19
0,47,-17
16,70,-19
18,52,-1
-25,51,15
-59,48,33
-128,10,61
-128,-9,85
-128,9,85
-101,-25,36
-83,-31,-4
-55,-36,-18
-14,-55,-28
19,-34,-27
25,-32,-28
19,-38,-19
-32,-44,-8
-108,-79,-17
-128,-98,17
-128,-27,76
-86,-5,63
-49,5,16
-10,17,4
3,18,-2
12,30,0
4,48,-9
-34,44,-18
-43,40,12
-40,26,36
-84,2,23
-128,-51,8
-128,-35,38
-78,-26,74
-43,-35,41
-50,-33,19
-40,-46,-14
-15,-34,-15
-6,-26,-9
-1,-24,-10
-5,-47,-23
-15,-52,-16
-128,-107,-19
-128,-28,25
-128,-11,41
-106,2,23
