1566439818.000000, 1566439818.000000, 1566439818.000000
32.000000, 32.000000, 32.000000
-128,116,-56
-128,38,-22
-87,35,-24
-41,31,-10
18,28,1
34,43,5
47,45,7
50,53,5
-3,57,-3
-33,61,0
-101,62,7
-128,55,-14
-128,46,-40
-128,24,-4
-120,6,-1
-55,-10,4
-6,-30,9
8,-33,6
14,-33,-3
10,-45,-10
-13,-39,-14
-72,-13,-13
-103,-15,-6
-128,-21,-19
-128,39,-40
-128,28,-22
-119,9,-25
-67,15,-15
1,0,-13
26,9,-14
55,32,-6
51,59,-15
13,69,-3
-25,72,12
-108,64,16
-128,51,14
-128,47,-16
-128,26,8
-128,11,12
-75,-5,-1
-25,-23,1
-6,-24,6
23,-28,3
19,-43,-11
0,-47,-13
-58,-29,-12
-82,-7,-2
-111,-8,-3
-128,28,-61
-128,40,-29
-128,15,-29
-77,29,-12
-16,17,2
10,25,2
47,30,0
56,41,6
51,47,5
-7,62,-1
-79,63,19
-106,59,17
-128,96,-2
-128,57,8
-128,40,11
-81,13,4
-30,-29,0
-25,-38,-3
0,-30,3
11,-36,3
-6,-43,-2
-53,-24,-12
-63,-3,5
-86,-1,5
-128,6,-57
-128,47,-45
-128,31,-30
-89,28,-24
-53,22,-17
19,24,-3
63,34,3
64,37,-1
45,67,-3
-10,78,-5
-41,74,-2
-122,59,3
-128,72,-11
-128,63,7
-125,32,31
-80,5,-11
-64,-19,-9
-28,-43,1
-10,-39,-9
-8,-44,-10
-17,-46,-11
-59,-30,-10
-66,-16,-5
-98,11,3
-128,39,-31
-128,80,-15
-128,48,-4
-89,43,-9
-50,29,-5
9,18,-3
38,27,-6
47,30,-6
51,47,0
14,67,-1
-11,74,3
-94,65,23
-128,73,-10
-128,83,1
-128,33,8
-97,7,-6
-61,-7,-3
-25,-33,-2
-9,-36,0
-5,-38,2
-23,-39,-2
-61,-29,-13
-70,-17,-8
-83,-2,6
-128,15,-33
-128,74,-29
-128,68,0
-128,37,-14
-47,32,-5
5,19,-8
30,27,-10
55,32,-7
56,42,-9
46,58,-11
5,71,-12
-77,81,5
-128,88,-12
-128,111,1
-128,59,23
-123,40,21
-63,-4,3
-47,-43,-5
-34,-46,-2
-4,-45,3
-10,-53,-9
-29,-46,-13
-61,-19,-15
-78,5,-2
-128,5,-20
-128,67,-68
-128,91,-16
-122,49,-21
-61,44,-21
10,36,-4
40,36,0
58,37,2
62,50,0
47,61,-2
-6,82,-6
-70,67,9
-107,63,1
-128,88,-20
-128,47,-16
-128,25,-12
-85,-3,-4
-33,-36,-1
-23,-44,-2
-1,-39,-3
3,-44,-4
-11,-47,-8
-53,-23,-16
-65,6,0
-82,8,-2
-128,25,-90
-128,117,-2
-110,47,-6
-92,19,-24
-14,17,6
9,11,9
33,33,3
39,38,3
48,45,7
-5,71,-9
-49,77,-14
-101,51,-8
-128,69,-31
-128,58,-25
-128,22,3
-73,-5,2
-42,-23,7
-18,-39,3
10,-35,4
12,-42,1
-27,-45,-12
-59,-18,-10
-61,-6,1
-128,-16,-14
-128,36,-31
-128,71,-14
-128,31,-27
-47,23,-11
-6,23,-3
46,22,-2
59,32,-8
60,47,-11
19,67,-18
-58,80,-9
-88,77,7
-128,64,-15
-128,64,-18
-128,43,0
-106,8,7
-46,-23,1
-31,-36,-2
-10,-46,3
17,-46,12
14,-54,2
-27,-37,-9
-49,-4,7
-65,-6,5
-128,-29,-37
-128,57,-34
-128,50,-25
-98,26,-38
-15,23,-12
1,17,-6
33,28,-7
50,29,-12
47,41,-14
28,69,-14
-24,67,-13
-63,65,-10
-128,54,-53
-128,82,-52
-128,62,-6
-128,11,-20
-83,-12,-17
-29,-54,-12
8,-35,10
2,-30,5
-10,-45,-17
-13,-36,-13
-40,-23,-14
-78,-8,-16
-128,-4,-29
-128,38,-55
-128,70,-31
-98,24,-25
-60,24,-12
-18,5,-12
12,31,-16
32,33,-15
78,38,-4
33,66,-4
-13,73,-11
-68,64,11
-128,55,19
-128,83,-3
-128,40,13
-99,5,8
-50,-22,0
-34,-33,-2
0,-32,6
9,-33,4
11,-45,-6
-18,-33,-11
-48,-23,-16
-98,-1,-9
-128,4,-34
-128,42,-70
-128,45,-30
-103,26,-30
-63,36,-17
6,26,1
53,40,11
68,40,15
59,46,12
18,72,-2
-16,78,2
-94,72,8
-128,50,-29
-128,79,-24
-128,39,15
-94,-9,-5
-56,-9,2
2,-28,10
11,-35,7
16,-28,5
17,-36,-3
-12,-32,-11
-49,-24,-11
-119,-6,-7
-128,-5,-35
-128,22,-57
-128,42,-31
-128,10,-33
-75,22,-16
-6,21,0
27,26,1
56,35,4
58,45,4
46,56,0
-5,74,-8
-92,69,10
-128,62,3
-128,84,-6
-128,44,14
-128,29,18
-71,5,5
-26,-32,4
-20,-39,1
9,-32,-1
17,-39,-2
0,-37,-9
-47,-22,-24
-87,-2,-16
-128,5,-32
-128,53,-71
-128,87,-31
-128,43,-31
-63,26,-20
2,19,-5
29,19,3
61,23,4
66,35,-4
55,52,-8
-8,90,-6
-100,91,10
-128,82,-6
-128,70,-16
-128,39,13
-117,16,13
-64,-9,-8
-24,-30,-4
-11,-38,0
14,-35,1
22,-46,-9
6,-48,-13
-51,-24,-14
-89,-2,-4
-124,-5,-16
-128,47,-63
-128,93,-5
-125,62,4
-70,36,-11
-47,25,-19
3,26,-8
42,33,-2
64,41,5
65,56,7
6,84,-10
-22,81,9
-94,79,14
-128,106,-44
-128,83,-14
-109,31,11
-68,-10,-24
-55,-27,-24
-14,-46,-14
6,-47,-6
13,-50,-4
7,-46,-14
-55,-16,-22
-96,5,-17
-128,26,-18
-128,68,-62
-128,115,-55
-119,51,-22
-50,31,-6
-21,16,-2
17,15,0
38,27,0
51,30,3
53,39,5
4,69,-9
-39,78,-15
-122,81,-17
-128,72,-26
-128,68,-30
-124,35,5
-51,-10,0
-42,-32,-6
-30,-46,-10
5,-40,-3
9,-50,-8
-31,-39,-22
-65,-6,-17
-63,9,-5
-128,11,-37
-128,121,-57
-128,117,-26
-91,26,-13
-45,20,-13
-12,19,-4
41,29,7
64,28,7
66,34,7
20,59,-10
-18,68,-9
-86,64,5
-128,46,-16
-128,49,-34
-128,55,-6
-95,11,0
-67,3,-7
-40,-23,-9
-7,-31,2
10,-29,5
18,-36,1
-24,-35,-14
-56,-21,-22
-74,-3,-13
-128,-18,-8
-128,11,-30
-128,104,-5
-106,21,1
-67,24,-2
-23,16,-7
33,29,1
58,30,9
70,33,13
25,66,-13
-15,79,-19
-69,69,-1
-128,60,-10
-128,77,-22
-128,58,9
-103,3,16
-69,-12,8
-37,-40,5
-12,-49,14
2,-48,13
4,-48,1
-54,-20,-11
-77,-3,-6
-66,9,11
-128,-7,-31
-128,22,-66
-128,67,-37
-96,22,-28
-67,18,-25
0,18,-9
41,26,2
50,30,2
60,49,8
10,73,2
-36,77,2
-105,56,5
-128,63,1
-128,63,-13
-128,23,0
-89,8,3
-52,-2,7
-25,-28,1
-3,-31,1
7,-33,3
-3,-44,-6
-27,-35,-14
-68,-4,-21
-94,1,-5
-128,-2,-24
-128,63,-54
-128,42,-23
-99,27,-17
-56,21,-13
-5,18,-5
19,26,2
46,31,11
49,39,8
30,47,6
-44,60,-5
-118,60,-9
-128,48,-13
-128,35,-39
-128,29,-4
-102,4,-1
-48,-19,-4
-20,-34,-1
-2,-37,3
22,-37,7
11,-45,-1
-8,-37,-3
-75,-14,-24
-109,-2,-9
-128,-1,-30
-128,56,-56
-128,25,-38
-113,19,-36
-63,27,-18
1,25,-4
25,32,3
46,33,10
40,46,4
16,58,1
-58,72,6
-110,61,0
-128,47,-17
-128,27,-33
-128,24,-3
-103,12,2
-49,-14,2
-25,-37,0
-12,-39,1
9,-45,3
-6,-48,-7
-37,-39,-20
-90,-4,-29
-87,7,-8
-128,8,-46
-128,73,-51
-128,64,-33
-99,25,-26
-40,22,-15
-3,24,-2
36,30,6
50,34,8
38,55,7
15,62,-1
-48,61,-6
-77,49,-1
-128,34,-32
-128,27,-46
-128,20,-22
-110,3,-17
-38,-18,-2
-21,-33,-3
5,-45,-1
20,-46,0
15,-48,-3
-31,-32,-22
-91,-11,-30
-106,-5,-22
-128,17,-78
-128,71,-44
-128,28,-50
-92,30,-40
-37,12,-15
-8,14,-12
39,37,0
60,30,5
59,38,3
26,54,-10
-40,61,-3
-100,59,-19
-128,48,-46
-128,61,-20
-128,52,-3
-111,15,-8
-38,-10,2
-19,-23,9
-1,-30,9
5,-37,4
-5,-42,-1
-39,-25,-6
-48,-14,-4
-65,-17,-7
-128,0,-65
-128,77,-67
-128,72,-52
-104,15,-52
-59,20,-34
2,37,9
38,39,20
49,39,20
47,54,22
-2,74,-1
-43,75,-11
-100,51,-3
-128,41,-52
-128,32,-39
-128,23,-27
-89,4,-7
-60,-5,-2
-21,-29,4
7,-32,6
19,-33,3
11,-45,-7
-49,-27,-18
-69,-13,-24
-73,2,-8
-128,-14,-59
-128,25,-75
-128,56,-35
-100,9,-29
-61,18,-12
2,18,6
40,26,11
50,26,10
53,43,4
1,69,-7
-46,81,-12
-128,70,-22
-128,53,-35
-128,35,-28
-128,11,3
-63,-11,0
-41,-22,0
-9,-34,1
21,-31,2
27,-33,1
-2,-39,-12
-56,-18,-24
-64,-8,-17
-80,-12,1
-128,-2,-76
-128,60,-60
-128,35,-19
-91,13,-27
-51,20,-12
18,15,9
44,20,8
50,24,7
35,42,-4
15,57,-7
-53,79,-4
-115,57,-3
-128,37,-30
-128,27,-29
-128,18,8
-105,10,4
-29,-17,-1
-1,-37,-5
7,-35,-6
22,-34,-6
7,-41,-11
-24,-33,-17
-83,-12,-27
-98,-3,2
-128,-4,-28
-128,84,-61
-128,31,-9
-101,14,-16
-45,13,-15
17,16,-2
36,24,3
55,29,7
46,50,0
18,64,-10
-63,72,-15
-99,49,11
-128,35,-22
-128,32,-37
-128,13,9
-101,1,-5
-45,-20,-9
-6,-39,0
12,-35,4
30,-35,0
4,-39,-16
-24,-29,-19
-62,-3,-10
-92,-5,-7
-128,-8,-38
-128,79,-40
-128,40,-11
-128,18,-24
-54,14,-6
5,8,2
20,18,0
45,24,0
68,31,4
55,44,-4
-34,76,-32
-83,65,-5
-113,49,-23
-128,62,-40
-128,40,17
-128,20,10
-61,-6,-3
-24,-37,0
-21,-41,-2
12,-33,-3
21,-37,-6
-14,-45,-25
-46,-22,-20
-46,-12,-11
-109,-21,-17
-128,-2,-64
-128,60,-49
-128,56,-3
-84,18,-20
-52,30,-11
18,29,7
42,31,8
43,35,0
48,52,-8
10,76,-7
-20,75,-1
-105,65,-1
-128,67,-14
-128,46,-17
-128,17,3
-95,-2,-5
-56,-17,-5
-15,-44,-5
2,-47,-11
11,-48,-12
5,-51,-14
-37,-24,-19
-57,-11,-15
-102,0,-10
-128,-4,-49
-128,49,-71
-128,80,-22
-91,19,-20
-61,24,-14
-3,17,0
40,36,15
49,37,16
62,37,8
23,52,-4
-4,56,-8
-68,64,7
-128,72,-15
-128,90,-14
-128,57,-4
-111,22,2
-79,3,-3
-38,-34,-10
-7,-37,-6
9,-37,-6
12,-47,-14
-20,-41,-27
-37,-29,-26
-68,-13,-16
-106,-23,-24
-128,8,-76
-128,121,-21
-128,67,-9
-76,31,-15
-15,33,-1
14,25,6
46,26,6
52,37,9
52,38,9
-4,63,-6
-93,72,-14
-100,60,1
-128,47,-26
-128,43,-29
-122,15,-6
-89,0,-8
-46,-34,-12
-33,-44,-12
0,-48,-11
22,-53,-16
15,-57,-21
-29,-33,-31
-61,-3,-27
-96,-3,-19
-128,28,-92
-128,97,-27
-123,39,-13
-87,30,-28
-23,41,1
11,48,15
49,49,21
50,56,15
44,61,10
3,61,1
-79,69,10
-121,71,2
-128,73,-7
-128,54,-2
-128,33,2
-83,-3,-8
-34,-31,-21
-17,-39,-20
6,-38,-16
11,-48,-28
3,-47,-35
-31,-30,-42
-55,-13,-30
-93,-18,-33
-128,30,-92
-128,127,-68
-128,61,-4
-95,51,-24
-14,48,-4
22,44,-2
54,45,4
52,42,-3
54,52,-1
21,61,-11
-4,67,-13
-107,77,1
-128,82,-1
-128,86,-7
-128,48,15
-92,15,13
-57,3,-1
-30,-37,-22
-14,-58,-17
-2,-58,-10
-4,-62,-13
-42,-31,-25
-76,-11,-36
-93,12,-14
-128,2,-65
-128,61,-100
-128,111,-18
-85,30,-26
-58,40,-22
12,32,-3
44,42,-1
49,48,2
53,59,9
30,67,-7
-7,72,-15
-103,73,-3
-128,82,-17
-128,85,-37
-128,47,-12
-99,8,-13
-62,-11,-13
-19,-38,-7
-3,-45,-2
7,-44,-1
15,-44,-9
-37,-33,-14
-60,-20,-11
-93,-4,-13
-128,-6,-52
-128,43,-69
-128,69,-29
-89,24,-23
-56,30,-14
0,24,1
43,42,8
52,43,7
59,56,7
26,69,-16
-20,80,-17
-111,76,11
-128,61,-6
-128,85,-30
-128,19,10
-103,1,0
-62,-11,-8
-14,-34,4
0,-37,4
18,-42,-5
9,-44,-7
-14,-36,-5
-73,-18,-9
-100,-10,-13
-128,-15,-14
-128,35,-27
-128,75,-9
-128,43,-14
-67,33,-11
-7,24,1
15,28,-1
46,34,0
60,34,8
55,41,4
-12,69,0
-102,75,23
-126,64,20
-128,71,0
-128,54,6
-128,36,19
-65,-2,8
-20,-31,4
-15,-40,3
4,-42,-2
8,-46,-6
-7,-44,-7
-43,-26,-11
-57,-13,-3
-86,-20,-5
-128,-4,-48
-128,104,-32
-128,77,-8
-91,26,-18
-35,28,-13
-5,27,-9
43,30,5
53,37,-3
51,42,-5
22,69,-7
-48,74,7
-85,69,8
-128,66,-25
-128,58,-8
-128,42,-3
-101,4,-21
-69,-18,-19
-23,-46,-13
3,-40,-5
4,-47,-6
-10,-51,-9
-42,-30,-22
-71,-16,-33
-99,-3,-17
-128,4,-94
-128,65,-108
-128,69,-33
-73,19,-30
-42,22,-17
24,25,-5
55,42,2
61,46,2
60,49,1
10,63,-16
-27,72,-10
-116,85,4
-128,77,-43
-128,62,-34
-128,27,11
-70,-1,-4
-46,-10,-9
-21,-23,-1
12,-24,2
28,-35,-5
9,-67,-22
-65,-37,-30
-85,-19,-26
-112,-12,-6
-128,4,-84
-128,71,-62
-128,51,-17
-89,40,-28
-45,42,-18
25,33,-1
53,46,2
64,44,3
52,57,-3
1,77,-10
-30,76,-2
-108,63,4
-128,74,-22
-128,65,-17
-128,31,2
-102,1,-9
-61,-12,-9
-17,-45,-14
7,-41,-18
18,-43,-19
10,-53,-20
-12,-46,-21
-58,-18,-22
-110,-6,-15
-128,-10,-59
-128,60,-57
-128,83,-6
-118,30,-15
-59,33,-10
-1,23,8
24,28,14
50,26,11
53,30,5
38,42,-4
-2,75,-7
-88,83,6
-128,74,-12
-128,89,-9
-128,44,2
-128,23,-3
-54,-8,-4
-15,-39,-1
-5,-42,-3
18,-38,-3
-1,-45,-11
-24,-39,-20
-54,-13,-17
-68,0,2
-110,-13,-15
-128,2,-80
-128,78,-24
-128,45,-20
-80,18,-32
-9,26,-8
23,26,0
51,25,4
52,42,1
42,52,-2
1,74,2
-97,79,-4
-128,78,-18
-128,56,-24
-128,48,-12
-128,26,-4
-71,2,-11
-27,-28,-5
-13,-38,-3
13,-39,1
21,-44,-1
3,-44,-5
-60,-26,-18
-85,-4,-5
-110,-9,-5
-128,5,-59
-128,91,-27
-128,57,-8
-78,14,-25
-17,19,-14
15,23,-7
56,28,1
63,28,-2
47,49,-16
-9,73,2
-41,83,18
-113,82,-1
-128,66,-15
-128,69,1
-128,29,12
-68,-4,-3
-47,-22,-2
-24,-38,0
12,-36,0
15,-44,-4
-17,-50,-11
-58,-29,-17
-55,-20,-13
-92,-12,-10
-128,11,-57
-128,89,-45
-128,64,-7
-90,21,-28
-48,24,-16
25,26,-1
47,34,2
55,35,0
52,53,-3
4,66,-6
-34,68,4
-128,61,8
-128,56,-13
-128,51,-6
-128,25,11
-69,-1,0
-39,-12,-1
-19,-32,-6
14,-35,-1
23,-41,-2
12,-49,-5
-43,-20,-6
-71,-5,-6
-128,-6,-10
-128,28,-50
-128,87,-39
-128,48,-11
-75,20,-24
-43,21,-19
21,21,-3
51,26,-2
60,31,-5
54,42,-11
9,64,-9
-32,74,0
-120,65,11
-128,63,3
-128,65,4
-128,42,15
-116,29,8
-54,-7,-4
-27,-37,-5
-15,-43,-4
0,-41,-5
-7,-46,-9
-26,-42,-15
-59,-22,-15
-74,-11,5
-128,-27,-16
-128,41,-69
-128,91,0
-111,37,-1
-69,22,-25
-3,30,-11
29,33,-4
51,41,-6
57,56,-8
44,61,-8
-4,75,-4
-93,68,7
-128,58,-6
-128,89,5
-128,47,15
-118,27,14
-50,-11,4
-37,-38,-8
-24,-42,-8
10,-49,-3
-5,-56,-7
-33,-45,-12
-67,-16,-11
-97,-11,-6
-128,-22,-26
-128,70,-68
-121,99,2
-87,44,-6
-53,25,-24
27,34,-5
52,36,2
63,37,2
59,52,-4
44,63,-16
5,75,-12
-112,94,5
-128,109,-10
-128,106,2
-128,77,6
-128,27,-5
-62,-22,-4
-39,-36,-3
-21,-46,0
-3,-43,-5
-3,-43,-7
-29,-38,-14
-50,-15,-9
-53,-2,-1
-125,-4,-22
-128,51,-52
-128,110,-24
-128,39,-23
-71,28,-19
-40,28,-12
20,31,-3
51,35,-1
59,37,-2
57,56,-4
6,76,-10
-39,84,3
-124,88,-1
-128,94,-15
-128,76,-22
-128,36,-10
-63,-3,-10
-37,-21,-7
-27,-49,-17
-1,-45,-6
1,-48,1
-32,-46,-12
-69,-18,-17
-60,-7,-2
-99,-25,-10
-128,29,-82
-128,108,-40
-127,54,-20
-75,33,-27
-27,31,-19
38,33,-14
70,46,-9
76,47,-7
47,64,-13
-15,74,2
-53,75,18
-128,79,13
-128,81,-2
-128,73,-5
-128,25,-12
-53,-9,1
-27,-22,6
-12,-34,6
-8,-32,2
-10,-43,-14
-26,-60,-26
-35,-50,-31
-68,-19,-31
-103,-24,-34
-128,33,-84
-128,92,-58
-112,39,-21
-75,14,-21
-31,19,-20
37,38,3
54,40,7
64,48,1
33,66,-10
5,77,-8
-63,93,30
-128,98,-8
-128,109,-15
-128,68,11
-87,16,8
-70,-6,-7
-36,-41,-11
2,-49,-4
14,-48,-4
-3,-51,-4
-62,-30,-11
-86,-17,-7
-95,-5,4
-128,-11,-58
-128,45,-65
-128,82,-21
-70,18,-29
-41,27,-22
33,35,2
59,36,6
58,39,4
47,60,4
-11,81,6
-54,90,12
-114,79,9
-128,90,-3
-128,82,2
-127,41,16
-79,6,-3
-51,-9,-4
-12,-38,0
20,-42,-1
26,-43,-7
-6,-54,-18
-72,-19,-12
-86,0,-4
-105,-10,0
-128,-10,-52
-128,40,-35
-128,49,-24
-69,15,-26
-35,20,-19
29,29,-7
51,30,-5
56,39,-8
44,61,-9
28,72,-7
-59,86,16
-117,76,34
-128,92,16
-128,63,20
-128,34,28
-108,15,15
-42,-14,9
-18,-37,2
-7,-39,1
10,-44,-4
-32,-46,-17
-49,-35,-11
-69,-2,8
-128,-10,-8
-128,-6,-6
-128,62,-9
-128,23,-21
-97,12,-11
-44,17,-15
-4,38,-11
33,48,-1
68,51,7
37,54,3
18,63,7
-47,75,20
-124,60,20
-128,66,17
-128,75,26
-117,43,46
-69,24,40
-32,-7,4
-32,-38,-9
-1,-46,2
10,-63,2
-79,-52,-32
-87,-37,-29
-44,-10,2
-128,-22,-26
-128,-9,-38
-128,76,-9
-128,26,-29
-88,9,-31
-3,34,-15
43,39,-7
53,32,-7
52,46,-6
33,60,0
12,63,5
-78,75,27
-128,76,27
-128,78,6
-128,46,6
-128,38,11
-80,9,10
-22,-22,5
-13,-36,1
6,-44,-1
0,-46,-3
-26,-47,-12
-70,-22,-22
-59,-8,9
-110,-21,-5
-128,28,-65
-128,85,-7
-128,35,-23
-75,35,-23
11,28,-10
35,37,-11
53,44,-12
58,56,-8
48,69,-2
-13,71,9
-116,81,24
-127,73,32
-128,49,-1
-128,33,3
-128,24,19
-66,8,9
-26,-24,-4
-8,-36,-4
28,-40,-1
13,-56,-11
-16,-54,-22
-85,-25,-32
-74,-2,5
-111,-14,-11
-128,34,-80
-128,67,-17
-120,26,-24
-65,28,-23
9,21,-3
26,26,-2
52,44,-1
50,52,-3
33,60,-5
-29,75,0
-112,72,-2
-128,65,-1
-128,48,-24
-128,34,2
-117,24,12
-59,-7,5
-29,-34,-3
-13,-43,-2
7,-49,-4
7,-48,0
-32,-49,-13
-86,-18,-27
-80,-3,-13
-119,-3,-3
-128,64,-61
-128,99,-35
-102,29,-18
-61,20,-20
-31,18,-12
20,32,2
50,43,9
60,48,9
39,56,4
-49,73,0
-94,79,5
-110,58,5
-128,28,-51
-128,33,-37
-107,16,7
-60,-11,-2
-42,-27,-4
-6,-49,3
8,-43,5
-5,-51,-8
-45,-43,-24
-68,-6,-10
-63,4,-3
-100,-10,-23
-128,22,-77
-128,52,-50
-121,34,-22
-70,28,-13
-33,25,-5
33,33,14
47,30,14
44,40,12
-10,63,-1
-66,72,2
-69,59,17
-128,17,-27
-128,28,-22
-128,24,8
-99,-4,-10
-55,-40,-17
-26,-50,-9
14,-46,1
23,-49,-4
4,-50,-15
-56,-25,-24
-60,-7,-10
-67,-2,3
-128,-10,-54
-128,30,-38
-128,44,-9
-108,20,-20
-70,12,-12
-5,13,-6
36,31,-3
48,33,-3
45,53,-4
-15,70,-7
-48,72,-4
-95,30,2
-128,34,-21
-128,37,-14
-120,14,13
-91,-12,-13
-63,-29,-12
-15,-49,0
6,-37,1
4,-42,-2
-19,-48,-12
-61,-23,-16
-69,-13,-8
-122,-23,-13
-128,17,-45
-128,55,-22
-128,44,-17
-67,31,-17
-29,23,-9
15,27,-7
43,37,-1
50,42,-2
26,70,-3
-48,73,-9
-70,69,1
-112,34,9
-128,38,-33
-128,30,-10
-104,1,4
-64,-28,-13
-46,-43,-12
-6,-41,0
18,-31,11
6,-44,-1
-44,-41,-23
-41,-11,-1
-37,-7,9
-128,-21,-25
-128,42,-48
-128,64,-18
-128,28,-19
-101,37,-18
-21,21,-2
34,31,6
58,36,10
58,39,7
16,63,-14
-18,74,-16
-67,66,8
-128,46,-8
-128,56,-39
-128,33,-2
-103,6,10
-84,2,-2
-33,-30,-1
-1,-42,4
12,-38,7
15,-47,3
-40,-38,-11
-91,-12,-10
-89,-2,1
-128,-17,-20
-128,-12,-48
-128,57,-18
-122,15,-22
-92,13,-23
-29,14,-11
27,24,-4
46,28,-4
62,40,-3
49,67,-8
31,85,-11
-47,89,-1
-128,78,-7
-128,78,-18
-128,68,2
-128,25,11
-106,9,0
-56,-23,-9
-28,-47,-8
-12,-51,-6
1,-52,-4
-18,-46,-15
-40,-34,-21
-77,-10,-14
-120,-17,-16
-128,-12,-68
-128,108,-35
-108,28,-15
-85,27,-17
-20,29,-6
41,40,10
53,47,12
66,55,9
63,71,-9
0,78,-14
-68,70,14
-128,68,9
-128,77,-18
-128,42,-10
-128,30,11
-83,13,3
-41,-19,-4
-28,-34,-4
4,-42,-3
18,-47,-4
4,-53,-8
-62,-33,-24
-84,-3,-6
-81,4,11
-128,-1,-42
-128,98,-20
-128,69,1
-98,29,-19
-27,18,-7
3,13,-1
37,26,4
54,33,5
53,39,3
22,62,-12
-28,76,5
-70,73,17
-128,70,-12
-128,62,-10
-128,50,4
-109,19,8
-35,-20,1
-26,-40,-7
-18,-48,-9
10,-45,-5
8,-45,-9
-6,-36,-18
-51,-7,-20
-85,12,-10
-128,14,-29
-128,103,-30
-128,91,-21
-106,37,-10
-58,27,-8
-32,22,-6
26,35,2
56,39,3
66,44,1
55,61,-8
-8,73,-9
-48,75,5
-128,81,1
-128,58,-13
-128,42,-2
-118,17,9
-47,-10,7
-33,-33,2
-19,-54,-9
-9,-53,-8
-9,-51,-2
-47,-35,-18
-68,-20,-22
-60,7,-7
-128,-14,-49
-128,1,-106
-128,122,-63
-98,48,-22
-90,28,-34
-30,32,-12
36,53,19
48,59,23
74,64,28
34,64,-1
-9,64,-7
-82,74,5
-128,64,-6
-128,60,-31
-128,35,-19
-109,15,9
-82,8,7
-35,-20,3
-7,-46,3
9,-46,2
20,-54,-5
-26,-47,-18
-63,-31,-27
-81,-10,-12
-128,-34,-16
-128,-14,-64
-128,127,-24
-114,23,-27
-97,18,-46
-5,49,-12
53,43,5
55,44,4
72,59,10
34,69,-6
2,74,-4
-76,76,11
-128,84,-15
-128,94,-17
-128,51,14
-105,12,1
-73,4,2
-14,-33,12
7,-47,7
13,-47,3
1,-55,-5
-72,-39,-35
-100,-21,-41
-66,2,4
-96,-13,-3
-128,26,-66
-128,81,-26
-124,51,-16
-68,24,-23
-6,17,-12
22,28,-7
52,45,-3
63,55,0
54,63,-2
15,76,-1
-74,75,6
-128,84,-18
-128,84,-18
-128,67,16
-128,48,8
-85,5,-10
-25,-34,2
-21,-46,0
-10,-44,-4
3,-50,-4
-7,-52,-8
-40,-31,-21
-57,-11,-10
-83,-16,-9
-128,-13,-73
-128,127,-7
-128,85,6
-101,17,-34
0,39,-4
37,32,6
41,27,3
56,38,-2
55,49,-3
25,79,-11
-43,72,-2
-101,67,-17
-128,99,-20
-128,69,5
-128,51,7
-107,7,0
-36,-36,4
-23,-49,2
-12,-57,-6
-1,-55,-2
-23,-53,-5
-75,-29,-16
-65,-3,1
-81,0,10
-128,5,-57
-128,108,-16
-128,68,-18
-89,12,-37
-41,14,-22
18,17,-4
49,29,-7
56,50,-8
49,63,-7
3,84,4
-40,82,8
-96,68,-4
-128,80,-5
-128,99,2
-128,46,16
-86,6,-4
-56,-17,-3
-26,-47,-3
-3,-37,-4
3,-40,-3
-16,-53,-13
-67,-26,-16
-80,-6,-3
-73,7,13
-128,-2,-42
-128,56,-34
-128,61,-12
-101,28,-27
-19,16,-12
17,23,-8
55,40,1
66,41,0
64,63,-5
11,85,-6
-25,89,5
-128,86,8
-128,76,-6
-128,54,0
-128,28,20
-78,-1,5
-49,-12,5
-19,-31,4
7,-37,-3
18,-42,-6
-14,-53,-13
-77,-27,-14
-83,-12,-1
-103,-6,16
-128,21,-58
-128,102,-30
-128,27,-24
-65,1,-25
-29,7,-14
25,3,-9
52,35,-9
59,46,-6
49,67,-9
0,88,-4
-41,85,9
-119,82,20
-128,106,-11
-128,87,-4
-128,40,7
-120,20,-14
-65,-33,-19
-28,-48,0
-19,-40,0
-16,-48,-11
-21,-48,-11
-30,-40,-11
-72,-13,-17
-102,11,10
-128,1,-19
-128,99,-50
-101,35,4
-87,14,-10
-36,20,-13
25,27,-2
43,36,0
53,47,-4
48,62,-3
34,69,-9
-32,72,3
-128,76,-4
-128,77,-5
-128,73,23
-128,36,9
-115,14,1
-46,-28,-1
-23,-48,-8
-11,-48,-8
2,-51,-11
-33,-40,-12
-55,-27,-14
-68,-3,-9
-89,-6,-4
-128,-22,-35
-128,65,-28
-128,50,-10
-123,12,-19
-31,34,-1
22,23,1
38,24,-3
61,41,2
55,57,1
28,69,-3
-62,84,6
-107,84,14
-128,88,2
-128,69,-15
-128,56,3
-120,38,2
-61,-6,-5
-28,-40,-5
-13,-47,-2
4,-48,-3
-3,-49,-8
-28,-40,-13
-54,-12,-11
-64,3,0
-127,15,13
-128,94,-24
-128,88,-10
-111,21,-7
-56,18,-18
-21,17,-13
43,27,-2
64,35,-12
66,45,-13
34,74,-10
-23,83,6
-74,86,21
-128,86,0
-128,89,8
-128,75,20
-105,29,9
-41,-12,0
-35,-31,-8
-12,-37,-16
14,-52,-18
9,-65,-22
-32,-45,-35
-61,-9,-19
-81,2,-13
-128,6,-75
-128,119,-37
-128,89,-11
-111,38,-30
-43,23,-14
1,18,-3
53,33,3
71,45,3
70,57,-1
32,72,-16
-24,72,1
-74,73,6
-128,68,-23
-128,67,-18
-128,58,4
-105,17,14
-44,-8,6
-30,-22,3
-13,-44,-3
12,-41,2
9,-48,2
-38,-36,-10
-72,-19,-13
-84,11,15
-128,-8,-23
-128,60,-45
-128,57,-21
-116,3,-35
-83,14,-26
-14,16,-9
38,34,-9
51,41,-6
68,53,7
33,67,1
5,76,-1
-70,77,11
-118,66,11
-128,68,-24
-128,59,-21
-126,33,2
-91,17,-1
-36,-21,-1
-11,-42,-3
3,-37,0
9,-40,-2
-30,-38,-15
-51,-28,-17
-60,-8,-2
-118,-31,-14
-128,-26,-66
-128,95,-31
-128,17,-32
-97,19,-37
-16,19,-9
43,19,-1
50,32,-4
57,48,-6
44,74,-4
20,81,-3
-70,90,8
-128,83,-7
-128,80,-24
-128,67,-19
-107,31,0
-88,18,-9
-43,-19,-8
-8,-45,0
2,-47,3
6,-47,2
-21,-44,-8
-41,-35,-10
-65,-13,-14
-90,-13,-3
-128,-24,-49
-128,98,-76
-128,84,-36
-87,26,-30
-22,20,-19
25,37,10
72,37,12
55,38,-4
39,49,-5
21,68,9
-62,96,11
-128,85,-10
-128,95,-10
-128,86,-2
-128,68,-3
-77,17,-9
-46,-30,-12
-36,-42,-8
-3,-44,1
5,-53,-9
-7,-52,-15
-48,-35,-21
-51,-10,-8
-74,-14,-14
-128,8,-83
-128,127,-2
-128,73,6
-86,48,-21
-17,28,-9
7,27,-5
36,26,-4
56,44,-5
49,55,-7
25,76,-4
-22,69,8
-76,61,-7
-128,82,-16
-128,78,18
-128,60,15
-96,18,-2
-36,-25,-9
-21,-39,-10
10,-41,-5
7,-61,-3
-20,-73,-10
-73,-31,-6
-68,0,17
-95,-4,14
-128,17,-38
-128,118,-19
-126,87,-4
-80,10,-30
15,23,-16
48,31,-6
72,32,3
67,49,-7
36,70,-10
-33,91,1
-77,70,5
-106,61,1
-128,72,-31
-128,70,-12
-118,29,12
-91,-2,-7
-51,-17,3
-4,-47,5
14,-42,2
7,-48,0
-23,-48,-7
-81,-26,-26
-78,-12,-14
-111,-19,-7
-128,13,-66
-128,73,-40
-126,40,-18
-63,21,-11
-41,18,-15
17,26,-16
73,42,2
78,45,3
56,66,-6
-52,90,-11
-94,90,-2
-126,68,15
-128,78,-22
-128,65,-6
-109,30,24
-52,-7,-10
-37,-22,-14
-18,-33,-4
17,-40,0
27,-55,-3
11,-74,-13
-78,-34,-46
-113,-19,-55
-128,-14,-31
-128,82,-88
-128,127,-45
-114,18,-22
-57,33,-27
-34,37,-18
40,36,4
59,22,12
56,26,10
43,56,1
-24,79,-7
-69,86,6
-128,82,12
-128,90,-30
-128,75,-9
-107,22,11
-62,-11,-18
-42,-22,-10
-10,-44,1
2,-42,3
12,-43,0
-9,-43,-3
-23,-36,4
-74,-12,-16
-128,-7,-30
-128,-5,-60
-128,127,-33
-118,26,-28
-98,15,-36
-19,19,-16
38,29,-4
55,39,-4
73,54,-3
43,63,-6
13,69,-4
-74,79,18
-128,76,8
-128,74,-9
-128,60,11
-112,25,8
-79,6,-2
-40,-33,-6
-19,-51,-6
-7,-50,-8
-8,-52,-15
-43,-37,-17
-53,-24,-13
-56,-6,2
-128,-34,-15
-128,-23,-52
-128,105,-27
-100,31,-4
-71,9,-17
-23,16,-14
47,31,1
60,35,-1
57,48,-5
30,74,-8
12,84,-4
-72,81,12
-128,68,3
-128,69,-9
-128,55,17
-102,12,16
-69,-3,1
-29,-28,-10
-16,-48,-6
-3,-49,-3
6,-54,-4
-33,-40,-19
-64,-26,-25
-90,3,-5
-112,2,1
-128,6,-28
-128,98,-12
-128,57,-17
-71,17,-13
-13,6,-7
8,10,-11
44,41,-5
61,51,-4
54,55,-5
14,75,-1
-71,83,9
-96,83,24
-128,56,12
-128,70,-1
-128,55,19
-95,11,22
-42,-17,-5
-30,-36,-8
-6,-52,0
15,-57,-5
3,-62,-11
-65,-39,-17
-100,-8,-20
-107,-7,-5
-128,5,-42
-128,112,-18
-128,53,-6
-73,37,-7
-29,25,-7
5,31,-4
60,43,-3
60,53,-7
53,64,-4
14,74,-10
-85,78,13
-125,74,15
-128,67,10
-128,38,20
-128,23,26
-82,-4,9
-27,-23,6
-13,-35,6
4,-52,-1
7,-61,-12
-11,-60,-14
-92,-26,-23
-100,-5,3
-116,-20,4
-128,45,-54
-128,79,-9
-108,37,-7
-50,25,-18
18,35,-13
49,44,-7
64,43,-9
42,63,-11
15,74,-11
-46,78,6
-69,71,20
-109,44,17
-128,69,-20
-128,76,-10
-127,23,10
-26,-11,14
-24,-30,0
-29,-53,-14
19,-51,-3
23,-54,-1
-31,-48,-22
-81,-18,-25
-71,-4,-9
-128,-8,-36
-128,106,-45
-128,122,-8
-106,18,-23
-38,17,-16
-1,19,-10
47,36,-3
59,41,-4
57,50,-4
22,76,-3
-55,73,-1
-95,69,9
-128,66,8
-128,63,-15
-128,38,6
-88,3,5
-43,-16,1
-25,-30,-2
14,-45,-3
22,-52,-5
5,-55,-11
-58,-38,-25
-63,-8,-9
-65,-9,0
-128,-31,-46
-128,112,-13
-128,112,7
-112,19,-27
-11,27,-10
22,21,-8
43,23,-18
44,40,-21
45,50,-18
23,66,-8
-55,76,-1
-86,70,8
-128,49,19
-128,71,-8
-128,62,6
-101,14,14
-58,0,12
-24,-23,5
-4,-33,-1
9,-32,4
14,-46,2
-32,-58,-25
-55,-50,-32
-68,-24,-12
-128,-11,-39
-128,22,-57
-128,117,0
-116,22,-16
-19,12,-7
17,18,1
51,32,2
59,28,-4
54,42,-9
17,73,2
-18,84,7
-99,75,11
-128,52,2
-128,70,-8
-128,50,7
-105,17,-2
-63,1,-2
-8,-39,-1
10,-41,-5
17,-36,-5
4,-48,-10
-48,-38,-22
-70,-22,-20
-70,-4,1
-128,-24,-27
-128,1,-44
-128,98,-2
-112,15,-19
-81,5,-22
1,10,-6
44,22,1
48,22,-2
49,37,-7
25,63,-11
1,72,-9
-64,73,6
-128,78,-3
-128,95,-5
-128,60,21
-104,25,17
-73,6,7
-32,-27,5
-19,-37,3
6,-48,-1
7,-63,-9
-14,-58,-13
-67,-23,-18
-55,-2,11
-71,-9,5
-128,-35,-46
-128,67,-28
-128,102,-6
-96,18,-17
-33,18,-15
10,33,-4
54,30,1
58,41,0
55,53,-3
21,80,-9
-62,91,-1
-109,91,-13
-128,81,-23
-128,84,-4
-128,66,1
-102,13,-12
-43,-33,-7
-29,-47,-5
-7,-50,-5
-1,-52,-7
-15,-55,-13
-59,-33,-23
-71,-7,-6
-73,-3,0
-128,-16,-38
-128,94,-34
-128,104,-17
-99,20,-24
-32,21,-15
-5,22,-9
43,35,-2
58,36,2
58,46,2
23,71,-6
-66,84,-6
-86,74,14
-128,60,-15
-128,58,-34
-128,47,-11
-108,14,-5
-38,-13,-7
-24,-31,-12
1,-37,-20
29,-46,-16
20,-62,-19
-57,-44,-39
-84,-27,-44
-69,-10,-12
-128,-7,-75
-128,99,-62
-128,85,-29
-128,27,-52
-91,41,-39
-5,19,-12
38,30,-4
50,38,0
74,41,5
44,68,-16
4,81,-23
-71,81,2
-128,79,-19
-128,77,-41
-128,73,-25
-116,31,2
-82,14,-2
-50,-20,-16
-22,-48,-13
-3,-46,-9
14,-52,-8
-37,-53,-26
-57,-37,-31
-60,-12,-5
-128,-25,-50
-128,6,-100
-128,127,-9
-118,28,-27
-94,31,-33
-1,32,-4
53,26,-2
56,36,-7
80,42,1
48,70,-15
12,86,-17
-80,90,2
-128,91,-9
-128,97,-13
-128,87,-4
-118,28,7
-86,-1,4
-50,-36,-9
-16,-52,-2
-2,-51,3
-7,-57,-5
-49,-44,-16
-50,-28,-12
-57,-11,-13
-128,-31,-43
-128,-23,-46
-128,53,-28
-128,18,-35
-83,18,-25
-16,32,-8
32,41,-6
45,48,-2
50,60,6
38,67,8
-14,75,7
-78,78,24
-99,66,18
-128,57,-22
-128,64,-2
-128,54,11
-101,17,2
-44,-24,-4
-28,-45,-8
-1,-51,-10
0,-59,-8
-19,-62,-20
-63,-38,-33
-54,-13,-12
-60,-12,-10
-128,-23,-58
-128,86,-44
-128,81,-19
-119,18,-35
-37,38,-13
-4,36,-5
38,45,1
48,55,2
49,70,8
18,78,6
-73,68,-6
-102,59,1
-128,50,10
-128,47,-37
-128,40,-17
-108,4,0
-35,-20,5
-29,-38,-7
-11,-47,-14
13,-45,-6
1,-52,-17
-44,-38,-41
-42,-22,-20
-58,-20,-11
-128,-24,-34
-128,84,-36
-128,108,-11
-107,10,-26
-42,33,-16
-2,39,-7
45,31,0
58,39,-4
54,52,-5
14,75,-2
-53,84,11
-82,69,17
-128,52,-7
-128,59,-19
-128,67,8
-103,9,-5
-71,-8,-8
-14,-40,0
5,-55,-3
13,-53,-4
3,-55,-7
-58,-44,-35
-73,-26,-35
-62,-7,-5
-128,-34,-53
-128,-2,-71
-128,79,-29
-99,11,-38
-53,14,-27
9,29,-3
40,31,9
43,35,9
37,61,2
-2,74,0
-65,66,-4
-81,52,8
-128,37,-32
-128,55,-71
-128,32,-20
-87,1,-4
-51,-8,-1
-17,-41,-7
10,-36,-2
22,-30,1
0,-41,-7
-38,-36,-18
-56,-32,-13
-98,-36,-30
-128,-32,-62
-128,10,-47
-128,50,-48
-106,13,-38
-54,24,-19
1,9,-12
40,38,-8
58,54,0
69,70,5
17,86,-16
-19,88,-18
-77,80,14
-128,71,-7
-128,59,-35
-128,49,6
-117,14,3
-97,-3,-12
-33,-33,-7
-2,-42,-6
11,-39,-4
9,-52,-12
-4,-53,-23
-53,-22,-9
-80,-2,-9
-109,-9,-16
-128,11,-45
-128,77,-37
-128,45,-35
-68,24,-19
-1,10,-14
22,12,-13
62,30,-7
72,48,-11
56,70,-13
-5,97,-7
-84,88,17
-111,77,22
-128,69,-9
-128,61,9
-128,36,13
-100,-8,-10
-28,-30,-3
-10,-41,-4
9,-42,-7
9,-50,-8
-5,-51,-10
-61,-32,-22
-87,-9,-5
-103,-2,0
-128,-12,-29
-128,23,-12
-128,30,-28
-93,6,-33
-18,19,-10
7,32,-5
35,41,-2
64,58,15
55,66,15
-20,69,-8
-62,73,13
-71,61,21
-128,71,-20
-128,76,11
-128,63,24
-125,14,-4
-45,-28,-5
-19,-41,-5
2,-48,-9
4,-48,-12
-13,-49,-18
-44,-29,-21
-40,-19,-7
-79,-16,-3
-128,-12,-39
-128,20,-26
-128,46,-41
-93,-4,-34
-43,22,-11
21,37,-5
67,43,-7
62,53,-2
48,68,13
-12,84,0
-69,91,-1
-82,63,18
-128,56,0
-128,63,-35
-128,37,-8
-109,9,0
-85,-6,-4
-18,-31,4
5,-42,6
18,-42,3
6,-51,-7
-52,-43,-30
-67,-27,-24
-69,-7,-5
-128,-29,-38
-128,-2,-58
-128,78,-26
-105,16,-29
-62,13,-23
20,26,-2
55,35,-1
53,40,-3
46,60,12
-13,84,3
-61,86,-5
-58,54,28
-128,75,-23
-128,84,-45
-128,50,8
-103,14,-3
-63,-2,-3
-6,-45,1
9,-48,-1
14,-38,0
-19,-45,-18
-52,-31,-22
-54,-20,-13
-86,-12,-9
-128,-5,-18
-128,28,-19
-128,51,-32
-95,13,-26
-48,17,-10
2,5,-5
46,40,-3
61,47,1
55,59,0
29,75,-5
-49,84,-10
-93,74,24
-128,66,14
-128,45,-25
-128,44,26
-117,24,19
-63,-2,3
-13,-33,-1
2,-38,-1
28,-34,4
-7,-49,-17
-37,-46,-25
-56,-22,-9
-69,-21,-6
-128,-30,-15
-128,3,-27
-128,67,-7
-128,28,-22
-49,17,-19
36,31,-3
48,28,-7
52,37,-6
32,63,-1
19,79,6
-37,85,4
-79,58,13
-119,51,-8
-128,69,-26
-128,54,9
-128,27,2
-66,-16,2
-16,-46,0
-5,-50,0
11,-52,-7
-8,-55,-19
-34,-47,-27
-67,-20,-24
-82,-2,1
-124,-15,-16
-128,3,-43
-128,59,-14
-124,26,-26
-43,7,-20
32,24,2
52,31,6
57,38,2
36,66,-6
14,73,-5
-65,89,5
-112,57,4
-128,45,-22
-128,63,-22
-128,53,3
-124,15,-3
-45,-13,3
-18,-37,2
8,-45,-1
24,-40,-4
14,-46,-11
-44,-33,-14
-69,-16,-13
-71,-15,-14
-124,-35,-37
-128,-1,-44
-128,36,-26
-128,36,-40
-59,26,-18
-28,21,-10
25,28,-2
56,42,6
58,52,12
41,67,4
-43,87,5
-85,85,12
-128,69,-7
-128,46,-42
-128,40,-29
-115,20,-2
-53,-12,-6
-24,-28,-2
12,-42,3
36,-39,5
27,-47,-3
-35,-49,-29
-86,-18,-24
-81,-6,-10
-128,-19,-38
-128,56,-70
-128,95,-41
-115,27,-39
-40,24,-17
2,26,1
50,29,20
57,35,18
48,45,15
-1,77,5
-91,89,-17
-99,63,-8
-123,22,-34
-128,19,-58
-128,30,-12
-84,7,1
-73,-8,-12
-22,-39,-4
21,-43,6
28,-40,5
10,-58,-17
-47,-44,-38
-65,-23,-29
-55,-9,0
-128,-40,-52
-128,51,-57
-128,68,-28
-113,20,-28
-72,12,-25
8,22,4
53,33,18
56,32,13
32,54,5
-30,86,-4
-54,89,-6
-65,57,5
-128,64,-37
-128,79,-34
-128,40,-23
-127,-21,-55
-75,-51,-41
-13,-68,-19
-5,-49,-14
-2,-52,-16
-20,-50,-19
-46,-38,-25
-61,-29,-24
-90,-31,-18
-128,-9,-82
-128,44,-75
-128,59,-36
-70,50,-19
-38,30,-18
20,35,-4
52,40,11
54,44,10
34,74,3
-9,78,-6
-42,74,-4
-102,59,1
-128,58,-35
-128,52,-41
-128,26,2
-84,0,-5
-50,-20,-2
-14,-61,-2
20,-48,15
27,-45,18
-37,-41,-21
-53,-26,-29
-35,-19,-16
-77,-27,-38
-128,-37,-74
-128,29,-82
-128,65,-34
-128,28,-50
-47,37,-19
25,40,5
49,43,9
67,49,12
46,63,8
29,72,5
-53,80,9
-118,65,7
-128,52,-5
-128,48,-20
-128,36,10
-116,19,7
-59,-8,4
-16,-41,6
-3,-45,5
7,-46,7
-16,-49,8
-42,-38,-2
-89,-11,-15
-77,9,8
-97,-4,-6
-128,6,-44
-128,44,-19
-128,30,-22
-56,12,-11
-7,8,-4
14,21,3
45,40,14
58,58,19
46,64,11
-34,83,-1
-118,68,0
-128,65,-30
-128,61,-39
-128,26,-2
-118,11,-9
-48,-17,2
-4,-47,2
7,-46,2
19,-39,1
-20,-38,-8
-58,-27,-12
-73,-7,5
-86,-19,-6
-128,-33,-33
-128,8,-45
-128,40,-30
-128,26,-40
-53,9,-13
-22,12,8
27,27,11
50,41,6
52,48,7
35,62,2
-48,84,4
-99,88,11
-128,69,-1
-128,45,-34
-128,41,-8
-94,18,15
-42,-8,-1
-24,-24,-5
11,-35,-2
27,-47,0
19,-53,-2
-51,-38,-20
-81,-15,-12
-54,-15,3
-128,-54,-57
-128,36,-82
-128,90,-29
-104,14,-31
-37,18,-23
14,38,2
49,33,13
53,46,4
45,56,-2
12,64,0
-55,71,9
-96,67,7
-128,48,-33
-128,59,-22
-128,55,4
-109,9,-9
-35,-35,-12
-15,-50,-7
1,-50,2
19,-47,-9
4,-49,-18
-58,-35,-37
-49,-6,-19
-56,-5,-3
-128,-41,-67
-128,58,-52
-128,76,-19
-73,-1,-17
-35,3,-19
3,17,-7
66,43,21
73,43,19
42,58,-3
-16,75,-3
-82,72,13
-95,55,11
-128,24,-32
-128,40,-13
-128,33,13
-96,7,12
-66,-2,9
-31,-50,0
-3,-53,-2
9,-54,-2
-7,-61,-14
-84,-39,-36
-98,-25,-43
-75,-10,-18
-128,1,-96
-128,76,-85
-122,44,-38
-71,15,-36
-35,23,-22
34,37,5
56,45,7
56,56,7
35,74,10
-32,70,7
-81,71,1
-121,58,10
-128,39,-30
-128,36,-30
-128,28,9
-70,6,7
-41,-9,6
-12,-42,-3
17,-49,-2
24,-57,0
-6,-60,-18
-76,-37,-40
-92,-27,-38
-113,-15,-4
-128,20,-68
-128,91,-30
-108,34,8
-65,17,-18
-15,30,-9
57,42,11
61,50,5
50,63,-1
23,79,6
-29,68,4
-77,64,-8
-128,44,-6
-128,39,-28
-128,43,-28
-128,12,-13
-65,-16,-9
-33,-30,-3
-12,-48,-1
0,-51,-5
16,-60,-13
-13,-50,-11
-45,-35,-26
-93,-6,-32
-128,-18,-53
-128,15,-90
-128,92,-47
-100,3,-37
-62,14,-27
-7,15,-3
30,35,4
46,44,8
47,46,17
20,55,7
-68,75,-16
-111,75,-12
-107,35,-4
-128,27,-34
-128,19,-51
-121,-2,-11
-85,-6,-4
-28,-23,0
3,-48,-2
18,-46,2
28,-48,2
-46,-42,-35
-81,-29,-43
-69,-9,-10
-128,-38,-51
-128,-14,-78
-128,73,-13
-103,-12,-36
-89,-6,-37
-5,25,-9
51,26,-2
53,32,-9
49,53,-12
27,72,-14
7,77,-14
-62,68,12
-128,59,-10
-128,53,-15
-128,46,10
-115,6,9
-70,-8,1
-24,-27,-2
1,-37,0
17,-39,-3
29,-55,-11
-28,-46,-30
-69,-34,-45
-94,-3,-14
-104,-8,-1
-128,-27,-75
-128,57,-28
-119,39,-11
-61,3,-24
35,18,4
61,21,8
50,41,-7
43,75,-2
33,78,-1
-38,93,0
-128,78,9
-122,54,17
-128,26,-47
-128,9,-24
-128,0,5
-73,-10,1
-27,-33,-1
-5,-41,4
20,-35,9
18,-46,0
-4,-52,-15
-70,-26,-20
-85,-3,13
-123,-21,-5
-128,-18,-14
-128,60,15
-128,41,-12
-46,-3,-10
4,9,-9
16,21,-16
58,40,-11
60,59,-5
32,69,-11
-38,88,0
-96,68,27
-124,48,14
-128,42,-1
-128,47,41
-128,22,28
-69,-5,3
-8,-45,-10
-8,-52,-16
23,-42,-12
9,-52,-15
-20,-49,-24
-76,-23,-18
-105,-10,-1
-128,-27,-21
-128,7,-23
-128,31,-28
-128,2,-33
-27,0,-5
3,2,1
46,40,7
64,60,7
63,68,5
13,84,-13
-61,80,-13
-81,65,3
-128,29,-2
-128,14,-37
-128,11,-3
-115,-13,15
-65,-22,1
-37,-32,1
2,-33,4
27,-41,-9
22,-56,-15
-32,-52,-28
-67,-15,-17
-69,-9,-8
-128,-45,-50
-128,21,-64
-128,73,-27
-103,18,-22
-34,10,-19
10,21,-5
53,32,9
61,52,5
57,70,6
8,83,-1
-75,79,-7
-98,65,-3
-128,33,-14
-128,28,-44
-128,31,-14
-111,-5,-1
-47,-15,0
-16,-29,4
13,-42,4
28,-41,1
22,-50,-4
-34,-38,-17
-85,-15,-25
-77,-3,-6
-128,-43,-38
-128,26,-65
-128,89,-29
-108,15,-27
-27,0,-16
12,17,-2
51,30,7
67,42,6
58,48,0
13,66,-10
-19,81,-11
-89,84,2
-128,57,-6
-128,61,-43
-128,55,-11
-107,12,15
-74,5,10
-26,-22,1
-12,-53,-15
13,-44,-9
25,-57,-8
-25,-47,-29
-63,-31,-37
-88,-2,-11
-128,-15,-59
-128,-4,-97
-128,73,-25
-117,19,-31
-87,13,-26
5,18,0
44,29,-1
57,42,-1
70,62,6
29,71,-11
-13,81,-10
-102,81,5
-128,62,24
-128,36,-12
-128,29,-26
-110,8,15
-81,-2,8
-36,-15,-1
-9,-40,-3
9,-36,-2
27,-41,-5
-13,-48,-22
-50,-36,-25
-92,-16,-15
-128,-39,-29
-128,-32,-70
-128,44,-41
-113,17,-28
-91,11,-29
-10,22,-2
53,46,19
61,58,24
56,71,14
20,81,0
-20,79,-1
-109,71,-11
-126,47,-5
-128,30,-29
-128,23,-52
-128,30,-18
-85,-4,13
-20,-33,17
-13,-51,9
0,-57,-1
25,-60,-3
5,-57,-10
-84,-33,-53
-81,-12,-29
-128,-38,-64
-128,-8,-102
-128,109,-27
-120,67,-13
-76,-2,-30
10,25,0
36,34,4
51,48,0
59,84,10
49,86,13
-30,74,-5
-116,60,3
-128,45,14
-128,28,-32
-128,43,-20
-128,29,-5
-72,0,-2
-21,-30,0
0,-54,-6
25,-57,-4
7,-78,-14
-21,-63,-22
-91,-29,-37
-116,-10,-22
-128,-19,-31
-128,54,-60
-128,41,-31
-124,-3,-46
-22,-3,-21
42,28,-2
49,39,-5
70,53,-6
46,76,0
25,79,-6
-63,78,-17
-128,61,12
-128,50,7
-128,29,-40
-128,17,10
-108,2,11
-41,-12,10
-10,-37,-1
5,-41,-2
35,-48,0
23,-60,-8
-51,-46,-34
-64,-14,-8
-84,-19,-4
-128,-39,-64
-128,102,-10
-128,23,-30
-82,8,-28
16,25,-9
33,28,-9
47,44,-12
64,55,2
51,63,2
3,83,-10
-105,76,-7
-118,58,11
-128,51,-47
-128,53,-13
-128,33,12
-82,-3,-14
-19,-25,-1
3,-39,2
19,-42,-6
23,-55,-11
9,-57,-16
-55,-35,-36
-80,-17,-11
-100,-19,-5
-128,-38,-67
-128,73,-30
-128,45,-28
-68,-9,-28
-2,14,-6
23,22,-5
63,50,-1
68,66,6
48,68,-3
-40,85,-15
-94,79,15
-120,65,24
-128,31,-46
-128,37,5
-128,18,7
-81,-4,-15
7,-28,-3
26,-40,-6
38,-34,-15
25,-57,-30
-7,-50,-33
-58,-33,-24
-89,-44,-24
-128,-58,-37
-128,-33,-67
-128,31,-36
-128,10,-45
-62,13,-26
27,43,3
60,50,9
75,52,4
68,59,0
17,66,-15
-62,78,1
-104,78,6
-128,52,6
-128,28,-44
-128,34,-26
-113,9,13
-51,-6,0
-28,-19,0
17,-40,3
43,-36,0
32,-49,-8
-36,-43,-23
-63,-15,-14
-51,-21,-7
-128,-54,-62
-128,21,-47
-128,72,-11
-128,-5,-49
-26,16,-6
19,26,10
51,29,6
71,47,5
62,55,-1
14,75,-11
-75,86,-9
-125,85,4
-128,50,-28
-128,29,-36
-128,28,-10
-104,-1,-2
-38,-26,-2
-13,-44,-2
14,-49,-5
25,-50,-2
15,-57,-4
-43,-37,-22
-103,-9,-21
-94,-7,-6
-128,-45,-46
-128,37,-46
-128,64,-26
-119,-1,-38
-30,9,-7
6,8,4
51,34,1
61,62,0
57,66,5
23,64,-8
-57,75,-4
-108,82,4
-128,46,-7
-128,37,-30
-128,19,-20
-110,-11,-2
-69,-12,1
-17,-30,5
8,-42,2
24,-40,3
15,-56,-4
-51,-32,-18
-68,-14,-12
-62,-17,11
-128,-42,-90
-128,14,-71
-128,38,-28
-96,-12,-40
-34,7,-17
41,26,9
77,53,4
71,61,1
41,79,3
-29,94,-2
-91,99,-5
-128,57,15
-128,33,-46
-128,33,-43
-128,9,1
-70,-5,-4
-46,-13,-2
-7,-37,0
24,-39,6
29,-51,0
7,-59,-14
-60,-37,-39
-83,-23,-41
-88,-16,-15
-128,-40,-74
-128,7,-81
-128,51,-30
-77,-5,-34
-41,1,-22
26,23,1
67,51,20
69,54,17
34,75,-5
-39,85,-16
-64,77,-10
-112,60,-3
-128,41,-56
-128,39,-49
-128,24,-11
-82,-7,-8
-49,-20,-4
-18,-50,-6
-6,-50,-4
21,-47,1
-7,-52,-11
-49,-38,-20
-86,-9,-15
-87,-19,-6
-128,-43,-50
-128,36,-49
-128,37,-19
-116,-3,-42
-33,2,-19
29,21,1
46,33,6
63,50,12
52,67,-1
24,81,-13
-81,95,-15
-128,67,-14
-128,49,-17
-128,15,-63
-128,-2,-11
-97,-14,-9
-39,-27,-2
-6,-42,1
9,-39,1
26,-41,1
-12,-45,-14
-52,-37,-30
-87,-21,-19
-112,-53,-27
-128,-65,-91
-128,50,-63
-103,50,-18
-83,5,-38
2,22,-11
57,48,6
61,49,5
46,61,-1
19,78,-6
-4,78,-10
-73,73,-5
-128,44,-21
-128,34,-39
-128,25,-31
-128,7,-16
-102,-7,-15
-21,-29,-5
1,-50,-3
9,-52,-2
18,-62,-11
-32,-57,-27
-73,-40,-34
-86,-3,-14
-77,-2,0
-128,-36,-54
-128,58,-35
-128,56,-17
-81,-13,-35
1,5,-5
35,18,3
66,43,3
48,58,-3
35,67,-1
-23,79,0
-128,87,3
-128,50,-9
-128,42,-29
-128,46,-1
-128,22,5
-69,1,3
-17,-31,3
-2,-44,3
27,-39,1
12,-51,-13
-14,-49,-18
-72,-30,-29
-71,-9,-3
-99,-19,-4
-128,-29,-62
-128,63,-8
-128,22,-29
-69,-11,-26
19,12,8
40,20,11
51,40,3
46,59,6
36,71,7
-32,88,-6
-115,79,-2
-122,54,0
-128,40,-53
-128,34,6
-128,18,25
-65,-5,-4
-36,-39,-4
-18,-48,-2
17,-51,1
18,-64,-7
-2,-61,-13
-77,-28,-26
-79,2,3
-80,-11,9
-128,-50,-101
-128,88,-18
-116,56,-12
-76,-10,-31
-21,11,-9
45,30,12
65,47,11
65,55,8
30,64,-9
-51,81,-11
-96,80,-4
-128,44,-5
-128,18,-53
-128,7,-35
-124,2,3
-63,-12,3
-32,-24,5
4,-50,-1
20,-45,-3
22,-52,-1
-10,-51,-11
-70,-28,-31
-81,-16,-21
-127,-25,-17
-128,35,-77
-128,81,-32
-110,9,-23
-52,12,-20
-12,16,-12
42,32,-2
68,49,3
71,58,4
26,77,-15
-48,80,8
-93,79,18
-128,64,-10
-128,28,-30
-128,20,-10
-106,0,1
-39,-19,0
-19,-34,-3
8,-42,-4
23,-42,-3
16,-47,-6
-25,-39,-11
-79,-25,-16
-91,-21,-13
-128,-47,-41
-128,33,-51
-128,64,-29
-105,-1,-36
-22,21,-6
19,27,7
62,36,14
67,49,6
48,58,-5
-8,82,-7
-42,83,4
-125,68,13
-128,21,-19
-128,10,-29
-128,23,10
-90,1,4
-59,-3,3
1,-22,5
23,-38,-2
26,-43,-1
8,-69,-5
-71,-43,-30
-94,-26,-28
-62,-6,17
-128,-51,-52
-128,-39,-67
-128,25,-13
-101,1,-29
-58,-15,-26
23,16,-3
60,48,7
62,45,3
45,71,-7
-14,79,-4
-57,80,-1
-128,60,-4
-128,32,-14
-128,44,-28
-128,18,-29
-82,-17,-13
-34,-21,1
-7,-49,-4
10,-45,-5
19,-46,-1
-3,-49,-15
-64,-27,-31
-64,-14,-17
-93,-15,-8
-128,-44,-100
-128,11,-77
-121,50,-11
-83,-5,-33
-50,1,-22
24,28,-1
55,44,5
56,49,5
47,69,6
1,80,-11
-53,84,-12
-128,71,2
-128,39,-7
-128,25,-24
-128,19,4
-110,4,6
-47,-15,-9
-17,-39,-16
-7,-41,-13
18,-44,-13
8,-53,-21
-19,-45,-24
-92,-16,-20
-106,-28,-12
-128,-63,-48
-128,43,-71
-122,66,1
-70,13,-9
-25,17,-20
38,37,-1
60,33,7
64,38,2
36,70,-5
8,87,-12
-76,86,-16
-128,59,-10
-128,44,-30
-128,52,-13
-128,22,3
-102,7,-7
-31,-28,-4
-13,-56,-7
-8,-62,-11
-2,-75,-16
-38,-49,-18
-64,-31,-22
-79,2,-11
-128,-18,-18
-128,-28,-58
-128,71,-46
-86,23,-8
-70,5,-16
-19,19,-16
44,37,0
57,38,1
61,49,0
24,76,-15
-6,81,-14
-87,74,14
-128,60,-16
-128,61,-28
-128,57,1
-122,15,-5
-74,-1,-5
-26,-53,-9
-20,-70,-19
-7,-60,-17
-8,-53,-19
-55,-33,-27
-73,-17,-21
-86,-7,-2
-128,-23,-62
-128,26,-87
-128,76,-18
-108,21,-23
-53,6,-21
11,17,-4
36,24,2
59,43,1
44,66,-7
22,76,-13
-35,72,-5
-102,57,5
-128,44,-1
-128,14,-32
-128,45,10
-128,30,18
-62,-5,9
-28,-51,-6
-13,-64,-8
12,-59,-5
-14,-57,-19
-46,-27,-21
-40,-18,-6
-99,-48,-36
-128,-63,-83
-128,64,-74
-128,62,-33
-114,5,-42
-21,31,-11
44,35,12
49,40,14
64,59,11
30,77,-7
4,77,-9
-58,67,-6
-128,52,-12
-128,41,-24
-128,64,-24
-128,9,4
-99,-8,-2
-29,-19,5
1,-47,2
12,-54,-2
11,-63,-7
-41,-53,-24
-66,-37,-28
-70,-10,-13
-128,-27,-30
-128,-26,-82
-128,118,-59
-101,10,-34
-85,-14,-46
-22,22,-22
46,45,3
62,58,9
56,65,5
48,70,3
3,69,-11
-63,71,4
-111,73,3
-128,64,-36
-128,59,-22
-128,38,5
-85,-3,-3
-8,-26,0
4,-43,0
13,-56,-8
24,-56,-9
6,-59,-17
-73,-32,-23
-95,2,-13
-96,-6,-7
-128,-36,-47
-128,73,-45
-128,62,-24
-59,5,-11
-24,14,-15
12,24,-8
63,43,3
62,58,-1
55,67,-7
-14,93,-6
-128,85,4
-128,62,-1
-128,37,-5
-128,29,15
-105,13,22
-43,-11,5
-10,-29,5
0,-43,4
25,-45,1
-1,-50,-7
-35,-43,-9
-74,-19,-15
-82,-26,-3
-128,-49,-28
-128,-3,-59
-128,38,-28
-128,8,-32
-32,17,-7
24,22,5
39,38,6
53,53,8
43,64,-3
23,78,-14
-49,79,-15
-83,48,17
-120,43,1
-128,68,-44
-128,72,-14
-128,24,15
-63,-21,-13
-39,-43,-11
1,-54,4
11,-46,-7
10,-52,-11
-17,-55,-18
-75,-27,-24
-86,-12,-16
-110,-45,-18
-128,8,-90
-128,92,-61
-110,13,-36
-26,-1,-7
15,23,14
39,35,11
44,60,13
44,63,17
20,64,-5
-66,83,-26
-68,73,5
-128,39,-25
-128,49,-68
-128,36,-21
-123,2,-17
-46,-24,-10
-18,-42,-3
9,-49,3
30,-39,5
16,-46,-3
-48,-39,-25
-64,-26,-11
-64,-24,-6
-128,-45,-63
-128,42,-37
-128,77,-14
-128,1,-44
-21,17,-8
15,21,0
44,43,-2
64,57,1
64,62,-2
9,81,-9
-87,84,6
-115,77,17
-128,30,-7
-128,23,-40
-128,25,-6
-100,9,4
-73,4,0
-30,-21,0
0,-37,2
18,-34,3
22,-52,-2
-36,-41,-22
-74,-27,-23
-71,-19,-5
-128,-50,-61
-128,-35,-68
-128,62,-8
-125,17,-31
-74,-1,-29
12,20,-5
56,37,1
65,47,3
59,78,1
-2,91,-8
-46,89,-3
-102,63,18
-128,25,-31
-128,14,-43
-128,16,1
-109,-1,1
-74,-6,1
-18,-35,1
10,-45,-4
20,-46,-4
16,-63,-7
-62,-40,-32
-100,-23,-36
-67,-2,8
-128,-48,-45
-128,-30,-74
-128,50,-25
-88,7,-21
-63,-10,-27
18,9,-2
64,31,11
65,39,7
51,63,-3
-6,81,-7
-65,92,-10
-128,81,2
-128,37,-15
-128,31,-29
-128,19,-4
-92,1,-1
-56,-5,1
-15,-38,-5
8,-43,-8
15,-43,-5
1,-53,-9
-24,-47,-16
-77,-28,-28
-80,-18,1
-123,-35,-22
-128,-12,-75
-128,79,-17
-124,27,-37
-48,-2,-24
30,15,0
55,39,-6
58,53,-3
57,67,9
37,77,4
-74,90,-16
-128,62,7
-128,44,0
-128,23,-35
-128,23,4
-109,8,4
-51,-9,-3
-16,-31,-8
-1,-35,-7
31,-40,-1
5,-61,-19
-34,-56,-32
-88,-27,-38
-77,-24,-1
-128,-47,-39
-128,7,-75
-128,45,-18
-110,16,-27
-41,6,-19
30,28,5
52,37,9
54,52,7
32,69,6
5,74,3
-70,77,1
-104,46,18
-128,28,-6
-128,23,-41
-128,27,3
-127,13,-1
-59,-7,3
-13,-34,4
-4,-42,1
14,-47,-6
-1,-62,-22
-34,-53,-32
-69,-26,-32
-87,-25,-14
-128,-46,-40
-128,4,-45
-128,58,-30
-128,3,-33
-29,10,-4
18,25,7
35,32,7
39,39,0
38,51,1
20,70,-2
-27,67,-4
-47,61,5
-107,39,-8
-128,52,-26
-128,80,12
-128,59,39
-87,7,-7
-63,-27,-19
-23,-76,-18
13,-59,-25
21,-64,-32
-32,-50,-38
-75,-19,-34
-66,-12,-34
-128,-28,-50
-128,16,-90
-128,77,-52
-96,30,-24
-53,1,-27
-12,21,-13
44,46,7
54,59,6
53,69,10
29,72,5
-39,82,-2
-95,79,-7
-128,59,-5
-128,30,-42
-128,39,-38
-128,16,-8
-57,0,-12
-32,-14,-11
12,-40,-6
35,-57,-6
32,-62,-11
-24,-52,-27
-80,-26,-25
-75,-23,-31
-128,-55,-67
-128,26,-84
-128,74,-42
-114,-4,-41
-38,24,-19
7,34,2
58,38,8
60,46,-4
43,56,-6
23,68,-4
-68,87,-2
-128,90,-3
-128,53,5
-128,31,-18
-128,31,-27
-125,13,5
-84,5,6
-30,-21,3
-3,-51,5
9,-55,4
24,-65,1
-22,-56,-15
-59,-39,-23
-99,-5,-24
-126,-27,-26
-128,-38,-70
-128,67,-42
-110,16,-23
-87,-7,-31
-18,4,-12
28,24,2
48,34,6
57,60,10
38,73,9
4,78,2
-112,84,-1
-128,51,-2
-128,45,-24
-128,25,-29
-121,5,-8
-82,-2,-3
-20,-26,4
10,-48,1
27,-44,0
27,-55,-5
-39,-48,-27
-82,-35,-35
-87,-5,-12
-128,-41,-54
-128,-30,-79
-128,68,-33
-118,21,-40
-83,5,-36
-5,12,-4
31,28,6
42,40,8
55,59,13
34,72,9
0,80,6
-126,73,-18
-128,44,1
-128,25,-25
-128,12,-29
-109,6,-2
-73,-2,-4
-20,-24,-6
-2,-35,-5
21,-44,-2
25,-50,-3
1,-49,-13
-72,-32,-30
-68,-10,-2
-80,-18,-1
-128,-50,-66
-128,35,-27
-128,54,-26
-73,-2,-27
-3,-2,-8
13,15,-6
44,36,0
53,58,8
50,74,11
-1,86,-8
-120,80,-7
-128,56,5
-128,40,-44
-128,31,-28
-128,19,-15
-80,-4,-11
-19,-32,-5
-7,-43,-5
17,-39,0
19,-43,-2
-4,-46,-14
-67,-33,-39
-66,-11,-28
-65,-7,-20
-128,-27,-88
-128,57,-41
-128,41,-34
-101,-8,-32
-36,11,8
-12,8,16
32,34,13
60,60,16
60,61,11
13,74,-10
-86,72,-5
-128,68,-11
-128,47,-27
-128,25,-17
-128,19,-3
-82,2,-4
-26,-23,-6
-14,-36,-9
12,-47,-1
17,-61,1
-4,-58,-4
-82,-32,-31
-84,-13,-22
-64,-15,-7
-128,-50,-99
-128,42,-45
-128,49,-25
-90,1,-39
-51,6,-25
28,27,8
58,33,18
54,39,15
31,70,17
-33,91,8
-100,94,-11
-118,45,-3
-128,15,-53
-128,23,-79
-128,24,-12
-63,-3,-7
-49,-13,-14
-9,-42,-4
20,-44,6
28,-50,7
16,-62,-5
-64,-40,-33
-111,-25,-41
-73,-13,-12
-128,-54,-93
-128,-8,-103
-128,90,-18
-72,2,-28
-63,-11,-37
16,19,-7
53,37,11
59,39,15
47,61,13
-24,84,-3
-76,91,-11
-112,67,8
-128,38,-50
-128,26,-70
-128,17,-13
-73,-4,-4
-45,-16,-8
-9,-56,-9
26,-48,3
38,-45,7
4,-52,-13
-79,-29,-43
-90,-14,-33
-64,-14,4
-128,-54,-91
-128,1,-98
-128,51,-12
-109,17,-16
-58,8,-25
18,24,3
46,31,11
58,49,5
47,79,-8
24,84,-17
-59,79,-15
-128,57,-23
-128,45,-32
-128,21,-41
-126,-12,-15
-89,-25,-19
-39,-42,-18
-16,-58,-9
3,-50,-4
24,-55,-10
-23,-58,-38
-63,-29,-32
-73,-23,-25
-128,-63,-66
-128,-41,-103
-128,60,-61
-102,45,-27
-60,32,-24
1,26,-7
37,41,10
44,45,13
39,70,13
4,94,-6
-34,93,-15
-93,70,8
-128,32,-30
-128,24,-70
-128,17,-40
-94,-9,-6
-59,-20,-12
-20,-47,-10
-4,-52,-3
9,-50,0
16,-53,-11
-45,-46,-38
-68,-36,-41
-79,-14,-26
-128,-39,-55
-128,-28,-79
-128,58,-45
-105,19,-34
-64,6,-23
-6,12,-6
46,46,18
59,48,23
51,53,16
33,59,3
-32,69,-16
-105,73,19
-128,48,-34
-128,48,-66
-128,45,-2
-125,24,16
-56,-1,-3
-33,-36,-10
-20,-45,-5
21,-40,7
14,-56,-5
-13,-50,-19
-79,-27,-34
-69,-5,-5
-83,-13,-13
-128,-30,-90
-128,81,-45
-128,57,-41
-87,0,-47
-14,10,-15
11,13,-4
53,38,9
64,62,14
59,66,12
9,83,-6
-109,81,-9
-128,72,4
-128,52,-24
-128,36,-32
-128,26,-4
-75,4,-10
-19,-23,-11
-9,-36,-11
14,-45,-7
28,-58,-9
11,-61,-18
-63,-41,-31
-71,-21,-19
-78,-24,-24
-128,-49,-125
-128,109,-67
-128,85,-25
-86,1,-49
-9,27,-12
23,24,1
55,42,17
55,57,17
47,64,14
-4,79,-6
-85,70,-5
-122,55,-13
-128,38,-46
-128,43,-18
-128,32,27
-56,3,26
-32,-22,-22
-34,-42,-23
-4,-48,1
20,-47,4
24,-62,-8
-49,-35,-14
-83,-17,-16
-105,-12,-10
-128,-41,-44
-128,-2,-59
-128,31,-47
-59,-8,-20
-39,-9,-14
7,8,-3
59,40,18
64,46,20
45,62,15
-35,80,-14
-85,87,-20
-128,55,-7
-128,37,-62
-128,39,-50
-128,17,-3
-67,-6,-11
-43,-15,-7
-16,-47,-4
10,-41,0
19,-43,2
4,-50,-10
-73,-33,-27
-107,-20,-32
-91,-17,-6
-128,-26,-89
-128,26,-73
-114,24,-19
-63,-8,-19
-46,1,-12
24,20,9
64,52,16
66,51,18
52,67,2
-43,96,-9
-111,97,-7
-128,63,-3
-128,26,-32
-128,28,-21
-110,11,11
-54,-5,0
-31,-12,4
4,-36,9
28,-39,5
28,-48,-1
-3,-56,-15
-75,-28,-32
-106,-15,-23
-128,-28,-1
-128,-40,-62
-128,80,-52
-92,37,-12
-66,5,-15
-4,22,-10
76,37,9
83,41,7
59,44,-5
3,72,-12
-38,86,3
-128,94,25
-128,45,-13
-128,31,-44
-128,50,-7
-88,19,11
-62,4,2
-22,-27,-5
12,-45,2
21,-45,1
23,-57,-6
-28,-42,-15
-82,-26,-12
-99,4,10
-128,-25,-25
-128,-32,-67
-128,58,-31
-99,12,-28
-80,-5,-32
0,1,-11
51,26,-2
59,39,-3
56,60,6
19,78,-9
-24,85,-10
-119,75,17
-128,43,-13
-128,36,-36
-128,21,-2
-104,2,-3
-66,0,-2
-13,-25,6
15,-38,7
28,-35,5
17,-43,0
-31,-38,-12
-65,-27,-17
-76,-12,5
-128,-54,-30
-128,-27,-65
-128,41,-26
-128,17,-14
-74,4,-22
-5,5,-10
33,15,-4
72,36,-1
66,50,-6
48,59,-9
-26,95,-2
-128,85,-6
-128,57,2
-128,22,-27
-128,39,-19
-128,27,9
-56,1,5
-1,-24,-5
12,-37,-8
29,-36,-12
34,-49,-18
15,-52,-20
-51,-32,-38
-87,-10,-12
-114,-38,-19
-128,-25,-111
-128,81,-19
-96,40,-5
-62,-10,-30
9,19,1
43,28,8
70,33,5
47,49,-6
26,62,-12
-38,78,-11
-128,83,13
-128,55,-5
-128,52,-21
-128,27,15
-116,17,6
-51,-5,0
-7,-43,-3
5,-51,-7
28,-46,-11
17,-58,-18
-8,-53,-19
-75,-26,-27
-107,-17,0
-128,-49,-38
-128,63,-65
-127,42,-13
-112,6,-27
-30,11,-6
31,17,11
47,31,11
65,42,4
64,53,2
18,73,-17
-52,64,4
-114,63,2
-128,25,-21
-128,16,-12
-115,19,26
-73,3,19
-32,-13,2
-17,-32,-8
16,-52,-19
34,-63,-16
26,-64,-16
-39,-36,-29
-73,-9,-12
-69,-11,-2
-128,-52,-120
-128,106,-47
-128,91,-14
-110,15,-33
0,39,9
32,34,21
39,30,14
40,31,0
37,39,-1
22,52,0
-72,73,-13
-128,77,-33
-128,52,-22
-128,49,-35
-128,42,-21
-92,5,-5
-25,-22,1
-18,-40,-8
3,-62,-16
22,-70,-19
13,-71,-25
-51,-47,-41
-103,-10,-44
-107,-2,-30
-128,-15,-77
-128,91,-64
-128,71,-27
-68,-3,-27
5,19,-1
32,34,6
61,59,13
55,62,6
35,71,-2
-25,72,-18
-67,72,-11
-120,66,15
-128,23,-47
-128,-4,-74
-128,26,-18
-88,-2,-1
-36,-14,-2
-17,-31,-5
14,-51,-9
27,-51,-8
22,-60,-16
-40,-43,-40
-61,-30,-39
-75,-16,-23
-128,-36,-95
-128,26,-95
-128,86,-14
-121,-10,-48
-64,6,-28
26,25,6
50,41,8
59,47,6
56,67,10
-18,81,-7
-74,85,-15
-112,65,6
-128,9,-36
-128,-19,-79
-128,19,-20
-77,8,12
-47,2,6
-24,-24,-3
12,-47,1
25,-42,3
24,-50,-4
-54,-31,-11
-108,-17,-22
-98,1,-15
-128,-42,-76
-128,1,-112
-128,97,-40
-88,-5,-63
-45,9,-45
47,28,5
67,43,15
59,55,15
34,63,4
-5,70,-18
-33,69,-20
-74,56,1
-128,60,-48
-128,44,-94
-128,46,-53
-117,4,-34
-86,-8,-19
-29,-28,4
-7,-47,5
-1,-44,4
17,-49,5
10,-50,1
-58,-30,-21
-108,-1,-26
-96,0,-5
-128,-20,-71
-128,72,-54
-122,39,-32
-57,5,-22
5,21,-2
32,27,6
59,43,16
54,60,12
38,66,7
-33,79,-8
-120,75,4
-128,66,10
-128,62,-33
-128,33,-13
-128,16,-2
-68,-2,-3
-14,-38,-1
2,-46,1
26,-45,0
7,-54,-9
-16,-46,-16
-76,-26,-25
-104,-8,-14
-128,-23,-19
-128,-4,-43
-128,62,-14
-128,35,-17
-64,4,-17
11,20,-2
39,36,4
60,42,4
46,58,-6
29,72,-4
-32,80,1
-128,67,2
-128,46,4
-128,30,-36
-128,24,6
-104,8,16
-43,-3,1
-11,-39,-4
5,-49,-3
32,-45,2
-10,-55,-18
-48,-45,-26
-92,-19,-24
-120,-25,-15
-128,-41,-13
-128,57,23
-128,71,27
-90,22,6
0,9,6
18,25,-12
35,38,-18
55,45,-4
50,54,-9
20,82,9
-76,93,36
-113,77,42
-128,57,48
-128,47,41
-128,37,46
-90,-1,24
-12,-17,15
-6,-28,4
16,-42,-5
36,-47,6
10,-56,-4
-91,-44,-32
-58,-9,2
-65,-6,8
-128,-34,-67
-128,63,-23
-128,56,-24
-84,-1,-21
-6,8,4
9,11,-1
32,35,-9
61,69,6
61,77,7
0,86,-13
-110,84,8
-128,75,23
-128,43,-35
-128,23,-27
-128,18,-5
-85,-9,-5
-27,-25,3
-7,-40,3
24,-37,1
23,-54,-12
2,-58,-21
-75,-34,-24
-98,-5,-7
-99,-18,-14
-128,-31,-67
-128,71,-25
-128,45,-26
-80,9,-26
-3,20,-3
22,25,1
53,43,7
58,49,8
44,63,-3
-5,78,-16
-48,76,10
-128,67,11
-128,36,-24
-128,23,-37
-128,25,1
-67,0,-3
-34,-10,2
-1,-44,5
20,-50,-2
15,-50,-7
-40,-52,-12
-70,-21,-8
-69,-14,-7
-111,-26,-19
-128,1,-71
-128,49,-42
-128,33,-36
-66,16,-23
-17,18,-4
42,26,7
56,43,12
61,51,13
37,78,-2
-55,90,-5
-100,82,7
-112,36,8
-128,-9,-54
-128,-6,-63
-124,7,18
-47,-17,7
-30,-18,-3
-9,-39,-5
27,-43,1
37,-50,-4
5,-64,-21
-85,-34,-20
-115,-13,-23
-128,-35,-54
-128,31,-61
-128,105,-39
-105,23,-19
-49,17,-16
-15,30,2
27,27,11
49,36,7
44,40,7
39,55,8
16,58,-20
-60,63,-17
-105,43,0
-128,54,-23
-128,54,-27
-128,22,2
-81,3,8
-44,-8,1
-17,-35,-24
-5,-41,-24
25,-66,-18
9,-62,-15
-27,-45,-22
-93,-14,-28
-105,-7,-3
-128,-24,-57
-128,73,-77
-106,36,-16
-106,-4,-37
-33,16,-14
27,21,3
42,32,2
58,44,3
48,59,-3
32,60,-11
-29,67,-7
-128,77,-15
-128,76,-6
-128,40,-37
-128,26,-11
-128,9,-3
-57,3,4
-29,-18,-6
-15,-34,-12
16,-57,-19
28,-85,-26
19,-70,-27
-29,-38,-38
-96,-34,-73
-128,-51,-117
-128,36,-128
-128,83,-52
-121,10,-58
-51,33,-32
42,52,17
54,53,19
58,70,19
51,68,6
18,69,-15
-68,68,-16
-104,60,12
-127,59,2
-128,26,-68
-128,19,-22
-114,6,2
-61,-7,5
-20,-33,1
-4,-45,1
13,-52,-6
14,-57,-10
-20,-53,-22
-102,-24,-43
-115,-7,-30
-128,-10,-32
-128,70,-99
-128,86,-65
-63,8,-28
1,12,-5
27,25,8
50,63,15
39,57,15
38,65,20
13,73,7
-72,85,-16
-96,88,-10
-128,62,-55
-128,35,-104
-128,21,-55
-88,23,0
-24,-6,23
-18,-26,8
-1,-47,0
12,-59,5
2,-59,-10
-82,-27,-36
-59,0,-2
-53,-12,-14
-128,-35,-102
-128,87,-57
-120,88,-22
-82,3,-39
8,27,-16
46,32,-5
58,32,-1
44,48,-5
37,61,-9
-3,85,-10
-105,85,-7
-128,69,-10
-128,61,-22
-128,44,-32
-128,32,-9
-78,-11,-16
-31,-30,-7
-12,-38,-1
23,-50,-4
21,-59,-9
-1,-56,-14
-78,-32,-32
-103,6,-9
-118,3,-9
-128,-8,-80
-128,63,-67
-110,59,-12
-66,-1,-29
-24,14,-12
30,24,4
59,37,6
61,42,5
42,57,0
-19,85,-10
-61,89,-7
-128,79,-13
-128,72,-32
-128,50,-20
-122,4,-6
-59,-18,-11
-24,-38,-5
7,-62,-6
19,-65,-9
11,-69,-14
-34,-49,-25
-96,-16,-13
-97,3,-1
-128,-19,-32
-128,38,-40
-128,86,-16
-108,8,-25
-46,4,-17
-10,5,-9
31,13,-2
47,35,0
52,48,3
34,76,-7
-27,87,-2
-93,82,-4
-128,66,-19
-128,53,-16
-128,46,-3
-107,1,-7
-38,-19,-9
-18,-30,-2
5,-48,5
29,-57,-1
26,-62,-6
-36,-39,-19
-105,-7,-20
-94,2,-7
-128,-39,-56
-128,39,-44
-128,73,-24
-100,8,-31
-28,16,-16
8,22,-3
51,29,7
54,35,6
50,57,7
18,74,-1
-93,92,4
-128,87,2
-128,50,-30
-128,43,-41
-128,30,-14
-83,-9,-9
-56,-20,-13
-14,-45,-6
13,-51,-2
20,-52,-2
7,-56,-13
-54,-35,-24
-91,-21,-29
-83,-2,7
-128,-38,-86
-128,2,-128
-111,68,-19
-71,-23,-26
-55,-17,-24
10,13,2
52,37,8
60,52,12
53,55,9
-3,81,-18
-54,87,-26
-127,54,-13
-122,54,39
-128,82,20
-128,53,-30
-91,-4,-11
-31,-18,4
-15,-56,-13
7,-50,-8
19,-52,-5
1,-55,-18
-71,-35,-39
-108,-19,-43
-128,8,-7
-128,11,-56
-128,51,-56
-115,21,-34
-51,5,-19
-32,10,-14
24,13,-3
57,34,2
57,43,2
35,53,-6
13,84,-13
-51,86,-5
-128,87,10
-128,50,-43
-128,40,-52
-128,29,10
-48,-6,-6
-35,-20,-17
-4,-53,-17
15,-58,-12
38,-62,-9
-4,-63,-21
-53,-46,-32
-113,-3,-20
-109,1,1
-128,-31,-62
-128,51,-47
-106,36,-3
-87,16,-14
-27,10,-7
42,21,7
54,29,11
57,43,7
32,76,-8
-1,90,-12
-87,78,10
-128,61,1
-128,51,-37
-128,22,-27
-111,9,10
-84,-3,-1
-22,-29,-3
21,-51,4
27,-45,2
28,-45,-4
-5,-46,-12
-56,-38,-22
-126,-7,-20
-109,-23,-8
-128,-38,-60
-128,58,-40
-110,20,-17
-87,-1,-21
-21,12,-5
36,24,-3
54,35,-2
71,52,-2
49,72,-13
19,81,-26
-89,75,-12
-128,62,11
-128,53,0
-128,46,-17
-116,8,11
-73,-9,6
-26,-26,-5
-8,-45,4
8,-42,4
25,-51,-7
12,-61,-13
-52,-43,-28
-100,-13,-16
-128,-13,-5
-128,15,-94
-128,79,-30
-118,42,-23
-63,15,-25
27,22,-8
58,27,-10
76,46,2
68,60,9
48,65,-4
-68,102,-17
-128,82,18
-128,43,-5
-128,32,-76
-128,32,-19
-103,10,-5
-34,-10,-6
-12,-38,-8
1,-49,-5
35,-46,-2
24,-57,-15
-5,-51,-15
-97,-16,-37
-122,2,-25
-128,-5,-38
-128,42,-76
-128,53,-20
-95,31,-15
-38,14,-11
22,21,5
46,33,12
65,42,14
56,57,-2
31,75,-20
-62,89,-18
-128,58,7
-128,44,-28
-128,34,-46
-117,5,5
-77,-13,-5
-29,-32,-7
9,-54,1
23,-52,-1
27,-50,-5
-28,-37,-22
-71,-24,-31
-83,-2,-5
-112,-24,-10
-128,-43,-73
-128,77,-39
-128,71,0
-109,0,-34
2,21,1
42,23,9
62,29,8
64,56,0
58,70,-5
-7,87,-9
-95,68,-10
-112,56,2
-128,45,-22
-128,47,-19
-128,30,-6
-90,-3,-2
-32,-38,-7
-21,-55,-8
-1,-54,-3
11,-61,-11
-8,-55,-16
-68,-23,-17
-76,-5,-10
-109,-17,-22
-128,-5,-76
-128,98,-27
-115,54,-11
-60,-1,-24
4,19,-4
36,27,3
62,37,8
59,55,0
45,67,-9
-20,86,-19
-120,86,3
-128,68,-8
-128,43,-45
-128,28,-4
-125,8,1
-50,-17,1
-14,-53,-1
-1,-56,-4
26,-55,-6
-8,-55,-21
-48,-43,-24
-90,-10,-24
-87,-16,-10
-128,-39,-36
-128,6,-80
-128,81,-20
-106,36,-17
-50,2,-18
-23,11,-7
37,25,-3
62,40,2
66,56,1
46,67,-11
-34,84,-15
-128,69,-19
-128,52,-31
-128,52,-40
-128,53,-32
-128,15,-11
-56,-2,-14
-34,-16,-10
-10,-44,-4
11,-62,-10
11,-71,-17
-31,-55,-25
-76,-17,-13
-70,-5,-4
-128,-37,-52
-128,28,-72
-128,97,-53
-124,48,-20
-37,29,-13
-3,32,-3
40,31,2
69,37,-1
67,47,-7
29,64,-17
-28,71,-20
-52,71,-6
-128,48,-3
-128,58,-59
-128,47,-50
-128,15,-7
-73,-29,-9
-36,-45,-6
3,-49,7
8,-47,4
11,-55,-1
-6,-58,-17
-71,-29,-28
-87,-12,-22
-112,-25,-5
-128,-14,-91
-128,67,-61
-104,29,-10
-54,-2,-19
-23,8,-13
37,22,1
53,42,-1
54,52,-7
43,78,-19
-37,91,-21
-85,85,-10
-118,55,13
-128,40,-28
-128,40,-17
-128,14,17
-103,0,9
-48,-28,-1
-21,-58,-12
-3,-56,-11
7,-56,-12
-32,-60,-26
-59,-45,-34
-58,-8,-15
-76,-6,3
-128,10,-77
-128,84,-30
-128,19,-13
-128,-7,-31
-44,4,-2
16,-1,9
27,13,2
57,47,-1
71,69,3
49,83,-14
-67,92,-20
-127,73,-7
-128,75,-5
-128,65,-23
-128,27,4
-100,2,-1
-35,-31,0
4,-50,1
14,-58,-2
22,-61,-11
-30,-56,-26
-76,-42,-36
-73,-10,-18
-98,-24,-9
-128,-48,-47
-128,50,-57
-107,74,2
-78,12,-18
-30,-3,-29
36,24,-4
45,28,-3
55,44,-5
39,73,-4
15,84,0
-92,84,-7
-122,57,-9
-128,43,-14
-128,58,-34
-128,15,2
-93,-6,0
-46,-29,-13
-16,-54,-15
0,-54,-12
16,-63,-12
10,-64,-16
-45,-46,-38
-68,-12,-33
-75,-7,-12
-128,-54,-73
-128,60,-98
-128,105,-38
-71,5,-18
-33,8,-23
-2,26,-10
38,40,4
61,62,9
60,74,10
15,77,-16
-67,77,-10
-95,72,10
-128,46,0
-128,22,-49
-128,29,-21
-112,-1,-4
-55,-20,-20
-44,-42,-23
-11,-64,-12
18,-67,-11
8,-67,-21
-61,-42,-36
-72,-5,-12
-74,-3,1
-128,-53,-76
-128,56,-52
-128,88,-9
-91,-7,-37
-32,12,-21
0,27,-10
44,46,1
50,69,1
55,81,3
12,93,-12
-111,74,-18
-128,62,-10
-128,17,-23
-128,24,-20
-128,19,11
-85,-4,2
-24,-22,-2
-11,-43,-9
4,-72,-14
23,-76,-10
15,-62,-13
-69,-30,-37
-95,-1,-17
-126,-25,-29
-128,11,-114
-128,101,-65
-95,41,-17
-71,20,-44
27,47,-7
64,54,3
73,49,7
63,56,3
32,83,3
-42,92,-4
-111,98,-6
-128,44,7
-128,39,-35
-128,37,-22
-117,5,-3
-69,-6,-12
-55,-17,-12
-21,-41,-4
6,-60,-3
9,-63,-2
-24,-53,-18
-88,-24,-31
-102,0,-17
-128,5,-35
-128,63,-87
-128,93,-42
-92,15,-33
-23,14,-16
14,15,3
43,31,7
57,57,4
60,66,4
30,83,-11
-63,92,-6
-124,91,-6
-128,56,-13
-128,25,-44
-128,32,-20
-101,-4,-8
-55,-18,-10
-34,-29,-6
5,-50,-4
24,-49,-10
24,-53,-9
-24,-49,-22
-119,-28,-52
-108,-6,-22
-126,-21,-6
-128,28,-69
-128,67,-40
-84,11,-19
-67,5,-18
-7,10,-8
43,29,1
52,52,2
50,59,5
30,60,-1
-47,79,2
-122,88,7
-128,72,2
-128,49,-5
-128,37,12
-112,7,7
-68,-1,8
11,-27,18
1,-50,-2
11,-55,-3
12,-60,-12
-38,-37,-18
-64,-25,-11
-79,-13,16
-128,-49,-5
-128,-9,-7
-128,58,27
-91,19,4
-45,9,4
13,8,-3
48,40,-11
70,45,-7
65,58,-6
-2,90,-16
-62,99,3
-128,77,25
-128,47,-9
-128,35,1
-128,20,24
-79,-3,9
-39,-18,11
-19,-52,-6
8,-50,-11
20,-54,-8
-1,-45,-6
-87,-29,-19
-114,-15,-10
-97,-18,15
-128,-20,-35
-128,25,-25
-113,22,-13
-78,0,-24
-36,1,-16
29,18,-5
60,42,-6
62,51,-3
48,67,-6
-37,92,0
-105,95,14
-128,66,28
-128,29,-24
-128,30,-21
-111,13,22
-76,2,10
-34,-21,-6
7,-50,1
23,-49,3
20,-54,0
-47,-43,-3
-83,-29,-2
-90,-17,-2
-128,-38,-26
-128,-39,-42
-128,28,-31
-113,13,-31
-74,11,-19
-9,13,-4
54,33,4
63,38,6
51,52,1
25,71,1
-61,89,7
-128,91,1
-128,63,3
-128,52,-4
-128,48,11
-116,2,-6
-80,-10,-6
-31,-39,-1
-7,-40,-1
7,-43,-5
11,-55,-11
-46,-37,-19
-74,-25,-23
-84,-1,11
-128,-28,-56
-128,1,-57
-128,36,-15
-85,7,-27
-48,4,-19
10,8,-8
46,33,6
63,45,13
69,65,21
-15,91,-15
-107,99,-36
-120,63,15
-128,49,-33
-128,43,-48
-128,21,5
-53,0,2
-28,-15,-7
-19,-54,-20
17,-49,-11
23,-51,-5
0,-52,-12
-31,-43,-20
-112,-23,-30
-128,-24,-15
-128,-21,-38
-128,59,-52
-117,25,-41
-69,27,-32
-11,15,-16
46,34,4
57,42,11
53,56,18
20,69,4
-19,80,1
-108,85,22
-128,44,2
-128,18,-46
-128,11,-35
-102,7,18
-70,3,8
-27,-13,-8
2,-35,-1
21,-35,3
31,-40,3
-12,-38,-2
-54,-33,-19
-77,-29,-23
-103,-59,-25
-128,-72,-70
-128,11,-67
-102,16,-23
-64,2,-21
-24,10,-24
60,39,5
72,43,10
57,53,-1
4,76,-7
-43,88,5
-128,86,7
-128,45,-21
-128,44,-30
-128,59,11
-94,19,10
-66,4,1
-18,-37,-2
8,-47,0
18,-35,0
15,-43,-11
-33,-51,-28
-66,-36,-37
-74,-11,3
-128,-48,-43
-128,-15,-82
-128,59,-17
-116,32,-4
-75,10,-19
3,24,2
51,40,11
60,46,7
53,56,0
35,61,0
-22,75,-1
-117,78,2
-128,69,8
-128,41,-14
-128,55,-2
-128,38,8
-66,2,5
-36,-44,-6
-29,-61,-13
0,-53,-6
6,-58,-7
-20,-55,-19
-79,-29,-33
-77,1,7
-115,-10,0
-128,16,-84
-128,42,-18
-108,14,-16
-60,12,-27
18,13,-2
50,30,1
60,66,-4
58,78,-4
36,87,-8
-75,90,8
-128,81,16
-127,53,41
-128,-1,-15
-128,37,18
-97,14,39
-31,-4,12
-7,-33,-21
22,-48,-20
47,-48,-21
15,-62,-25
-13,-59,-30
-88,-29,-32
-117,-36,-3
-128,-70,-41
-128,34,-71
-115,45,-4
-110,4,-24
-30,32,-3
6,38,7
56,50,7
59,51,5
33,67,-17
8,73,-20
-61,75,4
-128,72,-15
-128,52,-7
-128,20,-34
-128,48,-24
-105,12,13
-41,-11,12
-28,-26,4
0,-57,-2
25,-55,8
25,-59,6
-28,-48,-23
-119,-27,-42
-121,-14,-30
-128,-19,-26
-128,67,-68
-128,84,-37
-83,-14,-36
-11,12,-16
21,23,-5
60,51,10
59,59,8
51,71,4
1,75,-8
-87,77,-1
-128,75,11
-128,39,-10
-128,23,-42
-128,31,-15
-97,9,6
-40,-10,1
-23,-32,0
12,-59,-1
34,-55,2
20,-57,-6
-50,-50,-26
-95,-22,-33
-76,-15,-22
-128,-39,-79
-128,66,-90
-128,92,-46
-95,0,-42
-28,15,-10
17,31,13
47,54,24
48,68,18
43,82,16
0,72,-6
-100,63,-21
-128,57,-6
-128,54,-18
-128,44,-52
-128,42,-16
-69,13,-1
-50,-1,-9
-5,-26,-4
28,-51,-3
32,-60,-7
22,-73,-13
-32,-57,-23
-80,-39,-37
-93,-1,-10
-128,-57,-60
-128,-54,-128
-128,111,-44
-98,16,-25
-70,2,-29
48,49,16
78,52,19
77,47,9
39,67,-16
-9,79,-8
-51,81,2
-128,79,1
-128,30,-33
-128,28,-32
-128,23,9
-78,-4,2
-51,-11,4
-3,-48,3
16,-47,-2
19,-43,-2
-6,-52,-14
-91,-37,-40
-113,-30,-37
-107,-12,-6
-128,-22,-62
-128,22,-71
-128,18,-45
-53,-6,-24
-18,3,-10
44,38,8
60,67,7
58,69,10
38,80,1
-40,89,-5
-87,89,10
-128,83,-1
-128,47,-53
-128,32,-44
-102,18,8
-55,-6,-21
-22,-20,-11
20,-62,-10
27,-50,-1
15,-52,-3
-32,-42,-12
-50,-31,-17
-62,-43,-24
-128,-68,-95
-128,-42,-101
-128,81,-56
-111,17,-37
-11,26,-4
20,35,6
50,35,10
61,39,10
46,61,-1
13,80,-9
-20,85,-19
-85,79,8
-128,67,-27
-128,69,-90
-128,56,4
-97,23,7
-83,0,-2
-22,-28,4
11,-44,2
14,-47,-2
-1,-59,-13
-49,-49,-28
-94,-39,-48
-96,-1,-21
-123,-14,-10
-128,-16,-75
-128,45,-42
-76,7,-23
-55,1,-22
18,12,-9
59,46,0
61,51,2
49,68,2
-1,97,12
-67,99,19
-128,72,14
-128,42,2
-128,49,-23
-128,31,-11
-95,-10,-10
-71,-13,-11
-10,-35,-1
14,-44,-5
20,-42,-6
11,-51,-7
-42,-42,-22
-82,-36,-36
-111,-17,-24
-128,-27,-41
-128,-3,-67
-128,46,-40
-104,9,-33
-50,3,-17
10,4,-3
50,31,2
50,46,0
51,70,20
43,77,12
-66,96,-23
-128,74,5
-128,54,10
-128,21,-45
-128,21,-9
-106,6,2
-56,-9,-10
-19,-27,-8
-5,-43,0
17,-45,7
26,-49,4
12,-47,-2
-100,-34,-43
-128,-13,-50
-121,-20,-53
-128,12,-85
-128,24,-62
-75,11,-36
-27,8,-12
23,21,-1
52,38,13
66,52,23
29,67,9
-9,74,-5
-112,84,-8
-121,66,16
-128,39,-26
-128,31,-36
-90,15,17
-74,0,9
-35,-21,1
-6,-58,-2
8,-57,1
17,-56,4
-16,-46,-16
-56,-36,-23
-101,-12,-13
-128,-21,-62
-128,3,-83
-128,67,-25
-101,3,-29
-64,9,-21
4,14,4
24,19,5
50,41,2
57,64,11
25,77,-3
-17,81,-2
-125,93,25
-128,73,11
-128,45,-12
-128,20,-8
-110,8,7
-54,-14,-2
-3,-42,-2
12,-49,-4
23,-44,-3
5,-48,-15
-18,-47,-18
-93,-26,-27
-128,-12,-11
-128,-32,-33
-128,31,-58
-128,58,-23
-99,21,-27
-30,18,-12
34,30,8
50,41,10
64,54,12
52,62,15
31,66,5
-59,94,2
-128,93,-12
-128,72,-19
-128,73,3
-128,35,13
-102,16,1
-44,-20,-1
-16,-49,-7
-3,-48,-8
15,-47,-12
-18,-51,-26
-54,-44,-32
-92,-18,-25
-109,-17,-4
-128,-33,-53
-128,56,-66
-95,24,-23
-67,0,-26
-16,11,-14
46,33,4
63,47,9
63,75,8
25,83,-13
-31,89,-13
-128,93,-5
-128,42,-5
-128,19,-36
-128,30,-15
-75,0,11
-53,-7,-1
-29,-21,-5
-13,-35,-3
18,-53,0
25,-60,5
6,-54,6
-104,-29,-30
-120,-3,-8
-123,-14,-11
-128,-4,-79
-128,50,-34
-93,26,-28
-42,8,-26
37,32,-7
62,40,-2
60,50,9
51,80,8
26,87,-9
-110,97,-15
-128,66,-2
-128,49,-28
-128,40,-58
-128,22,-16
-83,0,-3
-23,-12,-2
2,-50,-10
19,-53,-10
38,-52,-9
9,-55,-17
-32,-44,-31
-128,-17,-55
-123,2,-18
-128,-14,-54
-128,43,-59
-101,21,-24
-75,6,-19
-26,11,-5
41,31,10
60,41,17
60,46,12
27,66,-5
-9,78,-7
-109,89,18
-128,60,-9
-128,38,-27
-128,21,-23
-107,-5,-1
-84,-14,-3
-22,-38,-2
9,-61,-9
23,-54,-10
19,-56,-10
-34,-40,-17
-72,-26,-26
-127,-3,-14
-128,-4,-5
-128,-10,-80
-128,62,-26
-85,30,-13
-58,-13,-21
8,11,2
40,21,7
62,47,3
54,72,16
43,77,11
-62,98,-11
-128,84,1
-128,67,9
-128,41,-43
-128,19,-11
-75,-5,-4
-46,-11,-1
-5,-35,-1
9,-47,2
26,-49,2
9,-59,-14
-16,-52,-23
-101,-29,-42
-128,-11,-32
-128,-18,-48
-128,40,-70
-117,45,-31
-82,21,-24
-25,19,-8
41,35,15
65,39,23
63,47,19
28,59,6
7,66,-1
-60,91,8
-128,68,-52
-128,55,-80
-128,22,-40
-127,19,10
-92,5,5
-49,-20,-4
4,-44,1
21,-42,6
22,-54,1
-9,-50,-9
-58,-38,-24
-108,-11,-17
-102,-34,-14
-128,-50,-76
-128,41,-76
-79,39,-22
-60,4,-33
-21,8,-29
19,34,-12
65,37,7
44,58,-4
36,79,-3
10,81,-2
-84,90,14
-128,98,1
-128,78,9
-128,50,-31
-128,28,-24
-77,-2,-3
-23,-39,-2
-26,-54,-10
-8,-40,-12
-4,-40,-22
-13,-43,-46
-28,-45,-51
-37,-22,-24
-65,-21,-22
-128,-29,-82
-128,9,-51
-128,4,-48
-77,22,-18
-15,16,-1
8,25,4
31,47,8
37,63,12
32,74,14
-19,89,-1
-110,84,1
-116,74,12
-128,61,-21
-128,56,-6
-125,39,15
-53,1,10
-26,-26,-4
-22,-41,-9
6,-47,-8
18,-58,-13
-5,-54,-26
-86,-40,-59
-72,-26,-28
-109,-34,-33
-128,-14,-79
-128,84,-21
-101,51,-4
-62,8,-25
13,50,1
47,54,16
60,51,17
51,71,6
19,73,-1
-59,75,4
-120,74,6
-128,69,-4
-128,43,-45
-128,39,-7
-128,23,-4
-56,-10,0
-26,-31,-2
5,-67,-6
13,-62,-11
3,-56,-12
-46,-35,-22
-81,-13,-20
-93,-8,-11
-128,-21,-50
-128,55,-65
-128,70,-41
-75,8,-28
-32,4,-22
2,15,-11
61,38,11
65,52,10
56,62,6
10,79,-9
-77,80,2
-124,78,-1
-128,64,-15
-128,23,-31
-128,29,-3
-84,4,15
-39,-16,8
-23,-36,3
5,-64,-8
25,-56,-6
16,-57,-10
-49,-37,-29
-88,-11,-25
-83,-5,-2
-128,-39,-79
-128,74,-54
-124,92,-11
-89,-7,-40
6,11,-6
34,28,7
55,36,12
49,59,14
41,67,16
-5,70,-1
-103,74,-12
-128,65,-6
-128,39,-26
-128,27,-11
-128,22,5
-93,-1,6
-36,-20,9
-21,-41,5
-7,-61,-1
2,-63,-3
-20,-62,-22
-68,-40,-16
-76,-27,-11
-128,-23,-20
-128,14,-18
-128,89,0
-128,36,-12
-36,-3,-5
-1,4,-1
14,25,-16
50,47,-9
61,54,-8
51,71,-6
-23,74,-11
-76,73,-3
-114,78,34
-128,46,-15
-128,43,-15
-128,50,45
-85,3,5
-51,-22,1
-4,-63,2
2,-63,-12
5,-62,-15
-48,-62,-42
-102,-27,-45
-80,-7,-24
-128,-31,-48
-128,74,-55
-128,119,-18
-87,19,-17
-41,17,-16
0,28,-6
31,52,-6
52,56,2
61,58,6
48,72,12
-113,92,3
-128,97,-15
-128,52,52
-128,34,11
-128,24,28
-55,10,44
-17,-4,21
4,-17,16
15,-40,-4
1,-46,-28
-1,-50,-23
-46,-35,-6
-128,-23,-30
-128,-16,-16
-128,1,1
-128,48,-24
-128,61,-12
-50,16,-15
-12,23,-11
62,40,1
78,45,1
64,54,-5
44,79,-2
-2,98,5
-56,108,14
-128,111,-25
-128,92,-18
-128,76,-12
-128,32,-32
-76,-8,-14
-49,-30,-9
-21,-47,-9
-6,-49,-6
-3,-59,-8
-26,-47,-19
-100,-14,-14
-121,0,-11
-128,18,-25
-128,56,-62
-128,76,-41
-75,33,-21
-25,11,-11
11,15,-4
62,32,2
75,38,-10
72,40,-12
31,61,-22
-43,84,4
-128,92,-19
-128,124,4
-128,57,1
-128,53,-1
-82,5,0
-11,-28,3
-7,-49,-8
1,-61,-25
11,-60,-27
2,-55,-26
-47,-36,-32
-128,-3,-33
-128,12,-18
-128,-25,-45
-128,89,-61
-128,84,-30
-72,10,-12
-10,20,5
24,22,13
73,32,12
68,44,7
45,54,-9
17,77,-19
-57,77,18
-128,88,9
-128,79,-9
-128,57,-2
-128,26,-17
-73,-10,2
-21,-26,10
-6,-41,9
18,-55,-4
20,-54,-7
-17,-52,-5
-78,-38,-32
-96,-29,-43
-89,-24,-3
-128,-43,-96
-128,5,-92
-126,67,-18
-68,12,-27
-42,11,-18
31,29,13
64,35,10
53,50,5
46,75,13
-3,80,0
-82,90,-6
-128,87,5
-128,57,-16
-128,39,-41
-127,20,4
-63,-10,3
-36,-20,1
13,-43,4
32,-45,4
35,-52,2
26,-65,-11
-75,-43,-41
-128,-29,-57
-128,-3,-20
-128,-18,-84
-128,25,-78
-98,94,0
-51,4,-20
-14,1,-11
66,41,19
60,44,13
54,54,4
34,71,-5
-41,77,-2
-89,74,-15
-110,54,1
-128,47,-16
-128,51,-49
-128,32,-18
-75,3,-13
-43,-14,-4
-5,-53,5
10,-54,6
19,-48,7
-16,-52,-7
-55,-43,-23
-106,-20,-30
-80,-1,12
-128,-18,-22
-128,13,-72
-109,38,-21
-82,12,-19
-38,-4,-16
39,26,9
65,38,8
67,53,3
49,65,-7
26,77,-7
-70,84,7
-128,101,4
-128,95,15
-128,52,-9
-128,27,2
-87,7,1
-18,-24,-3
-7,-54,-20
3,-52,-23
15,-57,-18
-18,-45,-24
-57,-31,-29
-112,-7,-17
-128,-14,-31
-128,-17,-70
-128,57,-48
-87,45,-9
-53,23,-6
-19,10,-11
57,31,11
67,38,12
55,63,4
29,83,-5
-14,101,5
-128,110,6
-128,68,-11
-128,45,-34
-128,12,-18
-77,-9,1
-50,-18,1
-13,-39,-2
20,-48,-5
27,-54,-10
11,-61,-20
-69,-44,-41
-128,-22,-49
-109,15,-1
-128,1,-11
-128,35,-67
-103,61,-15
-71,16,-19
-35,6,-8
31,33,6
61,47,17
69,47,17
33,57,1
8,63,-9
-82,79,-12
-128,65,-18
-128,47,-42
-128,37,-65
-128,31,-11
-105,16,-8
-33,-11,-1
-18,-53,-10
-9,-59,-13
14,-54,-11
-5,-62,-19
-36,-53,-27
-97,-27,-37
-125,-13,-26
-128,-22,-56
-128,109,-72
-100,29,-26
-83,1,-30
-20,19,-7
37,29,9
55,40,11
52,61,14
38,69,4
23,78,-3
-74,81,-5
-128,72,9
-128,51,0
-128,5,-53
-128,0,-1
-87,-4,8
-29,-21,1
-3,-49,-5
11,-49,-3
23,-49,-8
-12,-48,-24
-47,-38,-32
-103,-17,-28
-128,-29,-27
-128,-35,-70
-128,59,-50
-128,64,-20
-88,26,-21
4,47,-5
47,57,2
81,61,12
61,64,1
40,69,-13
-39,90,4
-119,87,4
-113,65,13
-128,19,-28
-128,15,-43
-128,20,-14
-86,-8,5
-37,-21,5
-11,-29,8
19,-52,6
8,-67,-11
-3,-67,-14
-38,-43,-26
-124,-19,-52
-128,-13,-57
-128,18,-113
-128,103,-64
-116,42,-48
-35,15,-26
34,45,10
45,40,6
50,62,-3
48,76,-2
36,78,-12
-25,83,-12
-115,71,-2
-128,71,2
-128,52,-69
-128,25,-25
-111,17,6
-61,-8,-4
-10,-33,3
7,-52,3
27,-64,-9
5,-59,-20
-19,-52,-26
-85,-24,-40
-92,-4,-20
-120,-22,-27
-128,-2,-113
-128,103,-38
-113,41,-36
-58,5,-27
26,36,11
51,38,16
59,55,11
55,62,11
35,65,-1
-10,84,-9
-71,86,-3
-128,81,-17
-128,54,-42
-128,41,-48
-128,28,-5
-63,-6,-12
-43,-25,-15
-7,-61,-8
22,-66,-10
17,-69,-12
1,-59,-12
-77,-25,-20
-116,-3,-21
-128,-11,-15
-128,-12,-128
-128,69,-82
-72,36,-16
-38,18,-23
23,38,0
95,46,17
72,59,1
55,65,-7
14,78,-24
-78,99,-4
-128,111,-13
-128,70,-4
-128,19,-57
-128,31,-38
-104,0,-10
-46,-14,-11
-22,-25,-7
22,-57,-1
29,-54,-1
18,-59,-6
-49,-45,-28
-128,-13,-36
-99,5,-7
-128,-38,-35
-128,33,-63
-128,51,-39
-88,7,-31
-12,18,-11
33,35,1
87,50,-1
70,61,-5
55,73,-4
-11,94,-2
-113,97,-10
-119,76,5
-128,46,-5
-128,58,-8
-128,89,3
-125,24,-10
-73,-36,-4
-31,-60,-14
1,-58,-17
10,-55,-17
-2,-54,-20
-61,-33,-37
-73,-19,-25
-83,-5,-3
-128,-30,-62
-128,9,-60
-128,65,0
-87,12,-22
-58,13,-20
16,24,3
67,35,9
66,43,7
54,60,-3
2,82,-16
-46,90,4
-128,95,-9
-128,77,-10
-128,51,-14
-128,22,13
-62,-8,5
-35,-18,2
0,-52,-3
20,-57,-10
25,-56,-11
2,-63,-14
-101,-28,-31
-128,-14,-29
-128,-18,-34
-128,7,-80
-128,60,-47
-94,44,-20
-41,8,-18
8,23,-6
94,39,7
60,36,-13
42,52,-17
14,72,-15
-81,93,-4
-110,84,20
-128,34,-14
-128,55,-29
-128,50,2
-101,18,17
-54,-5,5
-31,-27,-1
-14,-62,-14
2,-56,-19
4,-61,-19
-26,-49,-26
-86,-20,-29
-105,-1,-18
-128,-6,-19
-128,14,-86
-128,106,-45
-85,-5,-32
-65,9,-30
11,30,9
62,41,20
70,47,19
59,63,20
-5,74,-9
-42,86,-8
-101,86,13
-128,74,-45
-128,53,-77
-128,24,-37
-86,2,-2
-49,-6,0
-10,-46,-7
17,-53,-10
29,-44,-6
12,-53,-10
-43,-37,-28
-71,-23,-30
-96,-7,-8
-128,-45,-79
-128,0,-124
-128,112,-29
-82,2,-28
-54,9,-22
32,25,11
65,29,8
61,42,2
48,58,-8
13,77,-16
-14,84,-5
-93,72,-1
-128,71,-28
-128,61,-58
-128,24,-40
-86,-4,-4
-43,-11,-3
-7,-48,-6
24,-40,-1
35,-38,1
15,-58,-18
-49,-34,-30
-72,-18,-31
-88,-15,-2
-128,-59,-124
-128,-1,-105
-128,89,-7
-100,45,-23
-39,13,-22
52,36,13
65,32,15
59,44,3
26,59,-19
2,72,-17
-72,91,-2
-128,73,6
-128,45,-2
-128,8,-39
-128,16,10
-102,-5,8
-45,-15,-7
13,-31,-1
31,-35,-2
43,-51,-8
11,-60,-11
-26,-43,-16
-128,-5,-28
-128,-15,5
-128,-34,-15
-128,61,-8
-116,33,1
-91,8,-5
-10,1,-7
47,18,0
60,32,-4
68,58,-8
55,86,-9
15,97,-13
-123,89,-16
-128,46,-23
-128,43,-27
-128,31,-9
-96,-7,-19
-63,-15,-22
-14,-37,-22
22,-42,-17
33,-44,-13
19,-53,-14
-56,-39,-28
-99,-25,-31
-90,-3,6
-128,-42,-64
-128,-4,-82
-125,74,-14
-88,-1,-31
-72,5,-33
8,21,-5
57,30,4
59,39,-3
49,61,-10
35,69,-19
0,73,-16
-120,82,-5
-128,89,-31
-128,72,-6
-128,45,-10
-128,19,-18
-54,-23,-16
-8,-42,-10
-3,-48,-8
15,-54,-5
15,-70,0
-4,-59,-5
-86,-27,-31
-113,-10,-7
-128,-40,-34
-128,11,-120
-107,63,-26
-74,28,-28
-22,27,-19
60,38,6
68,49,8
51,54,0
25,59,0
10,62,2
-99,78,2
-128,50,-16
-128,35,-27
-128,33,-37
-108,6,5
-76,-6,5
-31,-20,0
7,-56,3
20,-64,-6
28,-68,-19
-4,-55,-19
-31,-35,-16
-120,-1,-44
-128,-9,-23
-128,-18,-40
-128,67,-83
-80,19,-33
-54,-6,-28
3,10,-4
57,32,17
60,44,22
48,59,19
1,70,-8
-46,74,-15
-128,66,-20
-123,26,-8
-128,9,-50
-128,14,-59
-78,-12,8
-37,-13,13
-19,-45,-6
16,-53,-3
35,-50,3
23,-56,-3
-9,-44,-12
-110,-22,-51
-101,-8,-7
-108,-35,-5
-128,4,-88
-128,38,-43
-96,12,-24
-54,20,-22
23,32,-2
51,46,9
63,58,16
33,71,0
-16,80,-5
-128,69,-19
-121,29,-4
-128,2,-44
-128,5,-58
-73,-10,7
-46,-19,6
-31,-36,-10
2,-52,-5
22,-47,2
32,-55,4
-35,-47,-21
-90,-34,-42
-79,1,-15
-123,-34,-44
-128,-22,-125
-128,56,-60
-72,37,2
-63,23,-9
2,24,0
58,43,18
61,46,18
41,56,3
-29,80,-20
-85,80,-25
-105,54,10
-128,11,-62
-128,7,-74
-128,-4,-9
-52,-4,3
-44,-21,-11
-16,-66,-18
9,-71,-1
28,-56,1
-14,-57,-16
-85,-25,-38
-102,-6,-24
-128,5,-25
-128,25,-77
-128,43,-57
-95,48,-15
-70,42,-13
-14,14,-12
48,38,9
65,40,16
62,48,10
6,91,-11
-46,102,-13
-121,82,-1
-128,34,-26
-128,21,-57
-128,14,-15
-59,2,9
-35,-14,0
-22,-65,-17
23,-53,-5
31,-53,1
-15,-48,-14
-91,-18,-34
-93,-3,-6
-121,12,13
-128,5,-63
-128,53,-41
-114,25,-21
-55,9,-19
-23,14,-9
34,17,-5
59,48,-2
58,56,-2
44,66,-9
-48,102,-4
-112,105,9
-128,79,17
-128,41,-16
-128,40,-5
-87,17,25
-32,-5,5
-22,-14,-4
1,-40,-8
25,-46,-9
26,-52,-10
-41,-49,-22
-128,-33,-27
-127,-15,2
-128,-14,-17
-128,62,-35
-128,60,-21
-75,9,-22
-17,18,-14
17,19,-7
56,36,3
62,42,8
53,58,3
7,91,2
-44,116,15
-128,110,-7
-128,56,-46
-128,31,-57
-128,13,-4
-72,-11,-17
-47,-25,-17
-8,-51,-7
16,-54,-4
22,-60,-7
10,-67,-15
-93,-34,-37
-128,-10,-49
-128,8,-22
-128,18,-66
-128,70,-61
-108,38,-35
-39,10,-16
-7,7,-6
40,21,5
62,52,15
67,54,20
31,66,-5
-51,91,-4
-119,95,-5
-128,52,-21
-128,28,-39
-128,31,-12
-105,4,7
-44,-12,3
-26,-28,1
-1,-54,0
21,-54,0
18,-61,-2
-37,-52,-18
-128,-24,-35
-127,1,-15
-128,-15,-33
-128,68,-58
-128,65,-48
-86,19,-31
-33,11,-15
-8,7,-5
40,29,6
47,47,17
50,57,26
35,68,7
-55,87,-10
-128,83,-10
-128,49,8
-128,38,-19
-128,18,-41
-114,4,7
-76,0,6
-24,-15,4
5,-50,4
21,-56,1
26,-57,-12
-13,-51,-20
-54,-37,-26
-114,-16,-29
-128,-50,-41
-128,-41,-75
-128,57,-37
-86,34,-10
-69,22,-20
8,34,0
71,36,10
66,42,2
44,64,-3
26,72,-2
-4,79,2
-109,79,12
-128,60,36
-128,48,21
-128,43,18
-101,29,39
-62,17,30
-30,-19,-4
4,-59,-16
20,-71,-21
25,-66,-25
-17,-51,-29
-64,-35,-32
-114,-1,-26
-128,-19,-21
-128,-40,-81
-128,97,-51
-75,51,12
-80,3,-20
-6,33,-4
59,49,17
61,51,17
52,67,11
22,72,5
-9,75,2
-97,78,-1
-128,72,16
-128,65,0
-128,56,-26
-128,41,-8
-104,9,2
-37,-24,1
-6,-70,-11
10,-61,-10
19,-57,-9
-19,-52,-24
-53,-41,-30
-100,-14,-24
-105,-6,-14
-128,-14,-50
-128,85,-43
-94,22,-14
-72,9,-17
-8,12,-4
34,17,2
58,42,2
51,56,-1
46,65,-4
-6,88,-6
-119,88,6
-128,89,13
-128,61,-5
-128,39,-17
-128,37,13
-54,8,17
-33,-22,-4
-20,-41,-4
19,-56,-2
21,-58,-5
2,-60,-10
-90,-39,-32
-109,-11,-15
-110,-10,7
-128,-3,-86
-128,88,-24
-87,56,-4
-56,11,-18
28,27,4
55,33,10
60,42,5
47,69,2
26,68,-1
-55,73,12
-128,92,19
-128,68,10
-128,26,-26
-128,17,15
-105,10,16
-46,-9,9
-10,-32,9
8,-38,11
29,-44,5
6,-74,-14
-22,-66,-19
-119,-29,-30
-125,-14,0
-128,-25,-21
-128,35,-33
-128,43,-31
-70,3,-17
-16,2,-4
10,7,2
53,35,6
61,52,9
51,60,2
5,80,-9
-100,103,14
-128,118,13
-128,62,-8
-128,32,-8
-128,26,6
-71,-8,-3
-20,-30,-7
-6,-44,-7
19,-48,-8
28,-44,-5
18,-43,-5
-45,-27,-7
-117,-4,-10
-118,-14,2
-128,-34,-60
-128,71,-34
-128,44,-19
-72,0,-22
-4,10,-10
29,16,-6
67,40,-6
61,57,-8
47,67,-18
-9,85,-16
-124,85,6
-128,83,7
-128,52,7
-128,47,18
-119,24,18
-45,-8,2
-7,-46,-5
1,-57,-9
22,-50,-10
9,-58,-13
-20,-52,-17
-82,-23,-18
-97,-23,10
-128,-39,-32
-128,80,-70
-103,48,-11
-81,17,-20
-25,15,-8
61,21,17
75,32,16
58,49,4
50,66,4
-1,88,-9
-125,113,14
-128,102,28
-128,70,-10
-128,39,1
-111,28,22
-41,-4,7
-33,-39,-8
-23,-53,-7
18,-53,-1
21,-60,-9
10,-56,-14
-60,-38,-17
-114,-12,-9
-128,-27,-5
-128,18,-69
-128,78,-32
-99,39,-16
-42,18,-5
22,13,8
52,24,10
59,48,3
52,59,4
30,67,-5
-84,93,-7
-128,68,5
-128,38,-6
-128,46,-12
-105,21,37
-59,3,35
-17,-16,2
-10,-48,-2
6,-54,0
29,-50,0
-2,-50,-10
-35,-41,-12
-88,-14,-15
-128,-31,-14
-128,-51,-54
-128,66,-80
-102,47,-22
-71,8,-25
-21,12,-14
41,30,13
55,32,13
58,55,10
32,67,-13
-5,74,-22
-107,75,-16
-128,51,-21
-128,51,-27
-128,48,-11
-128,31,4
-56,-12,-3
-30,-50,-16
-29,-69,-18
10,-62,-17
22,-58,-12
-5,-51,-18
-86,-31,-39
-100,-11,-11
-128,-16,-16
-128,-4,-95
-128,96,-20
-90,51,-10
-42,8,-16
29,28,2
54,29,6
55,41,1
45,69,-11
32,75,-11
-70,88,11
-128,75,13
-128,47,-5
-128,20,-14
-128,20,12
-100,4,11
-46,-13,6
-12,-46,1
0,-55,0
17,-56,-6
10,-61,-9
-2,-54,-7
-68,-22,-17
-128,22,-51
-128,63,-47
-128,85,-15
-113,40,-29
-78,27,-23
-14,8,-9
38,26,2
54,32,8
77,50,19
44,75,-4
4,82,-20
-113,87,12
-128,105,18
-128,81,9
-128,27,2
-78,-7,14
-46,-12,18
-20,-38,6
-17,-48,0
4,-49,-4
7,-56,-11
0,-48,-8
-85,-44,-22
-128,-5,-25
-128,-1,-8
-128,28,-28
-128,34,-44
-61,4,-20
-42,5,-12
-10,7,-4
17,22,2
46,47,10
47,65,26
45,68,25
-37,76,-8
-128,85,-3
-128,63,32
-128,34,-10
-128,20,-3
-60,-3,18
-36,-8,15
-19,-46,-5
-8,-58,-8
18,-66,-11
22,-53,-15
2,-42,-14
-118,-36,-37
-128,-19,-30
-128,-29,-35
-128,12,-52
-114,44,-16
-60,22,-11
-27,13,-23
63,46,-2
87,48,3
63,67,3
22,66,-4
-20,61,-9
-128,76,17
-128,35,21
-128,21,-14
-128,19,-1
-100,18,30
-74,15,20
-33,-12,5
3,-48,4
11,-59,1
13,-68,-1
-25,-45,3
-67,-32,4
-128,-7,1
-128,-9,-12
-128,-11,-31
-128,52,-50
-81,-8,-46
-55,-10,-35
-1,11,-9
31,26,1
60,47,3
51,71,8
44,74,7
-2,62,-6
-128,86,6
-128,91,-1
-128,55,0
-128,25,-3
-125,1,-1
-36,-21,11
-6,-49,-1
-4,-57,-7
9,-66,-16
11,-63,-17
-4,-56,-22
-102,-34,-36
-128,-3,-22
-128,-5,-31
-128,74,-33
-127,45,-31
-69,19,-27
12,21,-3
62,35,1
79,39,5
57,56,3
35,59,0
-17,67,-5
-128,90,25
-128,33,24
-128,7,-15
-128,41,-22
-112,22,24
-72,1,11
-29,-17,-3
-5,-50,6
13,-53,9
35,-53,1
10,-53,-8
-34,-43,-9
-128,-5,5
-128,1,-74
-128,11,-96
-128,55,-60
-49,14,-33
-28,4,-25
24,3,-15
81,29,2
72,38,1
51,65,8
14,84,-5
-34,101,-7
-128,119,17
-128,78,9
-128,52,-31
-128,30,-15
-128,14,-3
-54,-7,-4
-12,-41,-3
4,-58,1
24,-50,-1
16,-61,-11
-1,-55,-11
-105,-24,-15
-128,-4,-28
-128,-2,-23
-128,44,-41
-128,50,-24
-87,22,-21
-30,11,-15
30,7,-7
53,20,-7
60,40,-1
54,65,0
53,71,-4
-40,95,-3
-128,102,-4
-128,92,-8
-128,82,-21
-128,43,-15
-116,23,-7
-55,-22,-5
-29,-52,-5
-13,-54,-1
3,-55,-3
-18,-54,-10
-47,-42,-15
-111,-6,-16
-112,4,3
-128,-20,-55
-128,67,-80
-101,59,-18
-78,25,-25
-10,22,-13
68,34,1
78,38,2
49,62,2
36,72,-4
18,83,-8
-72,97,7
-128,74,5
-128,52,-14
-128,43,-39
-128,21,-23
-91,-11,-10
-24,-18,5
-1,-39,4
18,-49,-1
25,-58,-1
15,-64,-6
-60,-46,-21
-128,-10,-31
-128,0,-21
-128,-7,-58
-128,70,-43
-117,35,-37
-44,-1,-19
18,8,1
42,17,4
54,47,3
50,68,12
40,74,2
-43,96,-13
-128,85,1
-128,76,11
-128,45,-46
-128,24,-18
-115,4,-2
-56,-16,-13
-12,-51,-12
9,-58,-8
29,-49,-7
14,-55,-8
-7,-48,-10
-96,-27,-26
-125,-12,-2
-128,-28,-13
-128,12,-60
-128,52,-20
-104,9,-32
-49,10,-24
24,12,-8
58,29,-3
70,60,-2
57,67,-8
30,77,-16
-58,93,14
-128,92,4
-128,68,-13
-128,29,-7
-99,14,18
-67,-6,6
-21,-22,1
13,-54,2
22,-56,-2
26,-59,-14
8,-63,-20
-74,-37,-22
-109,-8,-14
-118,-14,-11
-128,-26,-62
-128,80,-33
-125,53,-20
-57,9,-21
17,19,2
48,23,7
71,38,0
52,63,-2
34,66,-6
-25,88,0
-128,110,8
-128,92,-13
-128,38,-30
-128,25,-10
-105,11,0
-19,-15,4
6,-49,-6
15,-52,-10
27,-53,-15
-2,-63,-23
-36,-51,-27
-128,-18,-31
-128,-10,-3
-128,-37,-32
-128,40,-48
-118,20,-31
-69,6,-26
-4,12,-8
56,35,3
70,45,5
61,60,13
44,86,-2
2,98,-4
-128,99,4
-128,88,-21
-128,73,-38
-128,51,-30
-122,9,-28
-84,-4,-19
-32,-43,-10
-9,-62,-8
3,-61,-8
-4,-60,-22
-60,-48,-38
-76,-34,-37
-83,-4,-24
-128,-11,-115
-128,44,-105
-97,41,-40
-70,13,-44
-20,18,-17
29,27,0
37,41,5
49,66,24
47,83,28
22,89,11
-114,95,-29
-128,75,-16
-128,46,-53
-128,30,-74
-128,3,-34
-83,-1,-16
-25,-22,-3
-9,-44,-5
8,-37,2
27,-43,5
-5,-48,-13
-31,-39,-22
-78,-27,-29
-128,-57,-45
-128,-52,-92
-128,-6,-84
-94,11,-48
-52,12,-35
16,38,-3
63,62,16
71,67,21
57,82,18
-54,101,-18
-127,109,-30
-110,64,23
-128,37,-56
-128,31,-80
-128,23,-3
-52,-10,-2
-42,-14,-18
-8,-39,-20
29,-44,-4
37,-44,0
22,-60,-8
-52,-43,-24
-117,-32,-44
-116,-2,-4
-128,-31,-62
-128,-3,-80
-128,33,-40
-57,6,-21
-37,8,-18
31,18,1
61,34,11
68,61,12
41,72,-4
-19,87,-11
-65,88,4
-128,110,18
-128,77,-17
-128,52,-8
-123,8,1
-83,-11,-6
-36,-38,-8
-10,-55,-4
6,-49,0
18,-42,2
-26,-42,-16
-60,-34,-25
-96,-13,-8
-128,-17,-24
-128,-6,-64
-128,74,-19
-91,7,-26
-62,7,-22
-1,5,-2
42,20,-6
54,42,-2
66,70,14
37,81,-1
-23,93,-11
-128,92,2
-128,47,-2
-128,38,-31
-128,33,-9
-95,-4,2
-60,-7,-1
-30,-23,-5
-5,-42,6
9,-47,4
5,-76,-26
-22,-59,-25
-46,-37,-26
-120,-4,-28
-128,-32,-45
-128,-1,-76
-128,79,-41
-56,6,-24
-18,11,-16
26,31,3
51,40,19
52,51,20
31,72,12
-39,79,-9
-81,80,-8
-128,64,9
-128,39,-48
-128,25,-48
-128,7,1
-60,-2,1
-35,-14,2
-3,-47,5
9,-46,6
27,-38,0
12,-44,-6
-17,-42,-10
-124,-33,-39
-128,-24,-13
-128,-28,-30
-128,52,-33
-105,-7,-33
-68,1,-27
-24,14,-11
38,20,-5
54,39,-3
48,62,5
46,73,3
7,83,-7
-128,104,13
-128,67,39
-128,54,9
-128,27,-21
-83,6,16
-55,-6,5
-38,-33,-21
19,-47,-7
35,-43,-3
32,-44,-6
-18,-44,-18
-78,-35,-30
-128,-13,-28
-128,-26,2
-128,17,-2
-128,54,49
-76,20,20
-37,13,12
16,21,-10
45,28,-17
64,29,-8
52,46,-5
0,77,1
-42,85,27
-128,73,47
-128,55,31
-128,37,27
-125,17,44
-66,-2,16
-33,-9,7
6,-38,-5
30,-54,-7
29,-59,-10
9,-54,-9
-90,-17,17
-128,-2,13
-128,-8,26
-128,-13,7
-128,24,0
-115,10,-9
-83,12,-5
-21,-4,-1
29,14,-7
50,34,-4
68,50,11
45,66,-7
-6,84,-20
-119,94,21
-128,77,-8
-128,65,-27
-128,25,15
-97,-1,3
-70,-8,2
-17,-42,4
6,-60,-1
18,-50,-12
10,-49,-12
-42,-42,-10
-88,-32,-25
-128,-11,-13
-128,-21,-30
-128,14,-41
-128,22,-32
-73,11,-17
-52,12,-11
5,10,0
42,37,3
45,48,3
51,61,5
13,77,-3
-34,82,16
-128,85,10
-128,73,4
-128,44,-11
-128,23,2
-71,-10,1
-42,-19,2
-6,-45,2
17,-52,-2
25,-50,4
8,-53,-1
-73,-30,-23
-128,-22,-39
-123,-3,-10
-128,-21,-79
-128,7,-70
-107,25,-28
-76,25,-19
-33,17,-13
29,34,5
48,41,8
50,52,9
17,76,5
-20,79,0
-104,72,-1
-126,37,4
-128,22,-22
-128,10,-28
-98,0,16
-63,-8,17
-29,-39,0
5,-55,-6
19,-52,-4
24,-59,-4
2,-50,-5
-40,-34,-10
-128,-8,-37
-128,24,-13
-128,74,-40
-128,53,-44
-77,17,-28
-46,16,-14
-1,16,0
49,36,2
66,46,8
67,74,10
21,75,-9
-26,77,-4
-128,99,6
-128,59,-10
-128,30,-25
-128,14,-1
-62,-8,3
-37,-16,3
-10,-50,-6
10,-62,-11
16,-58,-15
7,-54,-17
-51,-40,-21
-104,-30,-35
-128,-21,-39
-128,5,-58
-128,57,-49
-113,47,-28
-47,16,-17
-26,18,-10
32,23,9
51,46,13
50,58,15
40,70,15
-22,80,-1
-87,80,-3
-128,73,4
-128,32,-26
-128,35,-27
-125,16,6
-89,4,9
-39,-15,5
-11,-46,0
3,-52,-7
16,-67,-18
-12,-76,-15
-53,-53,-19
-128,-9,-33
-123,7,-1
-128,-3,-31
-128,41,-73
-78,26,-34
-65,10,-31
-13,18,-10
56,40,13
66,49,14
60,72,13
26,70,-4
-6,74,-2
-128,86,8
-128,63,1
-128,45,-8
-128,24,-5
-102,3,5
-73,-3,7
-44,-28,-1
-21,-54,-12
-6,-53,-12
10,-53,-10
-46,-43,-37
-99,-32,-48
-114,2,-19
-128,8,-76
-128,63,-92
-128,37,-51
-57,20,-27
-33,21,-15
28,20,2
52,52,4
53,59,8
43,67,6
-11,78,-12
-68,79,-20
-128,70,-3
-128,22,-39
-128,15,-67
-128,26,-3
-82,4,-2
-49,1,-4
-10,-21,-1
20,-54,3
33,-67,-1
18,-74,-28
-29,-57,-39
-104,-17,-30
-128,-19,-48
-128,-31,-71
-128,32,-72
-103,25,-38
-72,8,-42
-21,14,-30
65,31,-3
78,35,2
62,52,-3
29,81,1
-7,85,-3
-128,104,-18
-122,55,6
-128,39,-32
-128,32,-44
-107,4,-1
-68,-3,-1
-21,-25,-5
5,-54,-11
14,-52,-12
22,-59,-10
-15,-45,-10
-62,-32,-17
-128,-1,-40
-128,2,-20
-128,8,-47
-128,57,-44
-60,4,-22
-44,2,-15
-1,6,-4
40,21,0
47,33,-1
53,58,13
20,67,-12
-21,77,-14
-128,97,1
-128,69,-21
-128,47,-26
-128,15,-2
-63,-12,-1
-35,-24,0
-7,-52,-2
10,-53,-5
16,-54,-5
-2,-46,-11
-74,-31,-24
-107,-18,-20
-128,-33,-14
-128,-37,-68
-128,64,-38
-87,13,-22
-58,5,-24
1,20,-7
64,28,15
64,31,13
41,59,8
21,79,4
-16,91,4
-128,95,-9
-128,56,-10
-128,42,-35
-128,15,-23
-83,-5,-2
-57,-15,-1
-23,-45,-2
3,-57,4
13,-56,7
18,-55,3
-33,-38,-19
-92,-30,-38
-128,14,-24
-128,11,-70
-128,48,-88
-107,16,-54
-44,3,-25
-23,2,-15
18,13,5
46,44,16
44,60,22
50,73,29
-25,84,-6
-90,94,-5
-128,77,-5
-128,48,-49
-128,29,-48
-119,-2,-17
-59,-19,-17
-34,-33,-9
0,-50,2
19,-49,1
20,-51,-2
-13,-43,-7
-88,-32,-25
-123,-22,-31
-128,-29,-38
-128,41,-51
-128,66,-32
-83,12,-36
-30,12,-20
4,8,-12
52,28,2
55,37,6
52,66,12
25,91,12
-128,113,-3
-128,103,-6
-128,52,-3
-128,42,-18
-128,16,2
-63,-8,6
-41,-13,5
-8,-34,4
11,-43,1
15,-49,-1
-6,-58,-13
-76,-48,-37
-106,-29,-36
-118,-7,-12
-128,-7,-61
-128,50,-33
-108,12,-17
-51,17,-16
-25,16,-10
23,30,3
48,58,19
55,69,23
34,75,10
-47,79,-5
-97,80,0
-128,69,16
-128,48,-40
-128,45,-33
-115,13,3
-64,-22,-19
-46,-39,-22
-1,-52,-10
18,-46,-9
20,-44,-8
-9,-38,-4
-100,-31,-24
-128,-13,-22
-128,-7,0
-128,26,-45
-128,32,-45
-85,1,-36
-28,3,-21
-2,4,-16
32,25,-14
52,48,1
61,58,11
35,88,0
-119,103,-12
-128,98,7
-128,58,36
-128,53,-27
-128,36,-13
-72,-2,11
-44,-9,7
-30,-38,-8
-1,-45,-7
13,-48,-7
11,-53,-16
-48,-40,-31
-107,-24,-37
-128,-21,-23
-128,6,-71
-128,44,-40
-116,21,-16
-48,16,-14
-17,23,-3
39,38,11
56,47,3
48,51,3
28,55,11
-59,82,10
-112,89,15
-128,67,14
-128,43,-27
-128,45,-14
-111,15,6
-54,-22,-2
-40,-44,-6
-8,-59,-6
15,-52,0
11,-52,2
-36,-37,-9
-112,-23,-30
-128,-11,-19
-128,-13,-41
-128,35,-46
-128,28,-35
-53,-1,-21
-7,13,-5
22,26,4
54,48,10
43,62,12
39,73,13
-17,88,6
-122,90,-1
-122,82,20
-128,50,-4
-128,53,-13
-128,29,-1
-71,-14,9
-35,-43,1
-34,-56,-12
-12,-56,-18
6,-64,-16
-7,-59,-21
-79,-33,-36
-107,-17,-34
-128,-6,-38
-128,75,-59
-128,85,-33
-92,6,-37
-39,17,-15
-17,14,-5
42,28,4
32,56,1
31,77,13
41,89,14
-41,83,3
-118,80,1
-128,55,-1
-128,28,-20
-128,25,-15
-116,-3,4
-54,-12,9
-36,-27,8
-14,-59,3
11,-57,-10
18,-57,-17
5,-51,-12
-127,-32,-32
-128,-22,-49
-128,-8,-36
-128,23,-50
-128,36,-43
-53,10,-15
-2,31,-1
29,46,12
60,62,29
47,80,29
33,74,11
-18,68,-8
-128,84,-9
-128,86,-25
-128,75,-9
-128,38,-4
-128,20,-6
-66,-10,11
-16,-39,12
-8,-52,5
-4,-59,-1
-10,-60,-18
-34,-49,-26
-126,-21,-28
-128,18,-25
-128,24,-45
-128,68,-54
-128,52,-51
-65,17,-36
-6,19,-10
45,23,2
54,33,0
45,62,2
43,69,3
15,68,-3
-114,84,3
-128,93,-3
-128,43,-4
-128,26,-32
-128,28,-7
-63,-5,-2
-20,-28,-8
-9,-42,-5
22,-53,-1
30,-58,-8
15,-60,-14
-77,-41,-27
-128,-10,-30
-128,-9,-32
-128,15,-47
-128,59,-42
-121,31,-41
-47,17,-19
19,13,0
41,20,5
52,50,9
49,66,23
39,70,14
-41,88,-6
-128,87,14
-128,56,5
-128,-2,-61
-128,2,-9
-93,-8,8
-20,-11,9
6,-28,-2
18,-32,-5
32,-43,-4
19,-52,0
-3,-43,-3
-128,-20,-40
-128,6,-8
-128,-19,-10
-128,40,-36
-123,29,-21
-82,10,-20
-26,5,-5
33,9,3
51,22,6
61,41,6
53,65,1
33,73,-13
-85,91,-11
-128,70,-38
-128,62,-54
-128,26,-53
-128,23,-25
-85,-1,-30
-34,-36,-21
-19,-53,-11
7,-54,0
18,-55,6
9,-55,5
-77,-32,-30
-127,-1,-41
-118,4,-8
-128,-4,-50
-128,64,-87
-128,28,-59
-25,3,-17
4,8,-10
26,20,-1
59,43,18
58,56,21
42,60,6
-39,84,-22
-128,90,-4
-128,73,16
-128,27,-49
-128,14,-34
-114,-3,-1
-32,-11,14
-13,-38,0
-6,-48,-2
23,-50,-2
13,-58,-8
-15,-50,-11
-100,-21,-41
-128,-15,-18
-128,-47,-32
-128,28,-111
-114,69,-28
-59,24,-19
-13,17,-25
61,40,10
79,41,20
61,63,12
24,77,-6
-18,87,-14
-128,106,-4
-128,65,-17
-128,51,-48
-128,27,-18
-80,-5,-1
-55,-7,-2
-21,-37,-3
9,-51,1
14,-47,-5
15,-50,-13
1,-47,-14
-82,-32,-28
-128,-7,-30
-128,-8,-29
-128,35,-45
-128,38,-51
-97,25,-37
-20,20,-11
41,26,0
63,36,4
73,57,9
49,84,9
21,87,3
-128,106,-22
-128,60,-4
-128,38,-26
-128,24,-25
-93,2,-4
-56,-2,-2
-8,-31,0
9,-48,-6
18,-48,-8
25,-51,-8
-12,-46,-14
-74,-38,-33
-128,-2,-46
-128,10,-16
-128,25,-29
-128,34,-59
-53,6,-20
-38,3,-14
7,13,1
46,38,6
53,52,18
65,78,19
-9,96,-20
-56,87,-2
-128,93,-9
-128,56,-41
-128,34,-36
-114,-13,-22
-40,-26,-15
-19,-40,-12
-4,-45,-7
21,-50,-3
22,-53,-6
-29,-49,-28
-116,-22,-44
-121,-11,-29
-128,-13,-70
-128,14,-87
-128,67,-43
-80,10,-42
-44,16,-21
10,8,1
49,23,5
48,38,1
44,72,8
27,83,-7
-10,87,-9
-128,94,-28
-128,65,-25
-128,48,-19
-119,14,-11
-46,-33,-14
-15,-38,-10
9,-51,-13
20,-47,-12
22,-53,-12
-4,-52,-26
-91,-30,-48
-128,-19,-37
-128,-25,-64
-128,37,-87
-128,64,-61
-60,12,-36
12,10,-4
48,17,5
80,42,12
58,60,9
45,59,5
-12,73,-13
-128,92,1
-128,92,-1
-128,76,-37
-128,36,-2
-107,15,6
-54,-12,3
-20,-42,-1
-8,-53,-5
19,-45,-4
14,-48,-12
-14,-47,-23
-88,-30,-42
-122,-2,0
-128,-12,-17
-128,25,-73
-124,45,-23
-82,21,-23
-34,4,-21
30,19,-3
59,26,4
73,39,-3
64,58,-8
19,96,-12
-128,117,-21
-128,102,-4
-128,42,-28
-128,33,-33
-128,29,-7
-73,-7,-13
-29,-29,-13
-11,-45,-16
17,-55,-19
18,-60,-20
0,-61,-27
-78,-40,-39
-124,-1,-27
-128,7,-18
-128,21,-80
-128,72,-30
-93,21,-27
-52,9,-25
11,1,-5
32,4,-5
50,44,-6
56,59,10
50,63,7
-22,103,4
-128,107,7
-128,90,-15
-128,53,-22
-123,24,1
-95,4,-6
-40,-18,-12
-6,-44,-16
4,-48,-17
20,-47,-12
-4,-50,-10
-43,-43,-16
-109,-23,-17
-125,-33,-25
-128,-36,-82
-128,80,-58
-81,19,-23
-68,-1,-31
0,22,-9
55,25,7
65,34,7
65,59,5
26,63,-5
-13,77,-8
-128,113,10
-128,94,22
-128,57,-45
-128,29,-5
-76,10,15
-51,-5,3
-22,-47,-18
16,-53,-16
31,-51,-16
25,-52,-22
1,-43,-26
-97,-21,-37
-128,5,-11
-128,-20,-19
-128,11,-52
-128,27,-20
-89,14,-17
-33,13,-16
34,23,-3
61,36,1
81,53,6
47,77,1
18,86,-2
-124,95,-28
-128,75,-20
-128,53,-34
-128,39,-40
-119,4,-13
-83,-3,-6
-24,-24,0
2,-47,-8
11,-46,-8
21,-52,-12
-11,-46,-26
-49,-37,-28
-128,-5,-23
-128,-3,-37
-128,12,-42
-128,57,-13
-82,19,-17
-58,18,-10
-17,6,-3
39,18,-4
58,29,-1
66,40,7
35,76,-7
-15,91,-9
-128,122,13
-128,88,-12
-128,73,-43
-128,28,-13
-53,-10,-7
-30,-23,-5
-7,-54,-6
1,-53,-4
21,-47,-5
19,-51,-14
-51,-40,-37
-104,-32,-48
-126,-5,-48
-128,-8,-67
-128,53,-74
-128,67,-35
-85,47,-27
-41,27,-15
8,25,0
34,31,11
63,47,21
50,67,6
20,75,-8
-72,84,-2
-128,86,-11
-128,70,-38
-128,41,-54
-101,12,0
-72,-5,-8
-41,-35,-13
-2,-45,3
11,-45,8
20,-60,6
-13,-49,-4
-55,-36,-8
-128,-4,-25
-128,21,-43
-128,21,-74
-128,51,-68
-59,24,-24
-41,6,-25
-10,-2,-19
42,32,9
67,47,24
72,58,34
-2,87,-15
-74,102,-29
-128,108,-5
-128,52,-60
-128,37,-81
-122,6,-30
-60,-18,-20
-45,-28,-18
-14,-44,-5
15,-43,6
21,-50,11
-13,-46,-1
-103,-41,-25
-128,-38,-59
-128,-40,-70
-128,14,-81
-128,64,-64
-81,13,-47
-16,29,-11
8,29,-3
33,41,2
27,51,1
30,70,1
22,72,0
-14,82,3
-128,103,10
-128,73,-12
-128,52,-23
-128,34,-2
-57,-2,0
-40,-11,-8
-10,-27,-12
23,-33,-18
24,-45,-28
6,-72,-37
-34,-49,-24
-88,-41,-31
-128,-34,-20
-128,-19,-33
-128,23,-37
-112,21,-18
-35,1,-14
-8,7,-11
49,31,3
75,61,6
66,69,4
17,82,-20
-93,99,-10
-128,102,11
-128,68,1
-128,47,-30
-128,33,4
-72,-2,15
-38,-24,-1
-24,-44,-5
12,-49,-3
19,-63,12
1,-62,8
-87,-45,-29
-128,-13,-31
-128,-1,-7
-128,1,-58
-128,47,-47
-99,21,-27
-53,7,-22
11,9,-7
46,18,-2
55,46,3
49,62,11
41,73,8
-13,91,-1
-80,96,-10
-128,92,-7
-128,60,-3
-128,33,-8
-114,12,-2
-36,-14,-7
-16,-24,-12
1,-48,-17
10,-48,-20
6,-48,-23
-23,-57,-30
-87,-38,-39
-101,-31,-32
-128,-40,-56
-128,62,-95
-128,90,-68
-56,14,-22
-30,26,-13
-4,34,1
59,29,18
58,55,17
46,57,14
-4,74,-3
-119,91,-4
-128,80,12
-128,50,-27
-128,43,-28
-128,31,-2
-61,-6,3
-37,-31,-7
-19,-45,-6
12,-56,-1
10,-58,-6
-13,-53,-15
-113,-38,-49
-97,-3,-2
-122,-12,4
-128,25,-14
-126,35,9
-97,14,3
-31,3,-2
49,16,12
37,30,-26
36,50,-24
69,64,16
41,80,9
-91,90,4
-121,56,31
-128,52,27
-128,67,9
-128,31,40
-97,10,27
-31,-23,15
-18,-47,7
-12,-64,-8
9,-62,-17
-11,-61,-29
-55,-42,-24
-83,-15,-14
-120,-12,-7
-128,53,8
-128,76,10
-128,44,-1
-55,31,2
5,12,3
15,23,-6
49,40,-2
70,64,8
60,76,8
-8,83,13
-128,88,9
-128,72,19
-128,36,12
-128,27,15
-117,19,35
-64,0,19
-29,-25,0
-4,-43,-3
28,-55,-9
27,-56,-9
2,-58,-10
-97,-36,-17
-128,-18,4
-128,-18,9
-128,63,-44
-128,64,-11
-103,47,-18
-32,23,-17
34,29,-5
56,38,-2
64,55,-6
51,76,-6
30,76,-12
-65,87,6
-128,89,22
-128,67,22
-128,57,-6
-128,7,6
-87,-9,12
-24,-23,14
-11,-52,-3
-1,-57,-4
12,-54,-8
8,-56,-12
-57,-50,-29
-127,-15,-31
-128,-2,-5
-128,21,-31
-128,72,-22
-78,30,-10
-52,21,-8
-12,18,-5
15,25,-1
52,44,7
57,62,7
50,67,6
-3,75,5
-128,91,-28
-128,91,-27
-128,43,-31
-128,29,-24
-121,5,-17
-57,-19,-9
-23,-47,-12
-10,-54,-12
12,-57,-14
9,-54,-13
-8,-46,-16
-93,-26,-33
-128,2,-10
-128,6,-33
-128,74,-54
-101,26,-35
-66,24,-25
-23,8,-9
19,5,1
30,10,-1
35,44,-1
49,70,18
37,83,7
-91,91,-12
-128,86,-17
-128,60,-6
-128,41,-23
-112,8,-7
-74,-8,-10
-36,-40,-14
-10,-59,-12
4,-61,-10
14,-59,-13
-12,-36,-15
-47,-24,-14
-128,-11,-21
-128,-11,-54
-128,16,-65
-128,58,-20
-73,20,-21
-47,17,-15
9,18,3
55,24,11
55,25,10
42,40,11
35,49,11
-58,89,0
-128,101,-10
-128,66,4
-128,35,-40
-128,12,0
-79,-5,8
-26,-26,3
-1,-56,-3
11,-57,-3
20,-61,-7
5,-56,-7
-19,-43,-10
-128,-21,-44
-128,21,-23
-128,19,-26
-128,66,-56
-86,26,-30
-25,5,-6
4,8,2
61,28,10
67,35,10
62,48,13
29,65,-4
-5,79,-6
-128,112,-27
-128,76,-11
-128,40,-30
-128,21,-24
-66,-14,-4
-35,-18,3
-5,-49,-1
6,-57,-7
14,-52,-10
13,-49,-10
-51,-33,-17
-115,-21,-35
-128,1,-28
-128,9,-54
-128,38,-56
-117,21,-44
-46,8,-22
-29,7,-15
22,13,2
47,32,2
48,51,6
51,85,4
-15,85,-15
-75,78,-9
-128,72,-9
-128,38,-34
-128,35,-26
-116,12,11
-68,-3,16
-13,-28,3
-13,-53,-22
-3,-51,-21
16,-59,-19
-1,-44,-19
-37,-33,-26
-128,-5,-38
-128,2,-38
-128,16,-71
-128,58,-49
-87,19,-31
-54,26,-13
-2,21,13
48,22,17
51,38,10
45,67,11
11,75,-17
-37,84,-16
-128,76,15
-128,64,-28
-128,40,-38
-128,17,-10
-62,-10,2
-40,-23,2
-8,-49,-11
15,-46,-11
16,-49,-12
14,-59,-12
-41,-47,-24
-103,-30,-33
-128,19,-24
-128,29,-25
-128,31,-54
-128,50,-44
-41,18,-13
-18,14,-8
38,26,6
69,42,8
65,52,8
31,59,-4
-14,70,-4
-61,73,-1
-128,104,-27
-128,68,-40
-128,49,-35
-107,26,-6
-49,-11,1
-34,-25,0
-11,-54,-7
0,-53,-10
3,-53,-16
-16,-45,-23
-39,-36,-25
-110,-15,-37
-128,23,-51
-128,50,-50
-128,39,-52
-86,27,-28
-60,19,-14
-7,13,5
39,36,17
49,44,17
59,56,22
8,77,-2
-46,85,-7
-128,86,-18
-128,54,-15
-128,43,-30
-122,22,-6
-56,-8,0
-38,-17,0
-18,-43,-5
-1,-49,-10
3,-51,-12
-2,-49,-8
-61,-41,-29
-111,-42,-51
-128,2,-52
-128,78,-14
-128,43,-27
-94,15,-43
-29,15,-13
1,11,-2
27,33,-2
34,57,11
47,70,24
5,92,13
-122,85,0
-111,74,23
-128,19,-17
-128,2,-43
-128,6,-11
-80,-4,0
-46,-7,-4
-31,-16,-1
-7,-42,1
12,-46,-1
18,-49,0
-4,-56,-18
-128,-41,-85
-128,-16,-76
-128,32,-49
-128,52,-59
-128,28,-70
-60,32,-27
-30,27,-12
-3,39,-1
44,58,26
60,64,37
61,75,42
-14,72,-12
-43,66,-14
-64,55,26
-128,75,-74
-128,59,-112
-128,23,-52
-85,-5,-25
-51,-17,-13
-21,-43,-7
1,-60,-8
10,-71,-11
8,-68,-18
-60,-48,-40
-118,-32,-63
-128,20,-52
-128,79,-51
-128,76,-71
-85,16,-47
-23,3,-17
-2,1,-8
29,27,2
47,55,13
57,65,25
55,73,33
-104,87,-39
-128,89,-43
-127,37,-24
-128,40,-73
-128,34,-47
-104,3,-16
-55,-16,-4
-31,-35,0
-2,-70,-3
22,-64,-7
23,-61,-8
-52,-36,-26
-110,-10,-40
-126,-2,-26
-128,16,-55
-128,81,-56
-113,49,-33
-54,12,-24
0,14,-5
27,17,3
49,33,9
49,55,19
50,72,20
-8,84,-4
-85,90,-1
-128,86,13
-128,50,-21
-128,42,-30
-106,12,-1
-43,-8,-2
-25,-17,-4
14,-51,-9
26,-65,-4
20,-66,-6
-25,-56,-30
-111,-30,-43
-128,-14,-44
-128,-14,-34
-128,64,-94
-128,91,-60
-62,15,-36
-6,19,-19
24,23,-5
61,28,9
49,54,7
39,73,14
13,66,4
-115,84,-9
-128,103,-8
-128,55,5
-128,28,-47
-128,14,-17
-50,-5,14
-17,-29,5
-2,-46,-3
19,-54,-10
20,-52,-7
15,-52,-8
-42,-35,-22
-128,-2,-34
-128,11,-10
-128,-11,-66
-128,75,-67
-115,63,-37
-59,2,-24
-6,12,2
24,14,14
56,40,20
55,61,19
48,65,14
-4,71,-10
-128,83,-15
-128,83,-28
-128,54,-30
-128,16,-9
-118,0,-6
-54,-9,7
-27,-22,9
-4,-54,-3
9,-50,-16
14,-55,-18
8,-51,-15
-54,-38,-32
-111,-26,-46
-128,-7,-36
-128,35,-64
-128,66,-48
-107,16,-43
-34,17,-10
-10,15,2
31,18,12
55,46,14
58,57,20
46,70,14
-43,89,-9
-126,93,-15
-128,94,-21
-128,37,-37
-128,22,-32
-76,-6,-7
-19,-24,0
-8,-39,-3
5,-55,-7
15,-59,-11
14,-57,-13
-25,-40,-17
-128,-21,-32
-128,-9,-41
-128,17,-56
-128,69,-46
-127,40,-46
-38,9,-28
6,-1,-12
30,2,-6
57,42,-5
64,78,12
58,90,8
-19,88,-21
-128,100,4
-128,92,13
-128,51,-18
-128,8,-10
-94,-3,2
-17,-25,1
1,-54,-8
11,-55,-10
23,-52,-8
21,-49,-9
-9,-41,-9
-127,-27,-33
-128,-11,-35
-128,-5,-39
-128,74,-65
-128,69,-41
-51,14,-24
9,15,-5
43,23,3
84,52,16
74,77,12
53,83,4
-22,84,-19
-128,86,7
-128,80,7
-128,55,-23
-128,29,8
-110,14,15
-51,-8,1
-8,-39,0
6,-53,1
19,-59,-3
15,-64,-10
-4,-53,-11
-121,-40,-41
-128,-6,-27
-128,-4,-28
-128,80,-53
-104,31,-43
-61,15,-32
-19,11,-14
25,16,-1
49,28,2
63,54,16
52,76,7
19,86,-12
-107,101,7
-128,105,-6
-128,83,-5
-128,32,-7
-84,-8,-6
-50,-18,-6
-10,-41,-7
12,-49,-13
21,-53,-16
20,-66,-19
-17,-48,-22
-72,-34,-32
-128,4,-45
-128,26,-35
-128,59,-49
-128,51,-39
-87,21,-24
-29,11,-15
24,17,2
62,42,21
65,49,25
46,61,21
13,78,1
-128,97,-33
-128,65,-16
-128,45,-29
-128,15,-65
-99,-3,-16
-59,-15,-7
-23,-48,-4
0,-71,-3
12,-67,0
19,-56,-5
-30,-46,-21
-81,-39,-35
-128,-17,-42
-128,-11,-56
-128,16,-56
-128,31,-48
-64,16,-28
-37,14,-15
18,22,1
64,57,15
72,72,24
54,82,9
-55,90,-21
-128,93,-12
-128,78,6
-128,21,-48
-128,2,-33
-56,-20,-1
-12,-49,-1
-11,-59,-7
4,-59,-6
25,-63,-5
12,-66,-13
-75,-41,-37
-128,7,-31
-128,28,-14
-128,31,-54
-128,65,-40
-104,46,-26
-39,24,-10
8,18,-3
33,28,4
58,44,21
54,72,25
29,85,11
-102,100,-25
-128,60,8
-128,61,-23
-128,16,-67
-103,-8,-11
-62,-15,-3
-26,-56,-9
-14,-65,-11
15,-56,-4
18,-55,-9
4,-52,-16
-56,-38,-32
-127,-5,-26
-128,-9,-27
-128,57,-54
-128,38,-36
-116,33,-29
-32,16,-19
14,9,-25
54,23,-14
83,44,7
75,68,17
55,91,6
-123,127,-46
-128,79,-1
-128,75,-14
-128,50,-72
-126,28,-22
-74,13,-16
-19,-23,-20
2,-55,-12
20,-56,-7
39,-59,-7
7,-55,-19
-32,-44,-26
-124,-10,-43
-128,-10,-39
-128,-11,-87
-128,113,-61
-73,28,-20
-48,17,-18
-12,14,-11
47,20,9
61,29,9
63,65,14
45,72,-1
1,86,-17
-128,91,-3
-128,61,-23
-128,42,-35
-128,13,-7
-68,-8,5
-42,-21,5
-6,-48,2
12,-49,1
13,-49,1
8,-49,0
-5,-40,1
-80,-30,-12
-128,-1,-29
-128,0,-38
-128,65,-94
-128,52,-38
-82,21,-32
-25,10,-19
61,29,7
89,45,14
83,54,8
58,78,-5
27,83,-21
-94,93,2
-128,99,30
-128,85,7
-128,41,2
-102,14,13
-64,6,11
-9,-22,8
10,-51,-1
22,-50,-12
20,-64,-17
-3,-56,-18
-47,-44,-23
-128,-17,-38
-128,3,-5
-128,-2,-7
-128,65,-18
-100,9,-29
-56,11,-13
-5,6,-3
43,37,5
64,49,11
75,65,11
29,90,-10
-16,89,0
-128,113,24
-128,75,-8
-128,56,-1
-128,19,9
-58,-4,11
-26,-12,10
3,-44,0
12,-49,-13
15,-56,-18
-3,-55,-17
-83,-38,-27
-128,-25,-36
-128,-7,-16
-128,17,-24
-128,60,-7
-119,46,5
-54,24,-2
-28,17,-5
38,25,-3
53,34,-17
53,58,-15
61,70,-3
28,65,-7
-78,68,13
-128,81,14
-128,72,58
-105,63,127
-76,19,59
-57,2,27
-44,-26,-17
-17,-45,-16
7,-44,-9
26,-43,-1
-1,-46,-14
-33,-44,-22
-112,-26,-16
-128,-18,-44
-128,66,-34
-128,42,7
-70,9,-23
-50,10,-22
14,20,-1
67,33,10
64,39,6
45,66,5
-19,80,6
-77,92,28
-128,96,-1
-128,80,-13
-128,56,-12
-95,6,-2
-36,-17,-4
-18,-36,-7
0,-50,-10
6,-55,-8
8,-55,-9
-30,-45,-23
-125,-23,-43
-128,-2,-43
-128,29,-27
-128,46,-51
-120,33,-44
-44,8,-15
-2,14,-2
21,21,2
42,28,6
40,41,23
40,68,28
-24,89,0
-128,107,-38
-128,82,-6
-128,59,-9
-128,44,-25
-93,-13,-19
-21,-22,2
-5,-41,0
0,-52,-10
12,-49,-12
10,-52,-12
-32,-43,-19
-128,-15,-42
-128,10,-34
-128,25,-37
-128,70,-50
-122,30,-51
-44,14,-23
8,3,-1
32,5,7
40,33,1
39,48,20
45,58,31
-2,83,3
-128,110,-11
-128,100,2
-128,47,2
-128,19,-8
-96,-3,0
-34,-13,-10
13,-44,-13
26,-51,-3
26,-55,12
-5,-67,8
-32,-55,5
-128,-23,5
-128,-12,20
-128,5,-10
-128,80,-42
-101,39,-38
-65,23,-37
15,17,-15
62,28,-3
70,35,3
60,48,15
22,55,1
-22,76,-9
-128,92,9
-128,43,10
-128,19,-31
-128,21,1
-91,21,43
-76,11,37
-33,-11,24
-14,-42,8
-9,-41,4
8,-44,-5
12,-50,-10
-41,-38,-28
-128,-19,-50
-128,7,-31
-128,2,-54
-128,32,-47
-112,12,-40
-41,3,-15
6,12,0
36,25,4
50,46,17
45,56,23
43,60,17
-37,81,-7
-128,85,-7
-128,64,-12
-128,26,-38
-128,10,-26
-114,-7,-17
-51,-16,1
-12,-43,4
-2,-58,2
8,-60,-2
0,-48,-4
-24,-43,-8
-105,-27,-36
-128,-7,-30
-128,-11,-32
-128,46,-60
-123,26,-37
-88,17,-26
-37,5,-12
11,11,-1
33,27,4
52,45,17
41,62,20
29,70,12
-71,77,-15
-128,77,-14
-128,58,7
-128,20,-41
-125,8,-8
-85,-2,3
-33,-16,11
-16,-58,-3
-12,-71,-7
8,-71,-10
-7,-57,-13
-47,-47,-28
-128,-26,-67
-128,-5,-53
-128,16,-40
-128,53,-70
-128,53,-48
-60,28,-20
7,29,-1
38,37,8
58,45,15
55,68,24
44,69,18
-36,80,1
-128,92,6
-128,81,12
-128,34,-1
-128,14,12
-94,-8,17
-34,-20,20
-9,-36,11
-2,-49,4
6,-67,-8
-6,-55,-10
-37,-47,-11
-128,-20,-49
-128,21,13
-128,7,2
-128,41,-54
-68,19,-17
-38,4,-10
-1,16,-11
52,46,5
60,52,9
48,68,13
24,68,-2
15,64,-11
-40,64,9
-128,127,-74
-128,127,-53
-128,61,15
-108,8,-18
-86,-2,-14
-12,-29,7
7,-59,0
10,-58,-2
14,-59,-5
-19,-46,-11
-78,-41,-26
-128,-3,-27
-128,37,-43
-128,40,-70
-127,22,-62
-29,-3,-25
-8,-9,-18
35,14,-4
52,37,-4
64,78,17
44,97,25
31,90,-7
-104,104,-6
-128,94,-23
-128,66,-23
-128,31,-25
-81,-4,-11
-36,-16,-9
16,-36,-6
24,-50,1
16,-54,-7
9,-63,-15
-45,-49,-27
-84,-32,-32
-128,0,-8
-128,-11,-98
-128,62,-86
-114,66,-15
-50,4,-23
-14,5,-10
73,23,9
72,46,4
57,60,6
54,79,7
-11,109,-5
-95,110,-8
-128,122,-17
-128,68,-4
-128,58,-24
-106,-14,-23
-20,-44,-7
2,-52,-7
12,-59,-19
22,-64,-12
19,-65,-10
-47,-36,-23
-128,-1,-32
-128,11,-13
-128,-13,-63
-128,71,-45
-111,55,-19
-51,2,-23
-6,9,-8
30,14,2
79,34,11
74,57,4
53,79,-7
-40,105,-16
-116,108,-15
-128,73,-41
-128,48,-38
-122,16,-7
-94,-5,-16
-39,-23,-13
-18,-41,-12
3,-61,-9
11,-67,-8
-14,-56,-16
-51,-47,-22
-116,-16,-25
-128,-7,-20
-128,17,-63
-128,79,-28
-120,24,-37
-52,17,-28
4,5,-11
29,12,-7
58,32,-1
66,53,6
54,62,6
-20,105,-1
-128,113,-6
-128,86,-15
-128,51,-38
-128,30,-9
-109,15,-1
-39,-17,-14
-5,-67,-17
12,-76,-13
22,-70,-13
1,-61,-18
-25,-53,-22
-128,-18,-46
-128,17,-31
-128,23,-42
-128,71,-57
-80,32,-32
-43,19,-21
4,6,-13
54,18,3
62,25,7
53,54,13
24,81,0
-22,93,-6
-128,90,4
-128,66,-27
-128,45,-37
-128,27,3
-79,-4,2
-48,-18,-4
-3,-48,-6
27,-46,-11
29,-50,-18
13,-69,-18
-30,-41,-11
-73,-23,-24
-126,26,-4
-128,35,-9
-128,68,-45
-128,44,-34
-105,21,-19
-45,-4,-11
18,3,2
48,19,8
79,33,11
64,62,3
40,82,-18
-60,105,2
-128,121,0
-128,104,-13
-128,39,-14
-117,8,-4
-78,-9,-7
-14,-43,-5
7,-65,-10
12,-59,-8
9,-61,-7
-32,-44,-16
-78,-31,-26
-128,5,-11
-128,-11,-42
-128,7,-70
-128,74,-29
-66,-3,-23
-40,-5,-18
24,10,-2
56,36,0
55,48,3
57,68,16
4,94,-9
-76,96,-23
-128,61,2
-128,24,-24
-128,21,-42
-128,20,-5
-56,-7,-2
-32,-15,-9
4,-42,-7
36,-47,-1
37,-53,0
-7,-65,-23
-87,-43,-36
-107,-28,-31
-128,-36,-28
-128,15,-85
-128,80,-47
-94,25,-21
-70,4,-28
-8,20,-11
57,24,12
64,27,11
48,49,1
24,68,-3
0,80,0
-115,80,-4
-128,47,-4
-128,16,-25
-128,16,-31
-98,2,17
-62,-9,12
-32,-25,-2
9,-49,-1
26,-54,0
18,-64,-14
-14,-46,-15
-45,-31,-18
-95,-5,-20
-128,-65,-63
-128,-63,-128
-128,104,-58
-104,8,-40
-76,-10,-35
9,46,5
61,58,21
66,63,22
42,75,4
-18,76,-18
-61,68,-10
-112,52,8
-128,19,-65
-128,-3,-73
-128,0,-7
-64,-9,7
-42,-12,7
-25,-44,-1
-2,-68,-6
7,-67,-7
-8,-54,-10
-85,-26,-23
-93,-7,-20
-118,-9,-6
-128,33,-119
-128,127,-65
-100,11,-39
-36,3,-21
9,15,1
54,26,10
54,59,10
50,71,17
36,74,0
4,80,-9
-121,79,-22
-128,45,-8
-128,36,-40
-128,29,-67
-128,16,-3
-86,3,1
-14,-28,-6
0,-73,-12
12,-72,-11
28,-62,-10
-15,-55,-31
-63,-43,-42
-97,-12,-37
-128,-33,-70
-128,-9,-128
-128,127,-51
-78,1,-36
-56,-1,-32
24,37,6
72,40,13
71,51,9
59,72,-4
33,76,-22
-5,79,-11
-128,89,-16
-128,81,-9
-128,64,-38
-128,36,-22
-71,6,2
-38,-10,7
-5,-46,-2
16,-56,-7
19,-49,1
-18,-53,-15
-80,-30,-42
-75,-16,-23
-109,-29,-20
-128,-1,-72
-128,70,-48
-115,53,-19
-33,4,-23
16,22,-5
61,29,1
59,49,1
53,59,2
35,83,-3
-87,108,-5
-128,110,-3
-128,74,7
-128,37,-61
-128,15,-52
-92,-12,-9
-50,-26,-6
-13,-51,-11
17,-48,-7
29,-46,-2
18,-55,-6
-47,-37,-29
-93,-24,-49
-101,1,-14
-128,-23,-60
-128,8,-93
-128,46,-27
-60,-12,-23
-31,-2,-12
41,18,2
65,46,-4
64,59,3
48,73,3
-43,99,-13
-128,97,-38
-128,57,0
-128,10,-70
-128,9,-73
-106,-11,-2
-24,-19,-1
-9,-30,-5
13,-51,-9
41,-45,0
36,-55,-7
-8,-46,-19
-97,-16,-34
-127,-2,-31
-128,-31,-34
-128,29,-99
-128,68,-58
-71,-1,-27
-18,12,-18
22,27,-4
69,42,3
70,69,7
64,90,2
0,94,-26
-103,77,4
-128,93,5
-128,55,-24
-128,8,-29
-128,1,0
-53,-23,3
-14,-35,3
-1,-42,3
22,-33,0
21,-40,-4
5,-59,-14
-98,-44,-45
-128,-14,-13
-128,-10,-10
-128,50,-65
-128,86,-34
-89,30,-23
-17,30,-5
9,24,-3
68,29,3
68,49,-1
58,56,0
16,68,-11
-97,97,-2
-128,99,8
-128,55,-22
-128,50,-18
-128,40,13
-60,2,5
-30,-32,-12
-14,-50,-12
18,-52,-6
24,-60,-4
9,-61,-12
-62,-34,-26
-79,-7,-12
-86,-14,-2
-128,-38,-101
-128,109,-19
-99,71,-2
-69,-22,-37
27,26,-1
54,29,3
55,50,-19
73,67,4
76,83,15
-61,127,-4
-128,95,11
-128,65,18
-128,51,6
-128,9,1
-89,-8,0
-17,-27,-1
1,-46,-12
18,-45,-11
33,-61,-11
3,-61,-22
-38,-45,-31
-128,-6,-25
-128,-7,-13
-128,-36,-68
-128,83,-34
-100,13,-33
-65,-1,-30
0,12,-5
49,21,-3
65,36,-12
65,65,2
61,68,3
-1,97,-25
-128,95,-10
-128,78,6
-128,57,-43
-128,21,-29
-117,5,-19
-49,-18,-25
-7,-40,-13
13,-51,-7
32,-49,0
15,-62,-10
-10,-55,-14
-89,-30,-26
-128,-12,-15
-128,-36,-55
-128,21,-90
-122,32,-43
-84,8,-38
-11,27,-9
58,36,12
75,40,13
59,55,-4
19,73,-16
9,87,-11
-66,93,-10
-128,76,-31
-128,55,-44
-128,21,-68
-128,-19,-32
-82,-27,-18
0,-39,-2
15,-54,-13
21,-46,-9
22,-50,-4
-15,-49,-25
-48,-35,-38
-116,-3,-25
-128,-31,-51
-128,-28,-128
-128,96,-60
-45,19,-13
-35,2,-13
33,23,5
72,41,15
66,46,9
39,75,-10
-11,93,-17
-57,88,-18
-128,82,7
-128,40,-44
-128,28,-75
-128,-4,-33
-108,-17,-22
-40,-25,-12
-10,-48,-14
6,-49,-14
34,-49,-13
18,-60,-22
-7,-47,-27
-97,-24,-41
-128,-16,-36
-128,-29,-83
-128,88,-59
-94,22,-31
-73,0,-33
-7,27,-1
37,32,11
52,43,10
57,63,9
21,83,-14
-6,88,-11
-127,88,-4
-128,77,-25
-128,43,-51
-128,11,-40
-65,-10,-11
-41,-21,-17
-12,-44,-18
25,-45,-12
31,-50,-7
11,-65,-10
-48,-33,-20
-89,-19,-30
-128,-23,-27
-128,-1,-105
-128,54,-70
-99,21,-33
-32,18,-22
5,28,-13
70,39,9
70,42,10
53,53,1
-3,78,-20
-128,92,-7
-128,87,3
-128,34,-29
-128,9,-56
-128,12,-19
-57,-1,11
-24,-31,-8
-13,-46,-15
25,-51,-18
35,-52,-20
21,-68,-23
-61,-42,-41
-116,-24,-64
-116,8,-28
-128,-36,-83
-128,10,-99
-128,64,-41
-55,0,-20
-21,5,-8
35,27,8
68,57,28
78,61,34
42,77,3
-89,92,-34
-128,63,-26
-128,46,-50
-128,7,-77
-128,-5,-46
-82,-13,-17
-27,-28,-11
-4,-43,-11
26,-48,-13
25,-51,-8
18,-54,-10
-43,-45,-22
-125,-25,-36
-128,-16,-29
-128,-32,-76
-128,56,-62
-128,27,-56
-64,-7,-39
2,18,-10
38,30,1
65,71,5
67,85,18
55,81,7
-58,90,-10
-128,90,13
-128,68,-1
-128,5,-35
-111,7,12
-79,-1,10
-29,-17,-4
15,-35,-2
23,-39,-4
38,-45,-12
12,-55,-19
-26,-46,-19
-128,-33,-39
-128,-38,-17
-128,-43,-57
-128,35,-56
-128,43,-32
-50,-1,-24
0,24,-8
85,48,12
83,56,9
60,75,-3
32,83,-9
-52,94,6
-128,92,-1
-128,77,-18
-128,38,-34
-128,26,-1
-102,9,-2
-52,-19,-3
-20,-41,-5
-7,-44,-6
14,-46,-6
-9,-50,-14
-41,-43,-27
-99,-27,-33
-124,-5,-9
-128,-9,-35
-128,34,-44
-93,13,-25
-70,-3,-22
-24,2,-10
32,24,1
49,41,2
52,70,12
24,100,-3
-17,114,-14
-91,82,18
-128,82,-10
-128,63,-31
-128,9,-17
-92,-19,-7
-64,-30,-12
-26,-43,-9
8,-41,3
20,-41,1
20,-56,-9
-42,-47,-18
-96,-40,-38
-122,-20,-14
-128,-8,-74
-128,38,-62
-97,11,-29
-50,9,-19
-26,21,-10
32,32,1
49,47,3
52,63,-1
32,83,-12
-49,79,-12
-106,81,-7
-128,65,-6
-128,56,-15
-128,41,-17
-108,7,-10
-63,-9,-11
-18,-49,-12
9,-54,-11
20,-49,-8
14,-59,-14
-26,-52,-34
-69,-40,-44
-114,-17,-22
-128,-38,-48
-128,-4,-102
-128,96,-25
-61,0,-27
-41,5,-23
37,19,7
77,27,14
64,44,6
39,61,-1
-31,91,-17
-100,92,-21
-128,63,1
-128,37,-11
-128,28,-5
-116,8,39
-51,-3,17
-30,-15,7
-4,-39,2
0,-40,-17
4,-45,-20
-5,-55,-21
-76,-35,-34
-103,-23,-33
-128,-34,-26
-128,0,-60
-128,38,-40
-83,12,-22
-25,0,-13
-8,16,-9
56,44,13
69,53,25
53,68,21
-17,94,-16
-110,79,-30
-121,55,-10
-128,24,-27
-128,31,-46
-128,18,-23
-78,-12,-2
-24,-35,1
-13,-45,-2
-3,-48,-6
3,-53,-6
-3,-57,-10
-61,-38,-23
-82,-27,-21
-124,-14,-37
-128,-6,-88
-128,35,-74
-107,18,-45
-33,-2,-17
-20,2,-12
20,22,-5
51,58,7
53,64,14
55,76,15
-81,97,-35
-128,92,-41
-123,52,29
-128,40,-51
-128,25,-58
-98,-5,-11
-40,-19,-7
-31,-32,-13
-6,-49,-17
24,-46,-9
27,-53,-4
-8,-47,-11
-109,-34,-60
-127,-23,-51
-128,-24,-54
-128,44,-82
-128,40,-65
-57,0,-32
-20,13,-12
8,20,-2
47,46,9
51,75,23
52,79,24
1,73,-7
-107,82,3
-128,71,-12
-128,48,-48
-128,46,0
-122,33,29
-59,14,19
-44,-36,-8
-30,-55,-11
-1,-66,-12
3,-61,-15
-19,-54,-23
-99,-34,-54
-111,-21,-40
-128,-25,-33
-128,75,-126
-128,105,-75
-66,20,-32
20,25,-7
48,25,2
61,46,4
50,77,1
47,83,8
-8,80,6
-128,87,-1
-128,83,21
-128,29,-13
-128,17,-31
-128,8,-3
-58,-3,20
-17,-27,13
-5,-41,5
10,-61,-7
12,-69,-11
-1,-67,-20
-80,-49,-68
-126,-28,-68
-128,-32,-74
-128,48,-89
-128,57,-53
-64,4,-41
-37,28,-21
14,44,15
33,55,26
41,77,33
30,66,28
12,62,15
-69,66,-10
-128,82,-29
-128,67,-20
-128,37,-67
-128,0,-41
-98,-11,-18
-35,-26,8
-6,-51,5
3,-58,1
14,-70,-7
3,-58,-12
-33,-46,-21
-128,-16,-68
-128,20,-30
-128,16,-42
-128,45,-82
-78,13,-43
-45,10,-24
-6,12,-7
11,20,10
47,47,14
52,73,28
23,76,10
-21,82,-9
-128,69,-43
-128,40,-47
-128,24,-66
-128,12,-27
-99,-6,-15
-27,-19,6
0,-47,5
5,-51,2
15,-39,6
7,-40,-2
-23,-40,-17
-116,-38,-55
-128,-14,-35
-128,-4,-41
-128,54,-47
-118,4,-58
-72,7,-41
-14,3,-12
32,13,0
50,32,5
52,56,13
39,71,8
15,77,-4
-87,77,-2
-128,79,-31
-128,52,-27
-128,32,-18
-118,8,1
-69,-7,3
-9,-32,-1
9,-57,-12
20,-52,-13
34,-49,-8
-2,-42,-10
-42,-33,-19
-128,-24,-36
-128,-36,-49
-128,-20,-83
-128,51,-45
-65,8,-23
-37,2,-14
14,23,6
59,39,16
59,45,17
52,54,19
-19,83,-5
-94,95,-19
-128,68,-23
-128,27,-41
-128,31,-32
-107,7,-2
-36,-16,3
-13,-27,3
10,-56,-7
15,-51,-9
21,-54,-7
0,-55,-11
-36,-44,-23
-128,-22,-47
-128,16,-16
-128,7,-40
-128,46,-61
-76,1,-35
-49,-7,-20
-20,-5,-6
31,12,8
45,34,12
60,60,40
33,73,9
-23,90,-18
-128,83,-57
-128,53,-17
-128,43,-27
-128,25,-36
-104,-20,-39
-59,-30,-21
8,-61,1
13,-63,-2
-1,-55,-10
-20,-54,-36
-66,-34,-35
-103,-26,-61
-120,-4,-69
-128,35,-104
-128,71,-79
-98,2,-66
-31,13,-21
-7,8,-6
32,11,8
45,38,7
45,53,23
37,64,22
-42,85,-15
-128,88,-24
-128,56,-23
-128,36,-53
-128,35,-35
-99,-5,-24
-42,-31,-13
-18,-42,-6
12,-60,0
18,-62,-7
15,-63,-10
-20,-38,-10
-65,-29,-19
-128,-10,-37
-128,16,-81
-128,46,-72
-110,54,-27
-45,-3,-26
-21,-2,-16
33,20,5
61,39,10
62,47,10
35,52,5
-75,77,-8
-128,87,-6
-128,36,-35
-128,14,-47
-128,16,-15
-92,-3,4
-38,-7,4
-23,-18,2
-11,-52,-1
4,-61,-6
10,-61,-11
-16,-44,-11
-128,-20,-38
-128,10,-31
-128,57,-31
-128,33,-59
-128,16,-56
-46,6,-24
-19,-1,-12
9,10,-3
49,35,11
55,51,18
45,63,19
-12,83,9
-128,80,-1
-128,69,-6
-128,13,-55
-128,3,-15
-100,-10,-2
-44,-24,5
-6,-49,-5
4,-52,-6
23,-47,1
19,-49,0
4,-42,-4
-128,-29,-45
-128,-5,-15
-128,-4,-23
-128,28,-58
-115,23,-38
-67,-7,-32
-24,-5,-14
24,6,1
41,13,1
37,43,-1
37,65,12
44,85,25
-92,98,-44
-128,91,-52
-128,41,-4
-128,9,-45
-128,21,-28
-90,2,7
-29,-10,10
-22,-28,-4
-13,-56,-30
18,-62,-30
22,-66,-29
-48,-48,-48
-128,-21,-58
-128,-2,-35
-128,15,-50
-128,73,-50
-116,49,-32
-39,10,-12
10,18,8
44,30,19
58,56,29
55,70,44
49,75,37
-91,83,-30
-128,63,-21
-114,48,-2
-128,16,-65
-128,6,-53
-128,1,-26
-62,-19,-5
-29,-52,-9
-23,-65,-11
0,-66,0
8,-53,-2
-17,-43,-11
-110,-18,-36
-117,4,-25
-128,-15,-46
-128,32,-88
-92,44,-33
-62,13,-27
-33,3,-24
39,43,10
61,58,18
57,68,17
49,75,17
18,71,-2
-97,80,-19
-128,78,-22
-128,62,-24
-128,37,-43
-118,8,-13
-87,0,-6
-31,-17,7
-15,-41,3
3,-71,-9
18,-68,-10
12,-64,-7
-39,-47,-25
-128,-25,-78
-128,4,-57
-128,9,-36
-128,48,-76
-76,12,-47
-40,2,-28
-14,4,-18
19,13,-4
56,42,0
50,79,13
50,91,25
2,99,3
-128,106,-15
-128,95,-5
-128,28,-31
-128,28,-24
-109,9,-5
-43,-18,-2
-18,-40,-6
-10,-59,-8
8,-66,-12
8,-54,-10
-15,-52,-11
-115,-40,-54
-128,-11,-49
-128,-4,-46
-128,59,-62
-118,34,-52
-75,20,-38
-17,12,-12
27,16,1
36,35,3
44,77,18
53,84,35
29,81,12
-103,89,-10
-128,80,-14
-128,56,-45
-128,30,-45
-104,8,-6
-61,-6,4
-22,-35,5
6,-54,7
17,-54,9
16,-57,4
6,-53,2
-53,-34,-9
-128,-16,-48
-128,2,-45
-128,26,-63
-128,73,-44
-100,35,-40
-23,0,-20
50,18,2
71,28,5
62,51,5
43,66,5
26,73,-11
-58,90,-11
-128,77,-33
-128,74,-34
-128,46,-12
-122,11,-10
-86,-8,-12
-23,-38,-6
-2,-63,-6
-3,-63,-3
-1,-54,0
-5,-40,-9
-38,-35,-15
-128,-20,-42
-128,-12,-43
-128,-14,-73
-128,78,-76
-62,16,-35
-32,5,-19
23,22,2
61,44,15
63,56,14
50,82,21
8,99,1
-24,102,3
-128,127,-40
-128,58,-64
-128,30,-53
-124,-12,-32
-53,-40,-20
-24,-47,-13
9,-58,-7
17,-48,-4
14,-47,-5
-3,-46,-22
-86,-32,-50
-128,-21,-53
-128,-11,-41
-128,38,-64
-128,85,-42
-89,10,-35
-43,8,-19
-2,9,-6
40,22,2
50,38,0
57,77,15
35,84,-5
2,91,-18
-128,95,-10
-128,111,-15
-128,73,-1
-128,31,-19
-89,-31,-44
-42,-51,-31
7,-67,-20
40,-61,-16
35,-62,-22
-2,-65,-40
-65,-34,-48
-116,-18,-50
-128,1,-45
-128,9,-106
-128,72,-64
-102,41,-32
-45,19,-23
-21,25,-12
56,25,11
74,39,4
64,57,1
39,62,-14
-38,91,4
-119,94,-1
-128,101,-24
-128,20,-32
-128,13,-19
-88,-9,4
-34,-36,4
-17,-49,0
15,-55,-8
33,-63,-14
28,-68,-19
0,-54,-22
-128,-20,-40
-128,-11,-59
-128,27,-68
-128,78,-52
-122,57,-40
-38,10,-28
23,13,-3
50,15,5
64,41,3
58,59,4
45,75,-2
-8,91,-11
-70,91,-8
-128,98,-11
-128,74,-15
-128,71,-20
-126,30,-20
-64,-22,-31
-43,-34,-30
-10,-48,-20
12,-62,-13
18,-74,-9
-21,-58,-12
-128,-26,-38
-128,-5,-30
-128,10,-27
-128,40,-56
-128,43,-39
-54,16,-15
-24,13,-13
-1,21,-7
52,46,10
63,68,15
54,76,7
-12,82,-15
-106,71,-12
-128,75,3
-128,65,-32
-128,28,-26
-122,11,-13
-65,-30,-19
-29,-52,-24
-11,-61,-22
15,-54,-15
11,-49,-15
-9,-45,-22
-93,-28,-42
-128,-3,-28
-128,-9,-43
-128,67,-72
-108,27,-35
-78,-2,-31
-16,8,-9
31,15,5
49,33,4
54,61,9
52,86,3
24,107,-3
-119,88,-25
-128,77,-33
-128,65,-29
-128,29,-93
-128,15,-65
-51,-10,-11
-11,-50,-15
-8,-64,-22
12,-55,-17
12,-57,-17
-24,-51,-36
-87,-21,-25
-115,-7,-10
-128,-36,-81
-128,66,-48
-115,32,-33
-82,12,-33
9,25,-1
46,24,7
40,34,-6
19,56,-5
72,71,2
20,97,-7
-125,100,14
-128,58,-3
-128,38,-13
-128,25,7
-93,3,6
-64,-7,6
-22,-32,-3
-9,-46,-7
14,-46,4
4,-63,-23
-64,-55,-37
-56,-38,-27
-88,-21,-32
-128,-19,-78
-128,32,-93
-128,52,-36
-56,-2,-40
-7,13,-17
67,34,6
71,64,10
55,70,10
30,85,1
-66,104,5
-128,102,10
-128,71,-18
-128,34,-59
-128,29,-42
-86,1,-5
-36,-25,-3
-11,-38,-1
17,-45,-2
18,-39,-3
24,-47,-5
-1,-44,-16
-55,-36,-32
-128,-22,-68
-128,11,-54
-128,45,-75
-128,50,-57
-34,19,-16
15,18,2
48,28,8
74,47,20
67,52,18
42,72,0
-33,86,-11
-90,88,-19
-128,81,-18
-128,53,-46
-128,48,-50
-128,16,-21
-64,-22,-16
-43,-36,-16
-11,-49,-9
16,-50,-4
24,-55,-4
4,-49,-15
-70,-31,-49
-114,-18,-43
-128,-1,-27
-128,83,-87
-128,90,-63
-80,12,-26
-30,22,3
-1,15,10
54,15,-2
45,59,9
50,66,22
27,74,-11
-104,89,-21
-128,73,-33
-128,39,-43
-128,1,-62
-128,4,-28
-67,-2,1
-18,-27,7
-9,-38,4
8,-50,-4
14,-45,1
3,-41,-2
-64,-22,-22
-91,-15,-23
-122,-31,-9
-128,-9,-101
-128,46,-55
-93,30,-26
-60,-1,-27
-19,10,-13
54,26,12
67,52,-1
64,72,-4
45,93,-4
-65,92,-4
-128,94,-24
-128,58,-15
-128,27,-42
-128,34,-36
-116,17,-12
-41,-9,-2
-20,-18,-3
11,-34,-8
25,-47,-19
29,-46,-20
21,-44,-18
-15,-22,-12
-60,-10,-12
-128,-18,-85
-128,44,-52
-128,63,-32
-108,15,-34
-18,16,-6
9,27,3
53,43,9
71,58,14
66,67,19
26,75,-2
-77,89,-16
-128,90,-40
-128,70,-45
-128,38,-55
-128,21,-42
-73,-12,-18
-18,-33,-5
-2,-45,-4
10,-52,-9
14,-56,-10
12,-55,-9
-17,-36,-17
-128,-14,-50
-128,-1,-53
-128,17,-90
-128,76,-73
-115,40,-60
-46,11,-27
-30,14,-12
21,22,12
49,38,13
44,50,20
37,67,21
0,74,-8
-55,83,-26
-128,87,-34
-128,62,-52
-128,42,-46
-123,1,-27
-63,-28,-20
-30,-39,-11
8,-70,-4
17,-59,-5
12,-54,-10
-19,-47,-16
-89,-17,-28
-112,-2,-23
-128,-5,-56
-128,75,-64
-128,84,-40
-78,5,-34
-27,13,-13
-8,10,-3
30,15,1
39,47,13
42,61,23
44,79,5
-69,99,-20
-128,91,-29
-128,64,-39
-128,16,-58
-128,12,-38
-78,-12,-30
-33,-33,-27
-21,-40,-25
7,-50,-11
21,-52,-8
20,-52,-13
-29,-35,-25
-128,-22,-41
-128,-20,-48
-128,10,-78
-128,61,-56
-107,32,-46
-28,13,-14
8,13,-4
26,19,3
54,44,14
53,60,20
33,70,8
-92,85,-34
-128,68,-21
-128,46,-19
-128,0,-64
-128,7,-13
-82,-5,-1
-22,-27,3
-8,-36,0
15,-50,-7
27,-46,-13
28,-48,-14
-2,-45,-19
-98,-19,-38
-128,-14,-37
-128,-26,-66
-128,49,-57
-128,60,-34
-67,6,-22
-10,18,-2
13,27,4
62,31,8
54,43,4
42,43,3
-28,56,-5
-128,85,15
-128,67,26
-128,3,-48
-128,12,-39
-128,12,-2
-37,-11,5
-7,-37,-5
-3,-53,-9
15,-54,-6
22,-59,-7
13,-60,-12
-72,-36,-30
-128,-4,-21
-128,-6,-24
-128,21,-66
-128,47,-39
-93,24,-33
-33,8,-19
24,28,1
50,36,4
61,48,13
55,74,13
29,79,1
-108,89,-13
-128,68,1
-128,39,-28
-128,6,-64
-108,0,-9
-67,-12,-7
-25,-27,-3
4,-52,-1
14,-52,-1
22,-49,-6
15,-50,-12
-35,-40,-24
-125,-9,-31
-128,-7,-29
-128,-26,-102
-128,109,-49
-107,55,-37
-53,5,-34
18,28,-7
44,26,6
67,43,14
46,60,16
36,66,14
-42,73,2
-128,88,3
-128,74,-17
-128,33,-72
-128,10,-33
-80,2,-15
-28,-22,-7
-2,-54,-8
20,-56,-12
26,-58,-16
7,-58,-24
-25,-51,-31
-123,-22,-61
-128,-41,-61
-128,-28,-88
-128,91,-55
-95,23,-37
-60,17,-25
3,29,0
51,38,14
55,46,13
48,64,12
16,58,-2
-21,62,-8
-128,73,-9
-128,30,-6
-128,2,-45
-128,9,-30
-91,-4,7
-61,-10,4
-23,-35,-9
14,-49,-14
24,-55,-12
23,-67,-8
0,-39,-7
-28,-23,-12
-128,0,-35
-128,-53,-53
-128,-38,-110
-128,68,-52
-74,-26,-56
-44,-16,-41
30,34,9
55,34,17
57,49,-1
39,66,8
33,58,5
-39,55,-23
-128,51,5
-128,56,20
-128,27,-39
-128,21,1
-128,21,12
-87,-6,3
-17,-36,9
4,-50,10
7,-60,-9
2,-65,-28
-4,-61,-28
-50,-26,-9
-128,13,-4
-128,6,11
-128,21,-4
-128,41,-25
-128,11,-29
-41,0,-16
13,7,1
39,19,8
30,54,-7
50,80,16
57,77,20
-17,73,-13
-124,51,-24
-128,54,-32
-128,34,-60
-128,14,-18
-113,-9,-3
-41,-20,7
14,-43,8
27,-57,5
31,-50,-8
14,-54,-20
-8,-51,-21
-116,-31,-48
-128,-16,-63
-128,-5,-42
-128,42,-106
-116,15,-66
-32,9,-23
32,3,14
40,0,13
52,36,6
62,68,30
56,73,34
-29,100,-43
-128,103,-51
-128,65,-13
-128,30,-83
-128,4,-61
-128,-5,-9
-35,-25,14
-24,-41,-7
-4,-56,-4
24,-46,-3
20,-53,-10
-11,-52,-22
-105,-26,-46
-128,-8,-18
-128,-25,-38
-128,23,-110
-117,88,-18
-79,38,-25
-31,19,-20
71,37,10
92,33,8
67,56,-1
42,71,-12
1,77,-15
-128,98,-8
-128,63,11
-128,30,-12
-128,24,-42
-77,-9,-1
-36,-19,4
3,-34,5
21,-52,2
30,-50,-1
17,-57,-6
-30,-43,-12
-78,-23,-16
-117,12,9
-128,-28,-62
-128,-8,-99
-128,35,-48
-93,-13,-47
-50,-11,-32
26,12,10
79,59,12
88,69,20
52,64,13
-27,100,-14
-88,96,-4
-128,75,-13
-128,60,-12
-128,20,-48
-127,0,-12
-92,-16,-7
-34,-30,-2
9,-62,-7
20,-64,-12
28,-49,-15
4,-57,-10
-73,-31,-30
-128,-19,-33
-128,-3,-36
-128,19,-46
-128,72,-33
-87,11,-34
-42,14,-18
16,8,1
58,39,0
60,52,2
55,71,18
16,80,4
-39,90,-10
-128,80,0
-128,42,-30
-128,27,-58
-128,16,-12
-84,-7,-7
-55,-8,-2
-2,-29,4
23,-46,-9
34,-48,-11
25,-60,-17
-78,-33,-45
-128,-20,-48
-128,-18,-43
-128,9,-60
-128,47,-41
-113,25,-40
-36,18,-16
-12,16,-10
50,31,5
63,51,13
58,57,15
32,62,-2
-79,82,-7
-128,85,5
-128,44,7
-128,16,-52
-128,17,-30
-103,0,15
-49,-15,10
-17,-24,11
24,-50,0
28,-48,-7
28,-48,-6
-11,-43,-14
-59,-16,-49
-128,1,-31
-128,-28,-30
-128,-28,-90
-128,36,-45
-68,-10,-29
-68,-8,-32
-1,13,7
45,38,8
47,51,3
59,81,11
13,75,-12
-27,77,-12
-70,63,9
-128,88,-53
-128,107,-78
-128,49,-51
-92,6,-15
-66,-28,-23
-41,-71,-33
-2,-51,-16
10,-46,-9
3,-52,-19
-43,-35,-40
-70,-23,-43
-111,-5,-33
-128,-20,-91
-128,34,-83
-90,44,-32
-41,-8,-16
-8,4,-3
36,18,11
43,42,-9
44,60,-2
36,77,6
-33,84,-6
-90,84,-19
-128,103,21
-128,76,-51
-128,44,-66
-97,15,-11
-44,-7,-9
-18,-20,-10
1,-47,-17
21,-55,-16
31,-57,-18
-15,-49,-24
-67,-41,-41
-128,-6,-40
-128,-20,-62
-128,58,-78
-128,59,-45
-69,13,-25
-42,12,-15
27,19,11
72,28,6
68,46,-7
47,76,14
8,78,-14
-43,91,-8
-128,98,-2
-128,45,-12
-128,28,-42
-128,24,-11
-80,-7,-9
-27,-25,-13
-11,-36,-12
12,-46,-5
22,-48,-5
16,-55,-19
-47,-48,-48
-107,-46,-72
-128,-26,-68
-128,10,-85
-128,59,-60
-119,28,-36
-41,38,-11
-8,39,3
63,50,22
64,63,21
51,71,15
23,74,2
-51,79,3
-121,75,-11
-128,37,-25
-128,25,-44
-128,31,-29
-118,1,-14
-38,-11,5
-19,-23,1
7,-38,-13
27,-49,-18
26,-68,-24
-2,-59,-49
-113,-25,-79
-128,3,-64
-128,-6,-62
-128,82,-110
-128,77,-61
-77,10,-29
-12,32,-3
25,38,10
71,60,23
69,69,30
45,79,28
-16,80,-5
-76,84,-26
-128,75,-36
-128,78,-64
-128,66,-93
-128,10,-56
-60,-16,-15
-43,-34,-12
-4,-61,-7
12,-60,-6
10,-64,-11
-4,-59,-31
-51,-33,-45
-103,-18,-54
-128,-2,-58
-128,44,-78
-128,69,-66
-85,8,-52
-20,12,-19
3,16,-5
43,42,2
39,67,16
39,73,24
27,80,5
-81,82,-16
-128,83,-12
-128,53,-10
-128,51,-56
-128,43,-48
-102,3,-20
-34,-32,-8
-27,-50,-15
-9,-68,-25
26,-65,-20
22,-64,-15
-43,-48,-42
-112,-19,-68
-109,0,-44
-128,-14,-61
-128,111,-84
-128,80,-59
-47,13,-24
-2,22,-4
29,17,6
50,32,8
49,64,16
50,76,18
7,81,-11
-128,83,-7
-128,93,-6
-128,47,-23
-128,27,-54
-128,10,-11
-51,-15,-4
-37,-20,-1
-15,-43,3
13,-53,0
20,-47,-1
7,-47,-8
-75,-29,-25
-114,-16,-35
-128,-17,-35
-128,20,-121
-128,77,-83
-65,43,-15
-40,17,-21
3,31,-4
68,37,18
53,51,5
46,63,4
32,64,2
-123,93,-8
-128,98,-7
-128,47,0
-128,15,-30
-128,16,-7
-70,-15,2
-26,-29,1
-10,-40,0
22,-44,-6
33,-56,-14
28,-64,-16
-51,-38,-28
-128,-6,-52
-128,4,-52
-128,13,-69
-128,57,-39
-114,40,-25
-37,24,2
15,17,20
37,20,21
33,53,4
35,74,23
38,64,13
-41,78,-11
-128,70,-28
-128,58,-8
-128,44,-42
-128,13,-62
-117,-7,-43
-20,-18,-5
2,-33,-6
19,-55,-21
13,-53,-16
10,-58,-17
-16,-53,-34
-116,-34,-57
-128,-16,-55
-128,4,-48
-128,71,-66
-128,81,-47
-54,6,-19
-16,13,-4
16,21,5
72,27,-3
84,59,5
88,70,4
38,87,-8
-128,113,-8
-128,127,-12
-128,71,-31
-128,32,-38
-126,18,-9
-58,-19,-10
-22,-41,-14
-5,-52,-16
26,-55,-15
27,-63,-14
6,-55,-20
-98,-29,-45
-128,7,-43
-128,5,-39
-128,39,-75
-99,41,-36
-63,14,-27
-26,13,-8
39,14,12
64,15,11
44,46,-12
55,61,8
63,63,3
-73,118,-4
-128,116,-13
-128,76,3
-128,40,-43
-128,5,-18
-87,-13,-21
-28,-36,-30
4,-56,-23
21,-61,-16
29,-60,-4
10,-50,-9
-18,-35,-19
-128,0,-32
-128,9,-34
-128,-29,-94
-128,59,-82
-128,74,-33
-27,18,-25
39,19,-7
76,39,5
79,47,7
50,66,3
30,68,1
-36,81,-5
-128,97,-20
-128,78,-24
-128,45,-60
-128,19,-23
-116,4,-8
-48,-19,7
-9,-57,9
4,-73,9
5,-60,10
-36,-66,-26
-69,-56,-54
-74,-14,-41
-88,-5,-9
-128,-30,-61
-128,13,-64
-80,34,6
-69,4,-15
-35,2,-25
63,33,5
87,48,10
58,50,-2
26,74,-10
12,73,-6
-79,78,-3
-128,95,13
-128,83,47
-128,95,10
-128,41,-18
-117,8,-1
-28,-39,9
-28,-55,-6
-22,-55,-10
-13,-54,-11
-56,-40,-31
-82,-32,-33
-95,-7,-29
-128,19,-44
-128,27,-64
-112,24,-47
-75,0,-44
-55,9,-31
-6,5,-9
41,18,-2
39,36,-6
40,74,29
51,80,33
-12,124,23
-128,127,-14
-128,112,-7
-128,65,-39
-128,56,-57
-84,4,-33
-55,-19,-28
-38,-47,-32
-24,-48,-28
9,-53,-17
1,-58,-19
-36,-49,-30
-128,-28,-46
-128,-3,-41
-128,1,-78
-128,70,-68
-62,37,-19
-40,23,-11
14,26,7
53,26,2
54,36,3
48,53,23
-15,75,6
-78,99,-20
-89,116,28
-128,68,-53
-128,58,-61
-128,35,-1
-73,8,3
-51,-8,1
-19,-53,-7
3,-50,-9
7,-54,-9
-15,-46,-17
-61,-32,-20
-85,-19,-11
-125,-9,-9
-128,28,-66
-128,80,-53
-58,32,-2
-42,20,-15
-18,23,-10
38,44,11
65,61,23
58,67,20
10,88,13
-98,91,5
-126,86,23
-128,51,-5
-128,18,-64
-128,6,-34
-77,-10,-7
-55,-14,-4
-16,-47,-5
11,-55,-7
19,-48,-5
18,-57,-10
-56,-44,-43
-118,-32,-59
-128,2,-2
-128,5,-44
-128,67,-15
-77,32,12
-50,2,-6
10,12,16
29,20,-18
36,52,-28
103,45,1
73,70,17
-128,125,-11
-120,83,52
-119,88,44
-128,46,-8
-128,43,19
-93,36,26
-42,4,5
-15,-19,6
-11,-55,-11
-4,-50,-13
-15,-56,-19
-44,-50,-21
-78,-27,-11
-97,-22,-4
-128,-26,-30
-128,72,-16
-128,64,-10
-64,5,-18
-11,18,-2
4,16,-4
43,24,-3
38,60,-2
59,78,18
12,81,-6
-128,92,-2
-128,67,32
-128,49,-2
-128,29,4
-128,19,18
-66,0,5
-11,-25,3
-4,-34,-6
5,-40,-20
13,-46,-19
-5,-48,-20
-93,-33,-35
-128,-18,-7
-128,-34,-22
-128,11,-36
-128,42,-28
-96,12,-24
-35,9,-5
-10,12,4
36,38,9
46,72,11
51,79,20
33,79,9
-102,89,-11
-128,86,3
-128,57,3
-128,37,-30
-128,37,-19
-96,-2,-14
-46,-22,-14
-24,-35,-15
4,-61,-18
23,-58,-17
19,-54,-15
-48,-45,-34
-128,-23,-53
-128,-10,-35
-128,8,-55
-128,58,-50
-108,26,-36
-45,16,-17
-4,21,-1
21,28,6
50,49,10
43,64,17
37,67,21
-22,87,2
-128,103,8
-128,80,0
-128,47,-37
-128,22,-27
-109,8,-19
-59,-12,-17
-23,-38,-20
-11,-48,-22
10,-46,-18
13,-44,-20
-5,-45,-27
-70,-46,-36
-128,-28,-43
-128,-26,-34
-128,12,-47
-128,48,-37
-92,13,-28
-37,16,-17
-9,21,-9
38,33,1
48,58,8
50,65,14
31,63,2
-81,79,-12
-128,89,-26
-128,92,7
-128,38,-78
-128,10,-50
-67,1,-1
-44,-28,-20
-23,-49,-23
7,-55,-16
15,-50,-17
21,-52,-20
-7,-43,-21
-82,-36,-37
-128,-35,-49
-128,-22,-75
-128,20,-68
-118,12,-52
-45,8,-20
6,15,3
30,20,9
35,45,9
31,61,20
24,66,14
-63,100,-8
-128,96,-10
-116,69,6
-128,28,-53
-128,20,-25
-110,11,-4
-56,-10,1
-24,-50,-11
-12,-56,-10
13,-49,-2
16,-47,-9
-7,-43,-22
-117,-35,-63
-113,-15,-27
-128,-22,-32
-128,11,-69
-88,12,-27
-63,-3,-21
-25,5,-8
4,14,1
47,39,9
37,58,11
35,59,13
5,64,2
-128,90,-9
-128,100,0
-128,57,-4
-128,22,-46
-128,11,-28
-65,-15,1
-29,-42,-6
-27,-53,-13
5,-49,-13
24,-52,-4
15,-52,-11
-80,-42,-47
-128,-3,-58
-128,21,-40
-128,16,-54
-128,7,-71
-70,9,-41
-7,23,1
37,30,2
55,49,2
53,53,8
39,68,19
16,73,16
-128,94,-19
-128,63,1
-128,39,-8
-128,45,-40
-123,27,-16
-83,14,-5
-29,-17,0
-13,-54,-15
-9,-56,-19
5,-58,-15
-24,-51,-22
-66,-44,-42
-128,-28,-53
-128,-13,-62
-128,3,-81
-128,44,-61
-49,19,-21
-25,13,-9
30,26,9
54,47,7
51,64,11
52,78,33
-43,83,-6
-128,94,-31
-120,73,33
-121,47,16
-128,14,-49
-99,5,10
-68,-10,1
-50,-20,-1
-20,-47,-1
-10,-50,2
4,-58,6
-5,-52,-6
-32,-40,-15
-128,-28,-54
-128,21,-32
-128,23,-40
-128,6,-61
-82,24,-21
-62,15,-18
-10,28,-6
77,59,15
80,64,11
60,65,6
1,77,11
-54,86,16
-128,75,24
-128,22,8
-128,-2,-8
-128,18,7
-89,-7,18
-59,-14,20
-26,-32,14
-12,-55,-3
-6,-68,-1
-25,-74,-16
-116,-51,-52
-128,-25,-53
-110,16,-16
-128,25,-65
-128,27,-67
-66,19,-26
-36,17,-22
-11,20,-12
46,41,12
47,55,17
34,63,16
13,77,33
-94,80,6
-128,88,-22
-128,62,-9
-128,33,-41
-128,15,-31
-89,-12,-2
-58,-17,6
-29,-45,1
-8,-63,-5
2,-64,-9
0,-56,-23
-78,-47,-64
-113,-21,-49
-115,-20,-38
-128,12,-78
-128,42,-61
-82,5,-32
-41,5,-27
-23,16,-17
27,38,3
34,71,10
38,92,13
26,102,20
-100,81,-17
-128,68,-32
-105,43,15
-128,19,-60
-128,16,-52
-115,7,-8
-45,-9,8
-25,-31,4
-15,-63,-14
12,-67,-20
17,-67,-18
-20,-55,-30
-128,-32,-71
-128,-10,-53
-128,-3,-58
-128,46,-84
-128,39,-62
-47,17,-29
-12,14,-23
21,20,-12
58,49,1
51,75,17
46,81,21
-6,80,10
-128,88,-23
-128,93,-29
-128,48,-19
-128,43,-27
-128,34,-13
-74,8,-3
-17,-9,-1
-7,-25,-9
-3,-46,-17
11,-60,-21
1,-63,-31
-69,-40,-38
-83,-26,-26
-128,-29,-44
-128,12,-83
-128,94,-25
-112,49,-24
-32,27,-13
38,32,-1
52,39,-3
56,47,4
62,47,8
38,66,0
