1562821029.000000, 1562821029.000000, 1562821029.000000
32.000000, 32.000000, 32.000000
11,-1,60
15,16,52
6,44,79
-13,32,64
9,23,35
-8,19,59
4,27,68
3,33,49
1,28,38
-18,17,47
-23,12,51
-27,22,43
-35,9,34
-37,7,45
-44,5,40
-48,12,41
-36,8,53
-32,14,50
-17,19,46
-15,9,37
2,16,51
13,16,43
14,19,51
25,29,45
33,20,36
42,26,37
47,29,31
55,24,32
58,40,49
55,44,44
60,41,33
55,54,36
55,46,38
44,50,25
44,45,29
41,41,33
35,48,29
43,42,30
42,38,22
41,39,28
44,39,23
43,38,21
36,38,28
34,24,17
36,26,17
35,38,32
42,39,29
35,39,18
39,32,21
44,33,26
36,36,22
44,37,32
45,35,34
43,37,35
46,39,42
38,53,47
34,58,40
40,65,41
29,63,39
36,60,38
40,49,26
38,43,24
35,50,21
41,40,18
29,37,17
33,40,25
46,40,33
37,43,33
13,55,36
23,46,60
10,53,57
-5,63,52
-11,42,44
-16,40,50
-28,67,53
-37,43,-5
-49,36,-6
-59,44,33
-29,11,-5
-62,20,-55
-56,-3,6
-36,7,17
-56,6,-13
-76,18,-29
-63,37,23
-59,33,9
-90,18,-23
-74,22,-26
-66,15,-8
-88,28,-11
-72,21,-15
-60,18,5
-47,9,40
-68,4,-10
-35,5,8
-24,4,19
-3,9,30
30,-1,43
46,-9,49
12,2,54
27,-3,62
36,-11,67
28,-8,58
27,-6,60
16,-7,69
1,-7,73
4,-4,77
0,-11,71
-2,-2,71
5,1,74
3,-2,64
3,-4,59
5,-4,54
7,-2,56
3,4,51
4,-1,51
4,1,50
4,1,51
5,-3,56
10,0,69
14,-1,66
8,3,63
7,5,74
10,5,76
6,6,63
-4,14,71
1,14,70
8,12,65
8,5,61
8,4,54
16,10,53
11,6,63
3,10,59
7,7,51
3,10,65
2,15,72
8,4,63
20,5,69
17,7,69
16,-1,61
9,2,61
9,6,66
17,-5,67
18,-2,61
13,0,63
14,-5,66
12,-2,58
15,-1,59
14,-1,65
8,-4,53
10,-4,54
14,-3,60
11,-2,58
12,-4,55
18,-2,58
14,-2,56
13,-3,57
20,-6,61
19,-3,60
18,-3,60
19,-7,60
21,-7,58
21,-6,58
24,-4,59
24,-3,61
24,-2,62
22,1,61
22,1,62
18,4,61
17,5,59
18,5,57
22,6,61
18,8,59
19,7,59
20,4,60
23,4,57
22,4,55
20,4,55
23,4,56
24,4,56
20,5,57
21,5,56
22,5,55
24,5,55
27,5,57
28,5,57
26,5,55
26,4,57
28,3,59
26,4,58
26,2,59
28,1,61
28,2,62
20,1,63
19,1,64
18,0,61
17,1,56
18,1,57
18,0,59
16,-1,60
16,-2,61
16,-1,60
19,-2,59
20,-2,58
17,-1,52
19,-3,57
21,-4,60
18,-2,62
17,-2,61
20,-2,61
18,-3,59
19,-4,58
21,-4,60
22,-3,60
20,-3,58
20,-4,60
22,-3,62
21,-2,62
21,-3,58
24,-3,58
25,-3,59
25,-2,60
16,1,56
15,2,56
19,4,61
16,8,60
14,10,57
18,11,58
24,14,58
24,14,58
20,13,60
23,14,60
24,13,59
24,10,54
24,11,51
24,11,51
23,12,53
22,13,55
22,13,55
23,12,56
24,10,55
24,10,54
27,10,56
27,8,59
26,7,61
24,9,64
22,8,67
21,8,66
23,7,64
18,5,64
14,4,60
11,4,58
15,4,59
14,6,60
12,5,60
13,3,58
14,2,57
17,3,55
17,3,56
18,2,57
18,0,56
20,2,59
19,3,61
18,2,60
21,2,59
20,3,60
19,4,64
18,4,64
18,6,64
17,8,65
17,11,63
16,12,61
15,12,58
16,12,59
17,13,58
17,13,59
16,14,60
15,13,58
17,11,55
18,11,54
20,9,54
22,8,54
20,9,55
17,11,55
18,11,58
18,10,59
21,9,58
24,10,61
23,9,63
23,8,64
23,8,67
23,8,69
16,9,69
10,9,63
10,9,61
9,10,59
8,11,62
9,10,64
11,9,63
12,9,56
14,8,55
15,6,53
15,7,52
16,7,53
17,8,56
17,8,59
17,8,59
19,8,59
18,6,57
19,5,58
20,5,60
20,7,62
19,8,61
18,9,63
18,12,64
19,13,66
16,15,65
15,17,63
12,18,60
8,19,59
12,19,60
13,18,58
14,16,59
15,14,59
16,12,55
16,13,52
16,14,55
16,13,54
16,12,54
17,12,54
17,13,56
17,12,58
19,11,59
21,10,61
21,10,62
21,11,61
20,10,65
18,9,69
17,9,68
13,9,65
8,9,65
9,8,63
9,10,61
8,15,66
9,15,66
11,13,59
11,11,53
13,11,51
14,10,50
14,11,52
15,11,53
15,10,55
15,9,57
16,10,59
15,10,59
18,10,62
18,10,61
18,14,65
13,20,68
13,21,68
9,22,66
9,23,63
8,25,59
6,25,56
11,22,58
10,19,59
9,16,56
13,14,53
15,16,53
12,18,52
12,16,54
13,15,54
13,15,55
14,17,58
16,16,60
17,14,61
18,14,63
18,14,66
15,15,74
10,15,75
9,14,73
5,11,62
3,10,57
3,11,58
6,12,63
5,11,64
5,10,60
8,9,55
9,10,54
11,10,52
11,10,53
11,10,54
12,10,56
14,9,61
14,10,62
15,13,60
16,12,61
17,13,64
15,16,68
10,19,66
9,20,66
7,20,64
5,22,59
5,23,57
9,23,59
9,18,59
8,18,57
12,16,54
14,17,53
12,18,52
13,18,54
15,18,55
14,18,55
14,18,56
17,17,62
16,17,62
14,15,60
16,17,64
17,16,66
13,17,67
9,16,67
6,15,68
6,10,63
7,10,59
7,11,58
7,12,62
7,11,64
6,11,60
6,12,55
9,13,56
10,13,56
8,13,54
12,11,57
13,10,60
12,10,61
11,12,59
12,11,60
13,10,60
15,10,59
16,10,61
14,11,63
15,13,64
14,15,66
11,17,68
9,18,68
8,19,62
6,18,61
7,18,61
9,17,59
10,16,59
10,15,59
10,14,58
13,14,53
12,16,54
9,15,54
12,14,56
14,13,56
15,15,55
15,15,57
17,15,58
19,13,60
19,14,62
19,14,63
19,13,63
18,14,64
18,14,66
16,14,69
11,12,68
11,11,66
9,12,62
5,13,59
8,13,61
10,11,60
10,10,52
11,9,49
14,9,52
16,8,55
15,8,55
15,7,56
17,7,60
16,7,60
15,8,59
17,8,59
17,8,58
16,9,59
16,10,64
15,12,63
14,14,62
13,15,68
11,17,68
10,19,60
8,19,56
11,17,60
13,20,63
11,20,62
8,20,60
10,18,57
9,17,54
7,17,51
10,16,54
10,16,55
9,16,56
8,16,60
9,17,62
9,16,62
11,14,60
13,14,62
13,15,63
12,15,64
12,14,65
10,15,66
7,15,65
6,15,65
3,19,69
-1,18,70
-4,15,66
-1,12,58
1,13,54
1,13,55
2,14,61
-1,12,66
0,11,66
3,11,62
5,10,58
4,11,60
10,17,66
6,7,60
5,9,59
10,8,58
11,8,56
3,12,57
-17,14,57
-11,13,60
-7,13,62
-7,11,69
-9,14,62
-8,14,61
-12,14,70
-11,25,72
-8,26,65
-8,21,56
-10,18,54
-7,18,56
-6,20,57
-9,24,62
-9,23,62
-5,21,59
-3,21,58
-3,17,55
-2,17,55
0,18,57
4,18,61
2,17,60
1,17,58
5,15,60
8,14,62
7,14,63
5,15,63
8,16,67
9,14,66
5,12,66
0,14,67
0,15,65
-3,10,62
-1,11,64
3,12,65
6,12,57
9,7,52
10,8,56
12,9,58
13,14,56
11,15,58
12,12,59
20,12,55
13,17,59
9,16,75
12,-6,51
-17,-5,51
-32,-18,65
-28,-10,74
-23,-9,67
-24,0,61
-25,7,62
-28,12,65
-17,13,58
-24,10,56
-19,7,57
-1,6,56
-5,11,51
2,8,57
9,7,56
13,12,57
12,15,61
7,14,74
7,12,63
2,17,57
9,16,60
9,16,53
10,15,52
15,14,61
19,14,61
28,17,54
16,17,63
14,15,65
20,15,59
14,13,58
8,18,68
7,18,73
9,15,60
7,11,59
10,10,65
12,13,62
4,8,59
12,8,60
14,9,56
13,9,54
14,9,54
13,7,53
14,6,54
18,8,59
16,8,58
14,7,56
18,7,62
22,11,61
20,9,59
18,12,65
18,15,67
16,16,66
11,19,67
11,19,62
12,20,60
14,21,58
12,21,58
12,19,56
13,16,52
17,14,51
19,15,52
16,16,54
18,15,56
20,15,56
22,16,56
20,17,56
20,16,57
22,17,59
19,13,60
19,13,61
22,13,62
18,15,69
14,16,69
9,14,64
9,13,62
12,12,60
10,12,64
9,12,65
9,12,59
13,8,52
15,8,51
12,6,53
18,7,56
17,9,56
14,9,53
15,8,57
20,11,62
19,13,62
18,12,59
20,13,60
20,16,65
16,19,64
17,19,63
13,23,65
9,22,62
8,22,61
8,23,54
12,24,55
13,25,56
12,24,59
11,22,55
13,21,53
15,19,51
15,19,52
16,18,52
15,19,53
13,21,61
13,20,60
16,22,58
19,18,59
21,16,58
26,16,60
44,11,67
54,8,73
70,13,82
52,19,82
55,16,85
50,24,101
14,38,87
-17,57,68
-50,66,9
-53,50,-15
-46,40,-19
-8,13,-40
10,-3,-51
5,-1,-62
-7,12,-67
7,22,-59
4,22,-55
6,22,-52
2,22,-57
-8,18,-61
-10,15,-62
-7,18,-69
-11,18,-67
-19,22,-74
-19,25,-77
-16,32,-69
-17,35,-68
-17,34,-72
-14,31,-77
-6,34,-73
-11,37,-75
-9,38,-59
-15,36,-48
-20,39,-51
-21,30,-56
-15,26,-57
-12,29,-62
-18,31,-51
-16,32,-49
-12,33,-51
-18,34,-50
-12,31,-50
-10,33,-47
-15,34,-51
-9,36,-54
-15,36,-47
-22,24,-49
-14,34,-58
-12,36,-50
-13,36,-54
-17,49,-62
-13,50,-57
-23,45,-41
-26,48,-49
-18,48,-49
-12,42,-42
-13,42,-41
-20,49,-41
-11,51,-30
-17,43,-28
-19,44,-11
-9,54,-83
-20,40,-32
-21,44,-27
-14,53,-73
-11,47,-27
-15,45,-25
-17,56,-49
-20,51,-45
-15,46,-30
-14,51,-44
-14,49,-43
-4,49,-36
-5,50,-42
-7,49,-39
-5,49,-38
-14,50,-39
-10,50,-36
-8,50,-36
-11,53,-37
-13,52,-35
-10,53,-39
-12,51,-36
-14,51,-36
-12,53,-40
-16,52,-37
-13,51,-37
-9,54,-39
-12,52,-34
-13,54,-35
-9,55,-38
-12,52,-32
-15,54,-32
-11,55,-34
-13,53,-34
-15,54,-33
-17,52,-30
-14,52,-31
-14,53,-33
-11,53,-33
-13,55,-33
-11,55,-33
-9,57,-34
-9,56,-34
-10,56,-34
-10,56,-35
-11,56,-33
-12,57,-32
-11,55,-32
-12,58,-30
-13,59,-29
-12,56,-29
-13,56,-30
-13,57,-31
-11,57,-31
-11,56,-31
-10,58,-31
-11,57,-28
-11,56,-27
-12,56,-27
-13,55,-28
-11,56,-27
-11,56,-28
-12,56,-30
-12,57,-30
-11,58,-29
-12,57,-28
-13,56,-31
-15,55,-33
-14,56,-32
-12,58,-30
-8,58,-28
-8,57,-30
-7,58,-29
-8,57,-26
-8,56,-27
-8,56,-28
-9,57,-27
-9,57,-28
-10,56,-29
-12,55,-30
-12,57,-28
-14,57,-27
-14,56,-28
-14,57,-29
-15,56,-29
-13,56,-29
-13,57,-29
-12,57,-29
-11,56,-30
-11,57,-30
-12,58,-28
-12,57,-28
-12,56,-30
-11,57,-29
-14,57,-28
-13,56,-28
-13,56,-29
-14,56,-29
-13,56,-29
-13,56,-29
-14,57,-30
-13,56,-30
-13,56,-29
-12,57,-30
-13,56,-29
-13,56,-29
-12,56,-28
-13,57,-27
-13,56,-27
-13,56,-28
-13,56,-29
-13,56,-30
-12,55,-30
-13,56,-30
-13,57,-30
-13,57,-29
-13,56,-30
-13,55,-31
-13,55,-33
-13,55,-33
-13,56,-31
-13,56,-31
-13,55,-32
-12,55,-33
-13,55,-32
-12,55,-32
-11,55,-33
-10,55,-33
-11,54,-33
-11,52,-33
-10,52,-35
-10,52,-35
-9,53,-34
-10,54,-33
-10,55,-34
-11,53,-35
-10,53,-36
-11,54,-36
-11,56,-36
-12,56,-35
-12,58,-36
-16,58,-33
-14,56,-32
-14,54,-34
-17,53,-34
-19,53,-31
-20,52,-30
-22,50,-29
-22,50,-32
-22,51,-34
-24,50,-35
-22,48,-34
-22,48,-35
-22,48,-36
-22,48,-34
-22,48,-33
-22,49,-32
-21,48,-33
-21,47,-34
-21,47,-36
-21,47,-38
-21,47,-39
-21,47,-39
-20,47,-40
-20,48,-40
-20,48,-41
-17,49,-41
-17,51,-42
-18,54,-42
-17,56,-42
-16,61,-41
-18,58,-40
-18,57,-38
-16,59,-35
-15,56,-31
-15,54,-29
-14,50,-27
-12,49,-29
-13,48,-31
-12,49,-35
-13,48,-35
-13,48,-35
-12,48,-38
-14,47,-39
-15,46,-39
-15,46,-40
-16,46,-41
-16,47,-40
-16,51,-40
-19,53,-39
-19,56,-39
-20,58,-39
-20,49,-39
-20,45,-40
-21,46,-41
-24,48,-42
-25,47,-41
-25,47,-41
-29,44,-35
-31,42,-37
-32,38,-43
-38,40,-39
-40,43,-33
-34,37,-37
-33,36,-38
-36,38,-40
-37,34,-40
-38,33,-37
-39,35,-40
-41,37,-47
-50,45,-48
-52,44,-52
-58,41,-58
-62,47,-60
-63,49,-55
-68,47,-43
-63,46,-23
-62,30,-16
-32,16,12
6,9,48
6,3,68
5,-8,53
-3,-4,43
-43,7,41
-45,1,43
-31,0,42
-61,7,55
-55,-1,49
-43,-4,45
-32,-3,48
-63,3,30
-59,-2,25
-50,-6,34
-54,-5,44
-52,-6,43
-53,-2,40
-59,2,43
-56,5,43
-47,5,46
-45,10,46
-46,13,49
-42,13,40
-18,5,56
-26,10,54
-24,12,58
-16,15,68
-12,16,62
11,22,56
16,22,68
17,18,65
21,14,41
19,22,52
24,23,59
27,21,56
25,20,44
28,20,44
28,21,50
24,22,51
30,21,54
40,18,55
32,18,50
33,15,52
40,10,54
45,13,44
38,9,43
32,17,54
29,12,60
19,11,54
27,13,57
25,9,58
22,11,60
25,10,59
28,8,57
26,2,53
24,4,51
27,4,48
26,7,49
23,4,50
26,6,52
28,4,54
29,3,52
31,7,54
31,9,53
30,6,52
32,7,53
32,10,58
28,11,56
35,15,57
32,21,67
27,22,58
29,19,54
29,13,53
28,21,53
28,26,50
25,16,47
24,15,54
25,16,55
26,19,52
28,10,52
32,7,54
32,13,46
33,21,43
32,15,47
36,16,52
35,15,49
35,14,48
36,19,48
35,13,49
37,15,51
35,13,49
29,13,55
33,16,59
40,10,58
22,17,51
23,15,55
31,11,58
29,11,51
28,18,44
21,5,61
30,14,63
24,15,64
23,7,53
20,17,54
25,12,56
41,3,52
19,11,51
3,-4,47
38,8,57
37,15,57
26,0,52
29,9,50
36,12,58
41,7,62
32,5,57
28,11,54
35,5,53
44,1,63
48,-5,60
61,17,70
50,37,63
39,36,66
47,29,92
31,33,90
24,41,88
7,60,55
-7,71,-1
-3,63,-38
24,40,-89
32,-5,-123
-1,-8,-111
16,33,-27
15,56,-45
-8,56,-83
-7,3,-86
22,11,-40
11,12,-56
-33,9,-79
-19,12,-64
-11,11,-70
-22,14,-75
-9,24,-65
-5,29,-62
-2,31,-66
-1,34,-60
0,33,-61
-6,28,-63
-6,32,-57
-6,33,-57
-3,35,-57
-6,35,-57
-9,35,-56
-9,34,-53
-7,33,-57
-7,33,-58
-9,35,-55
-8,35,-57
-8,34,-58
-6,34,-58
-7,34,-57
-8,33,-57
-7,33,-59
-8,32,-58
-8,32,-58
-9,31,-59
-9,31,-59
-7,31,-56
-7,32,-58
-9,31,-56
-7,29,-54
-8,29,-56
-7,30,-56
-6,30,-54
-3,33,-55
-6,34,-56
-8,33,-55
-6,32,-52
-7,31,-53
-8,29,-56
-7,29,-55
-6,30,-56
-6,29,-58
-6,28,-58
-5,29,-57
-5,30,-59
-5,29,-60
-6,30,-60
-5,29,-62
-2,31,-61
-3,31,-59
-6,34,-58
-12,39,-57
-12,40,-59
-14,36,-65
-24,33,-59
-27,30,-58
-32,28,-63
-30,25,-67
-25,22,-65
-30,22,-69
-26,15,-57
-24,21,-50
-26,22,-45
-15,18,-24
-13,16,-15
-26,24,-17
-19,39,26
-21,44,30
-17,49,29
2,71,57
9,74,53
15,92,46
34,80,35
22,83,29
32,70,31
38,59,30
38,53,25
36,45,17
36,41,17
33,36,23
31,36,23
32,43,21
32,46,26
26,58,36
21,62,35
21,78,35
8,76,31
1,83,38
-7,72,36
-14,77,21
-9,69,31
-13,49,37
-24,27,20
-16,28,26
2,27,36
-16,25,33
-9,29,45
-12,43,51
-36,61,44
-35,57,42
-34,52,42
-50,79,6
-56,64,1
-62,67,-1
-44,61,-20
-58,42,-27
-35,35,-42
-17,23,-72
-15,8,-65
-15,26,-41
-3,18,-51
-3,27,-40
-3,34,-29
-6,30,-40
-13,36,-43
-25,32,-39
-31,34,-52
-42,41,-57
-40,41,-65
-32,36,-71
-15,29,-74
-4,26,-65
1,23,-64
3,23,-62
-5,24,-45
-13,22,-56
-18,19,-68
-20,15,-54
-25,31,-65
-40,27,-82
-45,43,-23
-49,52,-37
-64,56,-40
-33,59,-4
-45,59,5
-52,51,0
-45,54,11
-43,50,16
-39,39,13
-18,41,20
-29,45,26
-36,54,19
-34,54,37
-37,54,47
-17,58,29
-11,50,45
-10,58,58
-1,54,62
25,42,60
34,34,58
19,39,56
15,41,54
19,36,55
7,24,46
-9,16,37
-10,14,41
-7,10,40
-18,22,47
-12,25,58
-1,30,56
11,29,58
7,41,53
8,35,54
2,36,64
-4,43,68
-7,40,65
-5,33,71
2,53,68
7,35,59
15,27,48
21,26,47
27,31,49
10,38,44
15,27,49
7,40,69
-1,42,54
-4,39,49
-15,17,61
-18,34,78
-8,40,74
1,51,55
-14,57,61
-8,54,53
-13,44,37
-22,42,36
-33,29,38
-47,12,35
-57,4,29
-56,-19,44
-46,-63,40
-52,-64,38
-41,-46,40
-29,-42,31
-29,-33,38
-32,-30,44
-56,-22,44
-66,-14,54
-51,-12,39
-53,-13,44
-56,-2,63
-45,-5,53
-31,-12,37
-27,-13,33
-28,-17,31
-32,-20,27
-31,-23,31
-35,-26,35
-42,-27,43
-42,-27,45
-49,-26,47
-54,-23,54
-51,-21,59
-44,-16,60
-41,-15,58
-41,-12,58
-34,-6,59
-27,-6,41
-19,-6,34
-12,-6,37
-17,-20,30
-21,-20,27
-17,-22,23
-15,-22,26
-27,-21,29
-54,-18,40
-62,-29,48
-74,-26,59
-106,-15,82
-103,-23,65
-128,-15,54
-120,14,58
-49,2,39
-41,5,21
-22,9,7
-18,8,2
-6,9,-11
5,20,-13
0,33,-23
8,35,-18
9,50,-5
10,67,0
-116,127,27
-128,127,29
-128,112,33
-128,52,17
-105,9,6
-84,-1,9
-40,-11,10
-6,-20,3
8,-31,2
14,-56,2
8,-51,5
2,-43,7
-26,-21,9
-128,-34,-12
-128,-10,-41
-128,63,-33
-115,29,-26
-92,30,-21
-41,28,-16
5,30,-17
19,31,-16
39,39,-5
44,40,-8
38,40,-16
6,78,16
-128,64,-52
-128,48,-83
-128,58,-18
-118,3,-31
-83,-6,-27
-24,-39,-17
2,-43,0
4,-35,3
13,-42,2
8,-48,-1
7,-42,-9
-72,-12,-15
-128,-31,-38
-128,22,-71
-128,96,-62
-123,60,-42
-84,60,-40
-8,51,-16
62,44,-4
65,47,-20
85,43,-2
62,38,-23
44,51,-34
-78,77,-22
-128,77,-43
-128,67,-50
-128,21,0
-97,19,3
-22,-15,3
-12,-38,0
-16,-34,11
5,-43,5
8,-52,-6
1,-48,-13
-90,-39,-6
-128,-24,-47
-128,26,-62
-128,43,-38
-114,24,-37
-90,46,-27
-54,56,-15
-2,53,-11
12,50,-6
0,47,-5
-16,46,23
-33,33,17
-88,-29,74
-75,-2,83
-66,-50,66
-77,-27,76
-37,-41,44
-22,-42,26
9,-28,18
10,-24,-10
4,-30,-18
-29,-24,3
-42,-51,32
-83,-75,50
-80,-65,67
-81,-57,63
-68,-39,76
-34,-18,71
-19,-2,48
-20,6,36
10,19,15
8,16,-1
-16,20,15
-41,31,49
-36,-24,94
-48,-4,124
-79,-39,89
-66,-41,87
-48,-40,84
-24,-31,61
-22,-8,-1
-7,4,-24
11,-2,-47
0,-44,-50
-39,-55,-17
-67,-102,46
-128,-128,75
-121,-76,121
-128,1,72
-128,63,95
-69,28,88
-26,20,31
-5,20,10
24,16,-22
17,28,-5
-7,41,18
-14,42,66
-64,-2,81
-97,5,113
-90,-35,122
-49,-24,93
-42,-26,68
-30,-40,24
-14,-30,6
3,-29,-18
5,-31,-25
-26,-34,-13
-34,-38,15
-43,-72,58
-121,-58,62
-126,-46,40
-69,-29,83
-53,-25,69
-52,-17,48
-37,6,33
1,13,14
11,10,3
-20,18,22
-28,14,49
-23,6,53
-64,-32,101
-72,-36,100
-71,-42,74
-50,-30,64
-34,-42,43
-26,-38,32
-11,-24,6
-5,-15,-2
0,-21,-6
-30,-28,-10
-40,-43,1
-30,-74,16
-94,-64,107
-91,-67,75
-73,-47,83
-45,-28,84
-33,-8,59
-22,5,36
6,14,8
6,12,0
-35,11,15
-32,12,35
-14,11,42
-46,-32,86
-73,-31,111
-64,-54,80
-54,-31,65
-25,-39,53
-26,-38,38
-19,-29,2
12,-18,-18
18,-14,-15
-34,-26,4
-40,-48,19
-30,-74,26
-116,-48,112
-86,-51,96
-61,-33,95
-34,-20,68
-28,1,39
-13,12,26
3,17,0
-6,16,2
-17,17,26
-27,12,40
-62,7,112
-65,16,127
-57,-13,111
-36,-18,86
-35,-31,64
-26,-32,40
-10,-15,11
-5,-8,0
-6,-19,-22
-8,-25,-6
-15,-30,9
-24,-78,20
-93,-49,127
-118,-37,127
-75,-25,102
-33,-12,87
-29,-7,74
-15,9,51
0,12,-3
9,18,-15
-23,31,-4
-27,23,47
-59,39,80
-85,43,127
-79,-2,108
-82,-27,106
-56,-43,80
-18,-40,20
-15,-39,-2
1,-34,-9
13,-29,-2
-2,-33,-4
-57,-35,24
-63,-52,45
-105,-23,89
-118,-14,89
-102,3,94
-51,19,74
-19,20,42
-20,19,29
2,27,19
11,29,9
-8,32,7
-50,34,35
-58,30,46
-70,33,90
-71,29,99
-74,0,70
-65,-10,52
-46,-34,23
-43,-50,-13
-22,-51,-13
7,-56,-15
-30,-48,11
-56,-49,24
-112,-53,88
-128,-5,101
-128,48,64
-128,49,44
-58,54,23
-23,49,0
26,46,-35
57,44,-18
57,40,-21
44,61,-43
-41,91,23
-128,104,15
-128,98,-19
-128,51,17
-119,26,13
-45,-15,-8
-18,-49,4
-25,-44,13
9,-56,19
8,-53,2
0,-40,9
-67,-29,14
-128,-18,-80
-128,62,-98
-128,79,-54
-128,71,-85
-48,74,-52
55,59,-4
73,70,1
120,62,-1
84,55,-30
54,68,-28
-100,81,-27
-128,53,-112
-128,37,-95
-128,30,-29
-49,4,-2
-21,-11,4
3,-32,6
6,-57,14
9,-66,-7
-6,-54,-22
-54,-32,23
-103,-16,19
-128,5,-39
-128,93,-25
-128,85,-31
-73,63,-27
16,38,-17
46,42,-20
101,59,-18
75,47,-9
46,65,-22
-60,72,-45
-128,67,-18
-128,45,-63
-128,43,-17
-94,2,-4
-56,-1,-3
-7,-35,-11
10,-37,0
9,-47,-4
8,-70,-7
-13,-39,9
-66,-26,7
-128,-27,-28
-128,90,-61
-128,95,-42
-107,57,-34
-25,53,-22
15,56,-16
85,66,-7
110,74,-24
92,98,-21
36,115,-34
-128,127,-112
-128,127,-80
-128,48,-101
-128,-3,-24
-51,-46,-18
28,-74,9
13,-48,9
39,-60,22
32,-58,-10
24,-45,-5
-9,-27,10
-128,20,-54
-128,52,-49
-128,127,-54
-128,99,-64
-75,92,-46
13,52,-19
75,52,-13
100,61,-4
100,53,0
70,64,-27
50,70,-28
-76,113,-56
-128,88,-35
-128,84,-94
-128,53,-33
-94,10,-7
-50,3,6
-9,-40,5
7,-37,13
20,-58,16
2,-65,6
-9,-50,15
-33,-22,15
-128,-32,-82
-128,127,-64
-128,107,-64
-127,108,-78
-11,72,-45
29,68,-24
110,78,3
127,66,-10
119,64,-18
29,82,-33
-128,95,-43
-128,76,-62
-128,90,-64
-128,1,-14
-103,9,-15
-28,-28,-13
-7,-32,4
14,-31,12
36,-54,5
16,-61,1
5,-50,6
-75,-14,-22
-128,-28,-46
-128,27,-60
-128,88,-56
-128,74,-52
-66,64,-44
18,68,-28
64,67,-6
120,68,2
90,59,-36
33,63,-29
-13,85,-23
-128,74,-65
-128,81,-93
-128,36,-6
-102,9,-5
-58,-12,-12
-25,-40,2
-8,-35,10
-3,-36,1
9,-56,-3
-13,-52,3
-52,-50,-26
-112,-28,-16
-128,43,-74
-128,81,-68
-128,75,-57
-54,57,-38
-15,51,-28
50,49,-4
81,61,10
78,55,2
28,56,-28
-15,64,2
-93,51,-33
-128,32,-81
-128,5,-21
-128,-10,-24
-70,-14,-6
-26,-37,1
-17,-33,14
-1,-30,15
12,-51,-3
7,-53,-3
-4,-50,2
-73,-47,-34
-128,-85,-26
-128,-11,-51
-128,8,-3
-128,13,2
-109,23,11
-62,50,24
-28,63,26
-22,50,-13
-16,11,0
-19,4,11
-10,-35,14
15,-54,48
46,-75,28
55,-68,28
59,-45,34
58,-26,12
59,-10,3
45,0,-6
18,18,-16
17,2,-7
19,-31,-7
23,-38,0
42,-102,58
57,-82,98
67,-113,84
48,-70,49
51,-64,36
35,-26,24
-3,-17,26
-27,-12,26
-12,18,14
0,9,8
-12,-5,34
42,-41,87
127,-109,49
96,-97,42
55,-62,72
56,-41,42
50,-35,26
13,-10,-15
2,-5,-32
9,-6,-18
34,-11,-5
12,-21,-5
9,-29,12
87,-87,37
91,-115,13
85,-118,30
40,-82,45
8,-36,26
-8,-9,12
-9,32,-5
-12,61,-11
-37,70,-10
-63,56,-1
-34,27,71
-57,27,107
-128,26,73
-128,0,105
-128,3,97
-103,14,51
-96,-16,-23
-92,-39,-25
-24,-69,11
-8,-72,2
3,-71,2
-2,-47,9
-62,-39,4
-128,19,-17
-128,127,-23
-128,74,-26
-78,78,-27
-23,67,-9
11,64,-2
78,61,-17
88,51,-9
64,51,-2
16,50,-29
-102,40,-15
-128,76,-18
-128,56,-31
-128,28,-14
-108,18,-4
-52,-18,-3
-34,-28,6
-29,-29,12
-9,-48,12
-9,-76,3
-12,-67,8
-57,-49,2
-128,15,-43
-128,102,-47
-128,39,-16
-108,71,-32
-69,65,-35
-6,50,-14
28,57,10
33,51,6
28,46,-29
34,50,7
15,54,14
-102,2,-2
-128,27,-22
-128,31,-1
-127,-37,-7
-103,-26,-11
-79,-36,-3
-46,-35,0
-40,-12,4
-42,-3,14
-38,-10,10
-26,-19,6
-17,-34,20
-119,-120,-78
-77,-66,-25
-58,-59,-6
-41,-42,-9
-53,0,1
-41,15,6
-15,9,23
-30,5,1
-33,-15,-12
-24,-18,16
-36,-36,34
-84,-47,26
-97,-83,6
-109,-87,6
-105,-58,27
-63,-37,6
-42,-26,5
2,-17,17
0,-13,7
-7,-9,9
-25,-15,15
-47,-29,-7
-56,-28,3
-55,-23,33
-65,-49,11
-74,-51,7
-83,-53,18
-72,-50,11
-63,-52,11
-63,-53,-11
-45,-55,-10
-42,-60,-9
-46,-52,-19
-37,-35,6
-18,-22,28
-13,0,22
-31,4,-12
-39,0,-16
-27,-4,14
-47,-6,-30
-60,-6,-52
-46,5,-7
-46,26,8
-56,37,-21
-114,71,-48
-117,45,0
-128,66,-22
-128,66,-37
-102,44,-2
-87,29,2
-66,4,-7
-43,-22,-4
-31,-30,0
-11,-50,8
-11,-53,17
-9,-53,8
-44,-36,-19
-66,-26,-9
-128,-17,-38
-128,106,-100
-128,71,-51
-128,93,-63
-62,74,-62
-20,62,-46
48,41,-15
56,48,-10
74,48,-6
42,51,-8
-69,69,22
-118,74,-10
-128,99,-19
-128,29,10
-113,23,3
-52,-9,-4
-21,-33,-1
-25,-39,-2
-6,-48,-5
7,-58,1
4,-52,6
-6,-40,11
-128,-13,-22
-128,55,-48
-128,64,-31
-128,62,-39
-128,76,-43
-65,63,-24
-8,51,-15
16,44,-8
54,43,-8
86,34,-10
78,29,-23
46,38,-22
-42,44,0
-128,51,-18
-128,108,4
-128,24,17
-120,14,18
-68,-11,18
-43,-25,18
-39,-26,15
-31,-19,2
-4,-41,1
-4,-46,-5
-74,-47,-31
-128,-42,-9
-128,-13,-65
-128,48,-35
-106,42,-11
-96,38,-25
-41,37,-11
-15,41,6
-14,28,-2
4,12,2
2,14,5
-26,25,44
-36,-1,55
-47,-22,74
-83,20,98
-99,1,25
-99,1,18
-68,-19,49
-32,-32,28
-32,-31,0
-22,-32,-18
-23,-29,6
-25,-31,7
-52,-37,2
-72,-51,45
-92,-49,44
-90,-51,31
-67,-31,58
-55,-27,56
-46,-11,29
-25,2,19
-15,2,20
-13,3,18
-35,16,47
-33,7,54
-58,-30,50
-92,-27,70
-65,-48,71
-61,-32,63
-41,-39,41
-32,-40,30
-29,-35,3
-8,-27,-2
1,-28,0
-21,-30,3
-42,-50,9
-35,-75,27
-96,-47,74
-82,-55,49
-73,-38,55
-48,-30,59
-38,-13,33
-34,-6,18
4,8,17
-15,11,17
-38,15,30
-28,-3,52
-90,-23,83
-91,-18,82
-67,-47,68
-64,-37,71
-51,-41,57
-30,-37,12
-20,-34,-13
-11,-30,-14
4,-34,-3
-9,-33,-3
-53,-30,13
-65,-60,67
-80,-46,92
-83,-53,52
-69,-26,55
-52,-23,60
-46,-9,51
-28,4,19
-14,6,10
-12,9,24
-37,12,37
-36,3,37
-51,-32,64
-77,-22,70
-69,-44,48
-64,-30,55
-41,-38,48
-31,-37,37
-27,-32,3
-13,-28,4
6,-29,9
-22,-25,-4
-56,-56,20
-60,-63,40
-98,-41,31
-100,-48,38
-90,-38,63
-61,-29,51
-46,-13,11
-28,-2,16
-5,5,16
-33,6,10
-39,12,30
-33,-5,33
-94,-30,79
-105,-12,104
-76,-38,52
-64,-34,40
-49,-40,41
-36,-36,17
-14,-32,-15
-6,-26,-16
5,-28,9
-40,-28,5
-47,-33,12
-61,-69,53
-93,-59,67
-93,-64,47
-74,-36,61
-38,-23,63
-32,-10,51
-19,6,19
-10,11,13
0,6,19
-25,17,47
-22,8,51
-50,-23,83
-56,-21,83
-50,-46,65
-47,-37,75
-31,-41,53
-20,-40,42
-12,-34,14
-3,-20,-12
6,-23,-7
-17,-28,17
-33,-50,40
-23,-71,53
-58,-51,89
-40,-56,79
-32,-48,90
-21,-43,78
-22,-20,55
-19,-10,32
7,3,9
-2,-2,34
-18,1,44
1,-9,44
-35,-31,105
-52,-24,103
-11,-52,76
-24,-36,85
-20,-40,74
-11,-38,43
-15,-34,16
-5,-31,3
11,-24,5
-23,-23,13
-28,-31,19
-15,-71,57
-50,-64,102
-42,-71,76
-27,-50,83
-4,-37,75
-5,-25,63
-6,-2,14
9,-2,9
4,-6,30
-2,3,61
9,-16,28
2,-36,65
9,-34,114
18,-55,65
-10,-44,87
5,-39,59
-3,-42,43
-4,-39,30
10,-26,0
4,-21,-3
-11,-20,14
-10,-38,17
-1,-72,23
-28,-62,125
-12,-70,60
-2,-67,81
12,-59,95
3,-44,51
4,-31,30
-4,-1,14
1,-1,23
0,5,39
4,13,35
0,-27,78
3,-33,122
28,-49,74
-3,-47,94
9,-45,83
11,-51,58
-2,-42,24
2,-34,12
12,-24,-2
-17,-23,9
-26,-27,25
2,-61,12
-14,-64,114
-14,-65,106
-5,-66,69
6,-52,85
17,-50,79
8,-26,49
-3,-1,15
7,1,16
4,1,43
10,5,32
12,-6,23
4,-32,111
24,-44,84
12,-61,73
12,-42,89
14,-44,57
3,-48,47
-4,-37,20
8,-21,-11
7,-20,-8
-20,-16,19
-2,-32,13
17,-72,8
-11,-72,127
-13,-77,85
-10,-64,95
20,-50,82
12,-31,56
7,-16,35
-2,1,11
-6,3,21
5,4,32
16,17,42
8,-1,58
13,-27,127
19,-38,79
0,-46,95
6,-34,84
8,-39,45
-1,-37,37
10,-31,23
6,-24,-7
-5,-18,-5
-15,-20,28
6,-42,28
13,-75,30
-19,-58,127
-8,-59,91
0,-53,103
22,-46,79
11,-25,52
-1,-11,31
2,1,11
5,-3,32
2,1,44
10,8,36
12,-34,75
11,-36,126
20,-49,84
10,-44,93
17,-42,82
10,-50,52
1,-39,19
0,-30,9
9,-18,-4
-11,-18,-7
-24,-14,-4
1,-22,29
-6,-91,95
-31,-71,127
-60,-85,75
-101,-56,68
-90,-42,64
-42,-27,28
7,9,-26
13,31,-42
36,53,-22
51,49,-41
44,60,-38
-48,80,-41
-128,82,-63
-128,85,-45
-128,24,-78
-128,23,-45
-68,-7,-3
-32,-49,-20
-33,-51,-20
-36,-56,1
-25,-60,-1
-27,-52,-4
-32,-26,8
-101,-22,-2
-128,-31,-59
-128,97,-50
-128,62,-57
-106,45,-49
-60,51,-49
12,49,-29
52,46,-27
84,49,-26
63,47,-18
54,58,-17
1,81,-23
-128,119,-14
-128,127,-11
-128,47,-1
-79,16,3
-53,-2,0
-23,-38,-2
-10,-29,1
4,-41,-6
17,-69,-4
1,-52,16
-22,-37,3
-128,-32,-20
-128,54,-58
-128,108,-78
-128,83,-47
-92,65,-42
-60,69,-44
12,68,-29
92,62,-10
93,53,-21
100,58,-34
51,71,-15
9,81,-21
-128,93,-43
-128,102,-21
-128,38,-17
-103,12,-10
-42,-40,-13
-29,-50,-5
-3,-45,8
6,-51,5
9,-72,1
1,-49,6
-20,-29,12
-120,-19,-40
-128,21,-80
-128,124,-76
-128,89,-56
-66,78,-49
-37,74,-38
18,65,-23
93,58,-3
94,50,-4
93,52,-5
43,72,-25
10,88,-18
-128,77,-59
-128,113,-103
-128,74,-65
-128,17,-3
-55,-19,-18
-37,-43,-12
-13,-35,26
27,-42,20
22,-55,9
3,-52,9
-13,-30,6
-76,-5,-34
-128,-8,-53
-128,127,-60
-128,113,-58
-108,87,-60
-40,68,-47
-4,63,-33
87,51,-8
127,61,-6
121,58,6
66,67,-31
-33,95,-42
-128,98,-46
-128,124,-80
-128,56,-14
-128,40,1
-68,-5,4
-38,-22,11
-17,-20,24
6,-33,1
13,-55,6
11,-58,17
-12,-51,-14
-82,-25,-33
-128,-19,-40
-128,127,-75
-128,87,-59
-101,95,-51
-24,85,-40
18,80,-26
113,81,-1
127,54,-8
91,56,-33
54,80,-22
-38,100,-40
-128,109,-87
-128,127,-24
-128,44,0
-119,24,-7
-60,-19,-16
-38,-25,17
-31,-22,21
5,-29,15
45,-57,9
32,-59,12
-32,-50,-12
-128,-30,-23
-128,-9,-37
-128,127,-87
-128,107,-49
-101,88,-53
-16,77,-61
77,90,-9
127,79,8
127,60,-37
76,98,-19
20,101,-18
-128,95,-62
-128,127,-57
-128,78,-18
-118,21,-2
-44,-22,-1
-35,-35,3
-27,-32,29
-15,-70,-5
-22,-74,-8
-80,-48,-2
-108,-41,-32
-128,-29,-32
-128,73,-62
-128,78,-48
-102,82,-29
-24,83,-18
53,75,-18
83,56,-11
65,35,-15
-2,64,-36
-35,71,-17
-128,84,-24
-128,114,-55
-128,30,-11
-108,6,19
-80,2,16
-45,-25,42
-35,-32,53
-40,-45,24
-4,-54,25
-52,-28,42
-76,-43,17
-128,-13,28
-128,69,-40
-114,44,-35
-86,38,-28
-38,52,-34
-6,46,-54
50,37,-63
55,35,-48
41,54,-45
-7,90,-29
-128,114,22
-128,127,16
-128,65,9
-107,23,25
-83,1,30
-56,-60,26
-57,-70,37
-63,-84,19
-34,-106,6
-67,-67,17
-99,-53,0
-128,-11,-17
-128,120,-52
-128,75,-59
-128,105,-50
-34,97,-68
10,77,-57
45,71,-29
64,77,-42
62,59,-43
12,60,-15
-108,94,-10
-128,70,-49
-128,106,-9
-124,43,21
-98,30,7
-62,2,4
-33,-9,6
-22,-15,7
6,-33,13
10,-38,16
8,-56,19
-2,-71,-5
-20,-63,-3
-128,-54,5
-128,66,-58
-128,95,-60
-128,78,-41
-81,82,-46
-36,71,-38
56,58,-26
83,60,-36
102,54,-29
62,48,-25
15,72,-30
-43,81,-13
-128,73,-3
-128,117,-23
-128,48,-8
-99,15,-6
-51,-12,3
-33,-21,6
-1,-31,23
18,-70,7
7,-79,5
0,-57,16
-83,-37,-25
-128,-37,-17
-128,54,-58
-128,89,-46
-128,80,-46
-72,83,-44
-4,70,-36
30,60,-26
94,59,-23
101,49,-41
82,62,-40
14,87,-35
-128,84,-36
-128,94,-36
-128,91,-31
-126,24,-5
-80,7,4
-20,-28,11
-4,-45,16
-1,-53,13
-4,-65,18
-16,-48,11
-26,-32,13
-128,0,-17
-128,96,-63
-128,127,-58
-128,105,-52
-79,90,-62
-39,78,-50
36,52,-30
64,47,-40
127,55,-2
98,50,-36
69,63,-49
1,89,-22
-128,95,-101
-128,127,-100
-128,78,-21
-106,32,4
-66,15,3
-30,-43,3
-13,-37,22
10,-47,21
14,-75,10
8,-54,5
6,-40,2
-108,-15,-43
-128,60,-91
-128,127,-117
-128,100,-73
-88,75,-70
-62,78,-65
15,58,-47
95,55,-14
124,61,0
127,76,-2
66,84,-17
52,89,-10
-128,127,-86
-128,127,-87
-128,63,-34
-103,25,-20
-45,-15,-11
-24,-29,2
6,-41,5
8,-63,7
-2,-67,14
-13,-55,4
-78,-18,-30
-128,0,-19
-128,86,-97
-128,112,-76
-128,121,-75
-84,87,-74
1,66,-42
61,55,-26
119,50,-33
127,55,-1
110,59,-13
8,86,-47
-128,126,-22
-128,127,-73
-128,99,-67
-128,56,-37
-67,18,-10
-13,-29,-7
-8,-37,-1
10,-49,5
12,-77,3
-8,-68,5
-15,-48,3
-128,-2,-24
-128,-9,-51
-128,123,-114
-128,118,-77
-99,104,-88
-41,79,-68
46,62,-41
80,56,-28
127,58,-13
104,69,-18
66,77,-21
-45,107,-13
-128,119,-79
-128,127,-97
-128,51,-26
-92,8,-20
-51,-12,-16
-25,-37,0
8,-45,18
15,-62,14
9,-65,9
-2,-45,32
-51,-20,20
-128,-2,-43
-128,127,-58
-128,127,-80
-118,125,-84
-28,87,-68
4,75,-62
85,62,-28
127,47,-21
127,45,-30
68,62,-34
19,82,-29
-90,104,-43
-128,127,-73
-128,77,-11
-128,49,2
-52,-2,5
-10,-52,20
-1,-50,23
23,-79,7
10,-68,8
-12,-53,9
-94,-17,-9
-128,19,-38
-128,79,-62
-128,127,-65
-128,121,-69
-60,87,-59
18,65,-40
59,55,-33
114,47,-34
122,48,-34
88,52,-28
48,61,-45
-128,127,-19
-128,112,-46
-128,127,-38
-128,44,-7
-99,19,-8
-36,-23,2
-20,-32,29
-10,-33,31
7,-63,27
1,-46,16
-2,-43,7
-107,0,21
-128,23,-46
-128,112,-75
-128,106,-65
-113,91,-80
-65,72,-71
23,65,-49
91,68,-3
111,60,-3
126,67,-41
62,80,-9
39,69,-9
-119,114,-69
-128,127,-44
-128,101,-58
-128,43,-20
-39,-15,-1
-10,-39,1
13,-40,5
36,-77,-1
20,-78,0
16,-60,4
11,-35,3
-50,-37,-18
-128,79,-76
-128,127,-77
-128,115,-62
-76,102,-41
-7,74,-41
28,71,-28
112,67,-4
127,44,-20
106,64,-38
70,79,-17
-35,114,-55
-128,127,-54
-128,127,-60
-128,78,-37
-121,23,0
-38,-27,16
-43,-43,11
6,-74,-26
31,-94,-13
22,-85,-8
-5,-50,9
-47,-5,3
-128,0,-8
-128,76,-95
-128,127,-90
-128,102,-89
-74,88,-72
44,82,-40
82,71,-32
127,72,-15
127,61,-31
91,81,-38
11,120,-21
-128,127,-86
-128,120,-83
-128,79,-52
-111,11,-15
-59,2,-5
-26,-39,-6
0,-42,5
33,-51,7
18,-54,24
-13,-50,12
-20,-46,-7
-128,-1,-22
-128,94,-71
-128,121,-65
-128,105,-59
-42,66,-48
-7,57,-42
53,54,-29
105,45,-39
127,37,-35
93,57,-36
38,72,-37
-14,92,-42
-128,127,-63
-128,127,-100
-128,61,-37
-79,26,1
-18,-33,17
-36,-40,16
6,-47,1
24,-69,0
10,-54,5
-10,-31,-2
-32,-1,10
-128,26,-37
-128,127,-63
-128,127,-64
-107,92,-72
-25,61,-56
-1,56,-46
55,47,-24
124,35,-43
127,34,-32
75,71,-16
-26,97,-58
-96,110,-23
-128,107,-76
-128,59,-20
-116,33,-13
-31,0,3
-26,-28,6
-12,-39,2
12,-52,13
-6,-44,16
-10,-40,17
-33,-22,-6
-128,17,-17
-128,13,-51
-128,127,-66
-89,94,-51
-72,72,-55
-28,56,-42
82,38,-39
122,31,-38
125,38,-42
72,63,-34
52,73,-50
-106,118,-44
-128,127,-60
-128,127,-48
-128,49,-1
-24,6,24
-18,-25,14
-32,-38,1
25,-62,3
31,-63,9
0,-42,10
-85,3,10
-105,8,-8
-128,50,-46
-128,127,-44
-128,103,-54
-81,82,-50
-58,69,-62
37,55,-37
113,35,-31
127,37,-46
102,51,-41
29,82,-33
-53,105,-42
-128,107,-17
-128,125,-33
-128,51,-16
-81,16,-1
-28,-11,14
-28,-26,24
-17,-32,26
6,-73,-10
6,-55,0
-21,-29,21
-128,7,-23
-128,18,15
-128,127,-37
-128,61,-53
-103,74,-50
-37,46,-40
24,44,-24
43,39,-22
65,29,-29
43,35,-34
17,52,-13
-46,63,-3
-128,25,-5
-128,53,40
-128,34,52
-84,21,36
-17,8,56
-28,-6,46
-16,1,3
22,-8,-2
26,-22,-22
-32,8,29
-28,22,60
-32,24,127
-42,108,127
-22,56,112
8,53,69
20,33,32
-10,31,-1
-12,25,-12
-2,13,-14
-17,32,-12
-37,67,25
3,55,90
5,97,113
-6,73,126
23,68,115
37,34,58
15,5,19
16,0,14
19,-2,-5
11,1,-7
2,2,6
0,26,35
59,7,73
46,49,127
8,98,112
21,61,106
32,55,87
23,41,47
-8,26,2
-1,13,-8
-14,17,-45
-26,43,-32
-24,59,4
-57,78,21
-128,95,25
-128,80,41
-128,6,1
-56,-8,14
-19,-38,-2
27,-61,5
22,-52,8
24,-59,5
14,-62,10
-11,-39,10
-86,-13,10
-128,7,-56
-128,109,-46
-128,79,-65
-74,62,-62
10,46,-29
54,52,-21
107,48,-26
104,46,-9
68,63,-8
25,76,-38
-128,114,-46
-128,110,-54
-128,73,-30
-116,19,-7
-72,15,17
-1,-25,29
9,-46,-11
33,-75,-12
30,-64,-4
-9,-39,2
-46,-14,12
-128,-5,-14
-128,4,-47
-128,119,-51
-127,86,-60
-83,72,-49
-21,47,-41
46,46,-20
80,53,7
99,25,-13
33,42,-33
45,54,-6
-55,104,-33
-128,93,-69
-128,83,-18
-128,32,-2
-58,13,-3
-24,-6,-7
2,-26,18
35,-42,21
25,-66,3
9,-66,-2
-14,-46,30
-109,-29,-11
-128,1,-36
-128,127,-34
-128,86,-43
-79,79,-49
17,57,-37
54,60,-26
121,52,-14
89,42,-43
63,53,-45
-1,83,-10
-128,87,-33
-128,77,-38
-128,109,3
-103,19,-9
-69,11,-10
-26,-22,0
6,-34,24
21,-54,15
12,-78,3
12,-57,7
-16,-54,-2
-128,-13,-14
-128,47,-42
-128,124,-51
-124,71,-46
-59,65,-28
-18,53,-24
58,45,-38
91,41,-41
105,41,-26
53,55,-38
-16,101,-23
-128,120,-22
-128,116,-48
-128,114,-27
-122,24,3
-50,0,10
-24,-20,5
0,-41,13
15,-55,2
18,-74,2
1,-59,14
-20,-38,13
-128,-38,-10
-128,127,-39
-128,105,-38
-128,108,-39
-49,81,-48
50,62,-24
89,57,-18
127,42,-28
72,47,-37
46,61,-28
-22,85,-35
-128,91,-41
-128,81,-39
-128,82,1
-100,20,11
-65,8,9
-9,-21,17
23,-47,20
16,-52,11
26,-63,6
22,-47,23
11,-42,7
-128,-4,-24
-128,91,-35
-128,127,-56
-126,70,-49
-48,61,-32
-10,56,-31
54,45,-26
99,48,-2
89,35,-21
50,45,-45
9,77,-12
-70,100,-15
-128,81,-51
-128,101,-7
-128,33,4
-84,16,2
-34,-15,13
-10,-21,28
32,-29,34
41,-49,24
23,-68,15
-2,-59,12
-18,-44,-2
-128,-26,-47
-128,110,-73
-128,125,-61
-121,92,-62
-47,80,-47
-2,73,-36
71,63,-19
111,57,-5
106,59,-13
54,66,-32
-60,86,-18
-128,87,-21
-128,113,-55
-128,26,7
-128,26,7
-46,4,13
-10,-17,17
-3,-18,22
25,-46,9
4,-71,-3
7,-63,4
-4,-58,1
-128,-56,-45
-128,-46,-47
-128,120,-64
-126,80,-45
-86,76,-41
-30,62,-39
58,73,-15
91,66,1
97,40,-15
46,49,-41
24,67,-10
-127,92,-15
-128,88,-40
-128,103,-15
-128,10,11
-57,-1,11
-30,-18,2
0,-36,8
15,-52,2
12,-67,-5
6,-67,2
-7,-40,13
-72,-9,-10
-128,-4,-25
-128,82,-36
-128,92,-49
-98,69,-52
-69,67,-41
11,62,-27
86,47,-17
100,41,-11
73,35,-2
17,57,-24
-35,76,-11
-128,74,-47
-128,88,-27
-128,48,-6
-86,18,-4
-22,-17,1
3,-38,-1
20,-51,13
22,-62,0
14,-54,0
-1,-35,4
-112,-10,-25
-128,-20,-25
-128,106,-50
-128,63,-47
-128,64,-40
-48,46,-32
35,42,-24
62,48,-15
96,53,-1
61,54,-24
47,64,-22
-25,84,-15
-128,72,-59
-128,86,-44
-128,28,-34
-106,13,-17
-63,3,2
-17,-26,10
2,-36,12
14,-46,16
14,-64,20
-3,-56,2
-35,-33,-1
-128,-18,-19
-128,109,-63
-128,116,-36
-112,85,-43
-42,59,-45
-14,63,-26
46,49,-25
93,32,-32
90,38,-23
50,52,-21
28,71,-32
-82,80,-4
-128,98,-36
-128,117,-49
-128,30,-2
-65,11,18
-31,-13,10
-2,-41,5
13,-50,15
16,-59,13
5,-48,15
-21,-30,20
-75,-12,4
-128,-19,-18
-128,127,-44
-128,105,-53
-89,81,-58
-24,64,-47
9,54,-36
85,42,-16
91,42,-12
75,43,-22
42,59,-25
-64,88,-16
-128,75,-26
-128,76,-54
-128,57,7
-122,28,-1
-66,19,-1
-17,-17,0
9,-27,5
52,-34,10
42,-63,6
18,-54,-1
13,-28,10
-128,-13,-40
-128,35,-96
-128,103,-47
-124,80,-48
-83,61,-46
-9,45,-43
64,72,-13
94,90,18
127,44,-10
60,67,-34
33,80,-10
-111,107,-19
-128,79,-94
-128,127,-50
-128,20,-9
-48,-3,-1
-28,-11,9
1,-22,29
14,-41,6
10,-68,-8
9,-65,10
-2,-48,13
-78,-30,-22
-128,17,-70
-128,127,-83
-128,103,-56
-64,89,-42
-28,75,-29
43,59,-14
72,52,-7
85,46,-6
72,48,-20
39,56,-21
-13,73,-3
-128,108,-51
-128,103,-20
-128,51,-18
-98,21,-4
-8,-16,29
2,-27,26
1,-27,15
9,-62,1
2,-64,5
-9,-68,-14
-79,-25,-6
-128,-21,11
-128,90,-109
-128,96,-41
-115,90,-40
-41,72,-36
23,69,-22
61,63,-9
82,59,-7
69,48,-19
56,56,-21
9,77,-8
-128,84,-50
-128,85,-51
-128,61,-32
-118,13,-22
-77,5,-12
-23,-33,4
10,-34,18
26,-43,10
19,-71,3
7,-55,22
-7,-48,7
-124,-10,-11
-128,16,-51
-128,114,-62
-128,78,-50
-95,84,-47
-30,67,-39
48,65,-24
109,60,-25
105,46,-24
67,55,-16
58,58,-27
-36,93,-18
-128,95,-24
-128,119,-29
-128,41,-18
-92,12,0
-59,-6,2
-21,-29,16
8,-48,15
15,-64,11
8,-68,14
-20,-55,22
-55,-47,-9
-128,-41,-18
-128,119,-68
-128,96,-67
-95,81,-54
-19,68,-40
20,61,-35
76,59,-19
83,46,-19
61,46,-36
18,76,-14
-74,91,-5
-119,72,-23
-128,84,-37
-128,36,9
-121,17,-1
-71,-7,-5
-39,-27,5
-24,-36,17
-5,-68,7
-14,-63,12
-17,-55,30
-94,-46,-16
-128,-3,-54
-128,87,-69
-128,64,-57
-57,78,-45
-11,69,-32
53,57,-4
64,48,-8
68,42,-20
65,53,-35
51,73,-23
-95,93,-13
-128,127,-47
-128,67,-5
-128,40,9
-94,23,-2
-71,-2,0
-42,-24,23
-27,-23,7
2,-47,7
22,-87,11
-7,-47,20
-23,-42,-2
-128,-47,-42
-128,97,-47
-128,89,-42
-102,35,-38
-33,59,-30
0,61,-25
65,60,-18
62,50,-38
66,49,-38
13,81,-9
-128,83,-12
-128,92,-15
-128,96,51
-128,23,30
-97,7,25
-50,-31,10
-30,-32,8
-13,-37,7
4,-56,4
-14,-55,-4
-26,-55,-17
-78,-25,49
-128,19,69
-128,79,-13
-128,85,7
-64,76,-14
-32,70,-27
41,60,-34
100,50,-40
102,42,-43
32,66,-39
-69,77,4
-74,66,3
-128,67,-2
-128,66,15
-128,19,24
-64,-2,13
-23,-24,27
6,-37,25
2,-67,3
-3,-56,9
-30,-51,4
-128,-24,-32
-128,0,-31
-128,68,-48
-128,91,-52
-128,74,-53
-66,65,-37
0,59,-34
45,60,-33
105,66,-14
89,53,-38
48,59,-43
-37,81,0
-128,56,-83
-128,84,-55
-128,21,14
-75,4,8
-48,-12,2
-26,-31,7
6,-36,17
14,-54,5
6,-66,4
-40,-42,8
-95,-47,-28
-128,-16,-53
-128,92,-72
-128,72,-61
-87,65,-55
-15,71,-29
19,72,-14
84,61,-8
87,52,-29
68,60,-20
21,67,-16
-101,70,-25
-128,67,-57
-128,127,-5
-128,30,-9
-124,21,-9
-54,-20,-12
-8,-48,4
16,-50,15
38,-72,13
3,-56,5
-13,-51,7
-48,-25,4
-128,-31,-56
-128,91,-89
-128,94,-56
-109,87,-72
-60,70,-54
19,67,-3
91,73,1
115,75,-14
104,70,-13
75,80,-16
25,89,-18
-128,106,-43
-128,88,-85
-128,127,-27
-128,39,-31
-128,15,-12
-61,-22,4
-19,-40,5
1,-48,5
10,-70,1
21,-73,12
11,-72,4
-52,-37,-17
-128,60,-65
-128,127,-57
-128,109,-61
-117,99,-75
-32,109,-69
19,107,-43
83,87,-26
127,92,-27
127,70,-19
60,87,-23
30,94,-26
-128,108,-59
-128,111,-49
-128,81,-46
-128,21,-26
-74,-9,-3
-51,-23,3
6,-50,8
12,-59,9
8,-67,8
-7,-65,9
-42,-32,-3
-122,-40,-32
-128,90,-104
-128,107,-82
-128,86,-86
-77,88,-72
-15,83,-56
24,76,-44
101,84,-47
127,91,-21
121,80,-16
50,82,-24
-98,115,-39
-128,127,-46
-128,108,-103
-128,52,-32
-102,22,-11
-44,-17,-6
-39,-31,-3
-21,-51,2
0,-67,7
7,-62,24
-6,-47,35
-57,-31,-17
-128,-29,-10
-128,97,-62
-128,114,-68
-128,102,-68
-77,87,-59
29,81,-46
80,86,-35
127,56,-14
108,54,-7
55,66,-24
-5,95,-37
-128,96,-16
-128,92,-45
-128,77,20
-81,23,13
-55,9,15
-48,-19,3
-1,-37,2
17,-51,-8
32,-81,4
2,-64,6
-27,-51,-9
-128,-24,12
-128,91,-100
-128,127,-60
-128,111,-59
-57,90,-47
-15,78,-43
72,62,-40
125,57,-25
127,42,-27
83,63,-36
9,103,-36
-72,115,-22
-128,85,-38
-128,127,-4
-128,63,3
-95,17,10
-36,-15,14
-29,-23,7
-7,-50,-1
19,-79,7
11,-68,12
-16,-37,9
-128,-15,-21
-128,5,-44
-128,127,-46
-128,119,-51
-118,98,-49
-36,71,-36
8,66,-30
81,57,-16
116,54,4
106,43,-1
49,61,-29
-69,92,-19
-128,82,-40
-128,103,-78
-128,39,-22
-128,30,-15
-42,6,7
-18,-20,7
-9,-25,9
11,-51,13
-12,-63,12
-23,-59,7
-48,-46,-2
-128,-18,-65
-128,75,-100
-128,99,-60
-100,97,-52
-67,88,-48
22,84,-33
87,77,-11
106,76,-7
107,68,-16
41,77,-19
-9,84,-21
-128,85,-35
-128,101,-60
-128,44,-57
-95,17,-7
-28,-9,4
-11,-21,5
-7,-30,21
22,-59,7
14,-61,0
-8,-44,16
-128,-48,-22
-128,-24,-69
-128,111,-33
-128,68,-62
-128,86,-57
-60,79,-47
26,75,-35
74,70,-24
102,66,-26
83,63,-29
49,81,-30
-50,82,-12
-128,50,-47
-128,74,-24
-128,51,7
-128,12,-8
-57,-8,5
-33,-32,4
-20,-43,10
2,-55,5
18,-60,11
6,-54,17
-103,-40,-15
-128,-40,-40
-128,32,-68
-128,103,-50
-85,85,-48
-55,84,-44
9,84,-38
66,63,-9
90,58,-11
77,43,-35
41,66,-15
8,68,-12
-128,75,-31
-128,127,13
-128,95,3
-128,11,-18
-47,-6,10
-24,-22,8
6,-41,12
13,-59,15
3,-62,10
-41,-40,2
-86,-35,-1
-128,-24,-10
-128,120,-41
-128,67,-35
-113,74,-41
-62,71,-37
22,70,-34
68,67,-33
104,46,-36
88,49,-40
61,65,-37
-52,92,-5
-128,89,-38
-128,122,8
-128,38,13
-78,21,24
-47,2,28
-18,-22,12
7,-47,9
15,-74,6
-5,-68,10
-25,-63,5
-97,-46,-8
-128,-6,-62
-128,110,-46
-128,76,-42
-81,89,-47
-52,88,-44
26,77,-23
87,61,-17
85,51,-34
59,46,-35
-4,67,-6
-105,71,-35
-128,92,-23
-128,45,25
-128,31,9
-45,7,29
-13,-34,27
-20,-35,20
0,-70,14
-13,-110,-22
-64,-110,-29
-99,-68,7
-128,-14,-26
-128,70,-27
-128,81,-16
-103,65,-21
-74,76,-21
1,82,-31
67,77,-21
70,57,-29
23,45,-27
-47,68,-9
-83,69,-7
-128,62,5
-128,44,12
-127,16,10
-91,2,20
-56,-33,26
-43,-46,29
-29,-67,26
-26,-85,37
-51,-73,35
-108,-45,18
-128,-18,27
-128,40,3
-128,59,-19
-90,65,-15
-60,79,-14
12,80,-29
38,61,-12
37,51,-15
0,59,-31
-65,71,-9
-68,57,-1
-128,57,3
-128,58,-2
-128,6,11
-102,-2,22
-76,-17,24
-42,-44,27
-22,-57,37
-7,-69,23
-17,-65,18
-68,-32,33
-101,-33,18
-128,-2,8
-128,76,12
-128,62,-12
-92,70,-16
-17,78,-28
28,78,-28
73,52,-26
57,32,-30
42,45,-31
-14,65,-13
-128,63,-3
-128,81,-1
-128,49,34
-96,15,25
-73,13,29
-36,-19,25
-2,-39,14
14,-60,10
11,-77,9
5,-63,3
-23,-53,-7
-128,-43,17
-128,125,-81
-128,117,-37
-101,79,-39
-35,71,-29
5,69,-29
82,70,-19
105,61,-11
95,52,-21
25,74,-31
-124,86,1
-128,94,-43
-128,76,18
-120,22,15
-79,18,16
-26,-16,12
-18,-28,14
-8,-29,13
16,-64,1
20,-75,0
-14,-76,8
-128,-68,-4
-128,-49,-6
-128,127,-22
-128,68,-23
-99,76,-29
-39,64,-29
39,69,-38
62,70,-32
79,38,-20
49,50,-27
29,67,-24
-93,80,13
-128,105,-27
-128,93,9
-124,18,10
-58,3,13
-38,-11,12
-18,-19,9
6,-29,10
13,-50,5
3,-78,-3
-4,-76,13
-57,-60,-13
-128,-41,-30
-128,127,-38
-128,104,-31
-86,94,-33
-8,83,-24
33,76,-20
87,70,-9
88,45,-23
60,42,-32
9,72,-26
-128,88,-19
-128,84,-34
-128,63,14
-102,9,2
-61,3,6
-18,-25,16
3,-28,25
12,-35,19
13,-57,13
9,-61,21
-8,-54,12
-128,-52,-14
-128,74,-30
-128,127,-45
-103,65,-38
-64,73,-25
-23,69,-26
65,62,-30
101,48,-12
82,41,-20
37,57,-35
4,76,-21
-128,83,-4
-128,99,-9
-128,87,22
-110,14,31
-52,0,21
-28,-15,15
-5,-30,9
11,-50,0
16,-67,-4
1,-62,3
-33,-41,-12
-86,-36,-23
-128,4,-26
-128,119,-35
-128,84,-27
-51,90,-15
34,67,-22
62,65,-18
87,63,-2
62,52,-26
42,51,-39
7,81,-10
-128,109,-14
-128,117,-20
-128,69,23
-97,10,14
-65,1,15
-27,-19,11
5,-36,12
25,-42,11
27,-69,8
36,-77,-11
27,-63,-2
-128,1,-16
-128,127,-21
-128,127,-16
-120,119,-36
-32,81,-40
4,75,-29
71,53,-42
126,38,-40
118,40,-37
65,63,-32
6,78,-34
-102,106,-9
-128,120,-32
-128,62,8
-128,30,9
-65,4,4
-44,-10,7
-11,-27,12
27,-41,11
38,-59,6
13,-62,5
-13,-55,-13
-52,-34,-18
-128,-9,-54
-128,127,-42
-128,103,-28
-77,82,-36
10,64,-25
51,59,-19
94,60,-21
88,47,-34
65,56,-32
27,74,-28
-128,104,-35
-128,99,-42
-128,113,-14
-128,23,-5
-92,14,-5
-22,-17,7
14,-33,19
22,-39,19
25,-68,7
4,-48,17
-4,-49,8
-128,-15,-26
-128,50,-8
-128,118,-39
-128,101,-53
-72,95,-44
-42,87,-48
31,70,-41
109,59,-10
115,52,-13
67,43,-44
39,61,-26
12,70,-26
-128,84,-39
-128,127,-28
-128,89,-7
-117,27,7
-46,-4,12
-18,-16,17
10,-38,24
11,-72,11
-1,-72,11
10,-54,22
-73,-31,-11
-128,-34,-7
-128,86,-89
-128,118,-53
-128,117,-49
-53,86,-52
-6,85,-36
96,74,-24
115,54,-28
117,46,-26
70,61,-51
-30,104,-14
-120,110,-3
-128,119,-35
-128,60,8
-128,33,17
-58,7,11
-16,-35,7
-12,-39,14
7,-48,21
13,-57,1
18,-55,11
-30,-40,12
-128,-30,-23
-128,31,-24
-128,127,-31
-120,96,-44
-81,85,-46
7,78,-37
94,59,-43
127,45,-42
111,42,-37
39,81,-45
2,92,-32
-128,127,-26
-128,127,-28
-128,78,-3
-93,23,3
-46,-9,21
-34,-18,22
-17,-26,25
14,-58,18
11,-70,12
-13,-50,12
-60,-22,6
-128,-23,-11
-128,104,-40
-128,109,-50
-117,93,-50
-56,75,-46
20,66,-28
59,58,-32
108,46,-33
92,48,-28
64,58,-37
-3,83,-27
-128,95,-31
-128,90,-44
-128,51,5
-128,21,16
-54,7,17
10,-18,34
9,-21,31
17,-39,1
17,-61,-4
5,-57,13
-2,-44,19
-127,-25,0
-128,-8,10
-128,127,-32
-128,89,-14
-117,83,-31
-31,71,-35
76,56,-25
107,52,-22
104,34,-35
61,47,-34
43,64,-34
-32,97,-20
-128,103,-37
-128,126,-24
-128,42,7
-86,16,4
-54,-4,7
-12,-27,12
9,-37,26
16,-48,19
5,-71,-2
5,-52,20
-20,-34,18
-128,-32,-24
-128,127,-32
-128,107,-26
-122,82,-43
-36,71,-40
10,62,-32
66,43,-33
103,41,-26
103,31,-30
56,55,-37
-49,101,3
-128,110,-20
-128,127,-28
-128,47,17
-108,39,18
-48,4,12
-27,-11,10
-8,-31,16
-8,-54,0
11,-73,9
9,-66,19
-50,-57,-5
-96,-33,-17
-128,-16,-28
-128,115,-63
-128,74,-54
-83,80,-42
-20,77,-33
17,68,-30
74,65,-7
77,46,-6
49,50,-24
33,61,-19
-89,84,-22
-128,86,-55
-128,94,-23
-128,33,-1
-99,26,4
-55,-5,8
-25,-28,18
-11,-33,20
-3,-50,5
-3,-68,2
-3,-64,16
-63,-21,-15
-128,-2,-47
-128,89,-59
-128,127,-69
-89,86,-63
-65,76,-59
10,59,-28
89,50,-14
102,47,-22
99,47,-16
61,61,-25
39,69,-29
-109,93,-26
-128,108,-39
-128,127,-17
-128,46,0
-73,11,3
-50,-4,10
-26,-14,23
-11,-25,19
-3,-40,14
4,-60,10
-39,-52,3
-74,-57,-24
-128,-25,-40
-128,97,-56
-128,68,-58
-99,73,-53
-62,77,-47
15,65,-35
62,60,-18
72,62,-9
59,54,-25
43,64,-16
27,74,-18
-72,89,-46
-128,110,-70
-128,118,-33
-128,49,-8
-76,5,-17
-52,-11,-9
-22,-25,6
23,-44,9
39,-62,6
28,-62,31
-44,-38,-7
-128,-6,-29
-128,62,-18
-128,127,-32
-128,105,-38
-92,92,-49
-21,67,-43
15,53,-39
86,49,-27
123,39,-23
105,45,-28
42,70,-26
-94,92,-22
-128,95,-32
-128,119,-29
-128,36,-1
-101,27,-4
-46,-2,4
-17,-18,18
-9,-24,17
1,-48,13
-5,-52,10
-12,-49,19
-74,-29,-10
-128,17,-23
-128,104,-24
-128,93,-29
-95,85,-40
-56,81,-46
24,64,-35
65,59,-15
88,52,-14
88,50,-20
64,57,-19
19,62,-17
-128,88,-45
-128,127,-47
-128,101,-25
-128,55,-3
-96,27,1
-43,-5,20
-23,-23,21
-14,-32,18
-2,-59,10
-12,-61,10
-11,-61,1
-87,-42,-19
-128,76,-71
-128,127,-66
-128,94,-46
-75,85,-49
-46,78,-42
13,54,-31
70,47,-15
88,53,-8
81,36,-23
50,65,-18
9,79,-10
-128,89,-40
-128,108,-34
-128,63,-5
-103,28,5
-48,-9,13
-32,-22,16
-6,-32,23
13,-57,10
11,-64,3
4,-58,2
-45,-22,4
-128,-48,-23
-128,54,-31
-128,97,-37
-128,66,-44
-79,70,-47
-2,65,-31
36,57,-28
79,60,-22
88,45,-23
71,49,-27
18,72,-25
-128,93,-19
-128,98,-5
-128,93,10
-124,21,5
-87,12,8
-39,-11,9
-13,-18,10
-2,-22,9
7,-52,-2
8,-60,-2
2,-50,15
-43,-30,-9
-128,-37,3
-128,29,-37
-128,89,-29
-128,78,-33
-106,67,-34
-53,63,-25
-32,65,-12
12,89,25
47,79,-10
65,54,-37
35,44,-18
5,26,26
-101,-53,-33
-128,-10,-19
-128,-10,5
-128,-10,-3
-91,-22,2
-21,-27,0
-2,-33,-5
36,-63,-6
5,-73,6
-9,-59,5
-36,-58,-13
-128,-94,-44
-128,-24,-98
-128,62,-45
-94,41,-17
-64,45,-9
-9,45,-6
35,49,0
46,55,3
36,50,-7
16,54,-21
-6,73,-10
-128,50,-26
-128,61,-31
-128,44,1
-120,5,3
-55,-1,10
-32,-12,8
-7,-22,12
23,-55,-1
18,-75,-10
4,-68,-6
-31,-51,-20
-128,-60,-45
-128,9,-70
-128,52,-77
-128,57,-58
-71,57,-41
-12,52,-23
18,56,-13
62,61,4
69,51,6
50,37,-24
15,63,-18
-40,74,-7
-128,57,-56
-128,59,-27
-128,36,-6
-102,8,-7
-39,-12,5
-15,-19,9
24,-24,9
18,-59,-2
-1,-66,-9
3,-63,19
-52,-54,-22
-128,-66,-46
-128,85,-57
-128,72,-73
-128,68,-60
-61,62,-55
0,54,-32
40,51,-18
100,57,-7
87,44,-24
69,57,-28
15,77,-14
-128,88,-13
-128,85,-6
-128,114,1
-111,29,11
-76,10,7
-39,-20,8
-1,-41,12
11,-61,9
14,-77,-4
7,-63,8
2,-58,12
-92,-20,-6
-128,35,-84
-128,110,-127
-128,85,-106
-71,79,-74
-33,76,-58
29,61,-30
80,69,32
91,81,39
112,52,0
58,67,-22
-4,91,-26
-128,60,-128
-128,81,-128
-128,37,-65
-97,10,-36
-65,-5,-22
-21,-26,-3
18,-41,20
36,-53,26
13,-74,1
-11,-59,-8
-30,-37,-3
-128,-34,-121
-128,124,-105
-128,104,-80
-128,86,-81
-57,79,-62
-15,67,-37
70,58,8
102,55,9
104,55,10
41,55,-30
-21,55,-24
-66,53,-20
-128,32,-97
-128,33,-10
-128,18,2
-59,5,1
-20,-16,-2
-5,-20,6
21,-38,5
19,-58,-2
13,-55,4
9,-45,13
-121,-23,-33
-128,-71,-77
-128,82,-92
-128,59,-65
-104,66,-58
-22,65,-22
70,64,-6
92,77,-1
75,66,3
44,48,-39
32,49,-34
-49,81,-18
-128,43,-70
-128,85,-31
-128,17,-2
-88,12,-9
-55,-5,-3
-12,-18,8
6,-17,19
25,-27,7
17,-45,4
4,-43,18
-7,-43,4
-121,-34,-19
-128,-48,-27
-128,80,-86
-128,78,-48
-102,85,-45
-24,64,-48
37,61,-39
70,54,-29
100,45,-26
70,47,-39
48,57,-34
8,64,-14
-128,76,-38
-128,125,-20
-128,47,-15
-109,25,7
-61,6,15
1,-30,17
23,-37,16
22,-44,5
9,-63,0
7,-52,12
-4,-43,4
-128,-30,-28
-128,36,-81
-128,107,-71
-126,71,-49
-66,70,-43
-39,67,-35
39,55,-17
91,48,-15
100,46,-18
76,53,-15
50,75,-18
14,85,-35
-128,127,-62
-128,108,-53
-128,62,-24
-98,17,-14
-44,-24,1
-34,-33,12
-5,-29,20
18,-57,1
12,-66,0
17,-54,22
-36,-30,-11
-128,-28,1
-128,103,-26
-128,114,-41
-128,96,-40
-53,74,-38
-19,64,-37
42,47,-32
95,46,-22
115,33,-21
64,48,-37
37,65,-28
-6,77,-22
-128,88,-44
-128,127,-33
-128,67,-9
-95,31,0
-20,-5,10
0,-22,25
15,-29,27
20,-66,8
4,-65,3
-8,-43,25
-128,-9,-1
-128,-10,-17
-128,127,-45
-128,84,-46
-105,93,-50
-27,64,-36
44,46,-25
86,44,-22
95,39,-20
68,44,-25
58,50,-28
-3,82,-21
-128,102,-44
-128,110,-44
-128,56,-8
-103,32,3
-66,13,5
-20,-11,30
19,-14,31
48,-37,19
19,-80,-5
7,-56,17
-5,-50,-2
-128,-12,-19
-128,119,-39
-128,118,-42
-128,88,-41
-63,67,-39
-27,61,-30
66,49,-17
115,49,-21
127,38,-20
67,59,-34
5,87,-38
-71,98,-23
-128,90,-33
-128,111,-31
-128,32,-4
-77,10,1
-15,-29,0
-3,-36,5
26,-44,16
32,-61,12
5,-57,13
3,-45,19
-60,-23,-18
-128,-7,-61
-128,125,-78
-128,87,-49
-100,86,-54
-22,72,-43
16,64,-33
84,59,-16
112,51,-17
108,45,-33
53,55,-42
-35,88,-27
-128,100,-64
-128,113,-43
-128,36,9
-116,31,4
-49,-9,-10
-24,-30,8
1,-30,14
37,-65,5
15,-67,3
6,-60,10
-26,-34,7
-128,-28,-29
-128,35,-21
-128,125,-65
-128,90,-49
-103,84,-50
-29,67,-36
66,43,-26
97,44,-24
122,43,-18
51,52,-28
34,54,-27
-9,85,-23
-128,127,-34
-128,127,-19
-128,50,21
-47,16,13
-21,-11,14
-16,-26,10
22,-48,-1
33,-67,-5
26,-75,-5
15,-57,19
-9,-23,25
-128,-29,-30
-128,74,-17
-128,127,-43
-106,90,-39
-63,73,-31
28,48,-22
90,36,-28
115,45,-21
95,37,-26
42,68,-50
-34,110,-28
-128,127,-28
-128,105,-27
-128,80,1
-90,40,4
-34,8,5
-15,-7,15
5,-26,19
10,-60,-2
13,-74,-4
9,-76,19
-70,-49,-12
-128,-32,-8
-128,47,-32
-128,108,-47
-128,65,-45
-70,68,-48
2,57,-45
34,54,-42
84,65,-11
85,37,-20
63,49,-27
34,79,-26
-128,111,-27
-128,121,-65
-128,90,-20
-112,25,1
-78,14,-1
-35,-22,4
-17,-31,25
-1,-31,30
17,-64,13
6,-64,11
1,-61,13
-110,-38,-6
-128,15,-51
-128,110,-67
-128,93,-48
-70,83,-50
-47,68,-54
9,70,-36
51,61,-20
89,44,-30
86,43,-45
68,58,-34
1,56,-29
-128,77,8
-128,98,23
-128,102,21
-113,36,27
-70,22,28
-34,-13,20
-5,-36,10
9,-47,4
31,-76,-6
10,-56,9
3,-49,6
-119,-13,-9
-128,48,4
-128,127,-23
-128,83,-21
-70,66,-28
-44,58,-27
20,52,-30
90,53,-23
109,42,-21
79,42,-34
25,65,-28
-24,79,-4
-128,98,-14
-128,122,54
-128,79,73
-49,25,27
-38,-12,5
-37,-16,12
18,-33,11
47,-75,-2
32,-69,5
-8,-60,-3
-93,-27,7
-128,-24,27
-128,127,-55
-128,107,-22
-121,104,-30
-54,89,-41
30,68,-22
69,64,-14
113,45,1
65,35,-15
36,54,-17
-3,55,-17
-67,56,-28
-128,86,-34
-128,72,0
-102,21,8
-69,11,3
-26,-26,-4
-16,-32,6
26,-50,15
16,-68,4
8,-63,0
5,-50,9
-128,-36,-13
-128,-48,-44
-128,127,-78
-128,73,-39
-95,81,-39
-25,64,-47
53,55,-28
82,65,-12
102,53,-14
58,54,-44
48,61,-34
-1,67,-13
-128,101,-31
-128,116,-14
-128,54,-19
-102,17,1
-69,0,10
-33,-16,31
-9,-27,25
10,-48,23
26,-80,12
3,-63,7
2,-53,3
-128,-30,-21
-128,127,-20
-128,127,-48
-128,95,-40
-59,67,-42
-38,61,-42
43,60,-22
97,55,-18
97,42,-28
83,46,-35
30,71,-20
-74,88,-14
-128,100,-55
-128,50,-12
-128,25,4
-61,0,-5
-30,-28,-2
-16,-28,10
19,-38,17
13,-71,-12
9,-73,-8
-3,-62,2
-59,-53,-20
-128,-29,-58
-128,103,-70
-128,97,-57
-100,74,-54
-44,72,-39
-10,67,-31
56,62,-17
83,59,-10
80,53,-21
41,61,-33
-17,65,-13
-99,63,-42
-128,89,-45
-128,45,-4
-86,17,-5
-59,-3,-6
-32,-20,0
-17,-21,9
8,-42,5
10,-64,-5
1,-64,2
-33,-30,11
-128,-34,-19
-128,-26,-43
-128,93,-47
-128,56,-50
-107,56,-46
-51,63,-30
41,64,-12
86,66,-2
86,61,16
55,69,-6
33,80,-25
-53,87,-48
-128,62,-67
-128,76,-80
-128,20,-36
-102,9,-13
-69,-5,-9
-19,-23,8
0,-28,21
8,-40,18
7,-74,-1
8,-72,-2
10,-75,2
-93,-53,-24
-128,13,-96
-128,127,-89
-128,80,-49
-85,72,-37
-44,69,-38
35,71,-21
65,67,-5
81,60,2
61,57,-25
42,64,-27
-51,72,-29
-128,46,-73
-128,77,-54
-128,14,-8
-83,5,-2
-61,-9,2
-24,-19,16
6,-20,23
19,-37,14
16,-69,6
9,-61,11
-14,-40,2
-128,-40,-51
-128,92,-51
-128,82,-51
-113,66,-58
-43,63,-49
5,61,-31
77,68,-8
98,50,-10
86,44,-21
45,61,-30
-70,86,-8
-128,79,-33
-128,100,-42
-128,34,-2
-116,24,-2
-54,1,-2
-23,-17,2
-6,-20,15
15,-46,6
9,-65,-7
5,-56,-4
-7,-39,10
-128,-42,-37
-128,2,-66
-128,125,-57
-107,72,-43
-78,74,-37
-3,57,-26
77,57,-14
96,62,-3
78,45,2
54,46,-20
26,66,-37
-127,104,-34
-128,115,-73
-128,97,-31
-120,29,0
-81,23,-1
-33,-13,4
-9,-21,18
7,-20,18
16,-57,0
2,-64,3
5,-61,10
-14,-48,-16
-128,-40,-36
-128,35,-55
-128,118,-63
-107,80,-48
-71,74,-45
-7,57,-33
71,55,-14
94,61,-4
86,45,-18
48,58,-36
26,69,-24
-120,85,-30
-128,81,-50
-128,92,-20
-128,16,5
-56,8,5
-33,-9,6
-10,-21,14
16,-25,15
13,-44,2
12,-69,1
5,-71,4
-40,-62,-23
-128,-34,-31
-128,127,-63
-128,84,-52
-96,71,-46
-28,64,-38
11,56,-34
69,68,-17
91,48,0
82,44,-12
42,61,-35
-68,80,-8
-128,71,-33
-128,82,-43
-128,73,-9
-120,14,2
-52,-1,3
-6,-27,4
9,-31,12
9,-57,3
3,-66,-1
1,-57,2
-12,-29,7
-58,-24,-4
-128,-43,-71
-128,96,-69
-128,92,-58
-75,74,-48
-7,59,-25
24,60,-19
69,71,-4
86,50,-6
61,43,-21
10,71,-25
-105,70,-23
-128,61,-51
-128,82,-29
-128,13,-4
-95,13,-6
-31,-16,4
-9,-28,9
4,-34,13
16,-64,9
4,-68,-2
-6,-66,-4
-53,-40,-7
-128,-76,-54
-128,9,-75
-128,85,-57
-96,61,-47
-60,61,-42
1,58,-28
50,65,-16
69,64,-6
63,49,-13
47,60,-30
27,67,-24
-124,74,-24
-128,85,-52
-128,72,-19
-128,16,-4
-63,9,7
-40,-6,9
-9,-14,14
31,-20,8
35,-40,-3
11,-68,-15
8,-57,-2
-19,-50,-24
-128,-52,-59
-128,-1,-54
-128,101,-63
-100,61,-40
-76,63,-37
-7,51,-16
51,63,-16
72,70,-7
68,46,-3
29,59,-39
5,71,-33
-82,65,-22
-128,67,-74
-128,78,-35
-128,17,9
-75,8,9
-52,-5,7
-15,-23,8
26,-49,11
17,-64,0
-2,-65,-2
-22,-41,-1
-88,-35,-14
-128,-1,-37
-128,106,-43
-128,79,-33
-74,66,-27
-23,50,-25
8,48,-26
62,56,-10
65,47,-21
57,44,-31
18,65,-17
-88,67,-15
-128,65,-34
-128,93,-20
-128,15,4
-103,12,1
-57,-4,3
-27,-20,8
-8,-23,18
17,-52,13
9,-49,-1
-1,-44,-2
-44,-29,1
-128,-55,-68
-128,35,-62
-128,112,-43
-82,64,-19
-50,57,-5
13,51,2
42,51,-2
53,53,4
35,52,-7
21,54,-29
-28,64,-26
-128,39,-54
-128,40,-76
-128,47,-9
-102,9,4
-74,11,3
-37,-8,4
-15,-12,17
-2,-11,20
14,-42,11
-3,-60,0
-29,-32,5
-97,-29,-12
-128,-19,-60
-128,70,-73
-125,64,-50
-75,55,-46
-48,49,-38
11,53,-21
68,58,-7
79,54,-5
61,54,-26
25,66,-20
-10,73,-2
-128,71,-63
-128,111,-10
-128,49,2
-89,15,-1
-41,-9,11
-26,-16,15
2,-25,17
20,-58,12
11,-66,4
-7,-57,3
-25,-40,-5
-86,-25,-15
-128,0,-82
-128,127,-64
-128,98,-47
-85,94,-41
-21,72,-35
14,61,-26
105,52,-12
114,27,-24
120,42,-17
64,68,-16
-63,103,-29
-128,104,-22
-128,127,-12
-128,127,-11
-128,27,2
-70,-3,12
-51,-24,9
-12,-37,14
28,-57,18
38,-74,16
15,-73,18
31,-78,13
22,-62,13
-128,25,-28
-128,127,-65
-128,127,-82
-117,127,-49
-47,103,-53
-23,82,-45
46,64,-48
127,38,-37
127,46,-41
127,44,-29
83,70,-43
58,89,-50
-128,127,8
-128,127,-7
-128,127,4
-90,44,3
-65,-11,7
-67,-17,17
-16,-29,41
-8,-83,28
-18,-72,23
-26,-63,10
-127,1,28
-128,10,-6
-128,121,-85
-128,127,-63
-128,127,-76
-66,114,-76
1,89,-62
45,79,-48
127,67,-35
127,56,-48
116,66,-46
21,92,-17
-127,125,-26
-128,127,-39
-128,127,-8
-128,54,13
-96,26,7
-57,-17,-4
-18,-39,7
5,-57,10
4,-81,1
-5,-79,0
-2,-76,-1
-73,-28,-6
-128,-14,-42
-128,127,-78
-128,127,-55
-128,127,-69
-47,111,-59
60,72,-36
112,60,-29
127,49,-30
127,50,-35
80,79,-34
2,123,4
-128,127,-89
-128,127,-71
-128,70,-1
-85,22,-8
-49,1,-2
-4,-44,17
13,-66,5
12,-74,-5
19,-85,-10
9,-61,14
-17,-40,9
-128,34,-41
-128,127,-77
-128,127,-84
-125,117,-73
-44,89,-49
-7,84,-37
113,68,-3
127,60,0
127,49,-10
81,79,-27
25,101,-41
-78,117,-82
-128,127,-46
-128,95,-30
-128,64,-34
-73,10,4
-25,-14,13
-10,-21,16
14,-48,0
24,-84,-11
23,-87,-17
-7,-67,-13
-128,-17,-44
-128,-5,-18
-128,127,-87
-128,127,-63
-126,127,-56
-50,103,-56
-9,91,-45
119,57,-26
127,49,-35
127,33,-36
89,62,-30
0,106,-38
-128,127,-36
-128,127,-13
-128,106,-6
-128,74,-8
-91,15,11
-43,-18,8
-38,-30,0
-15,-67,8
-12,-90,9
-9,-78,12
-1,-50,32
-128,-33,-17
-128,-5,-19
-128,127,-28
-128,90,-22
-121,86,-32
-59,80,-45
9,63,-50
51,57,-56
108,46,-60
93,57,-56
74,73,-52
20,95,-39
-128,127,-17
-128,127,8
-128,80,6
-107,24,11
-72,-2,18
-24,-45,18
2,-74,1
4,-86,-1
-3,-80,-2
-5,-56,17
-31,-36,4
-128,-4,-19
-128,127,-100
-128,127,-104
-128,122,-89
-46,105,-69
10,98,-56
117,102,-26
127,72,3
119,55,-7
55,74,-48
20,84,-36
-112,106,-53
-128,85,-97
-128,64,-48
-128,20,-29
-58,-1,0
-31,-28,3
-8,-43,8
13,-54,18
13,-70,7
10,-61,4
-23,-47,2
-80,-28,-19
-128,-23,-59
-128,124,-111
-128,108,-104
-97,107,-82
-28,89,-49
16,81,-26
95,79,-11
127,65,-18
127,62,-10
80,91,-11
-40,124,-79
-128,125,-86
-128,127,-90
-128,37,-54
-128,21,-28
-46,-21,-17
-24,-47,5
-16,-48,17
9,-86,22
17,-68,27
7,-59,25
-73,-26,12
-128,-38,-28
-128,15,-72
-128,116,-87
-109,99,-92
-77,90,-96
-14,73,-65
70,67,-34
107,66,-25
119,48,-17
65,62,-20
47,76,-20
-60,118,-43
-128,127,-55
-128,127,-98
-128,32,-41
-63,4,12
-25,-23,15
-23,-34,16
0,-40,20
10,-54,18
6,-59,9
5,-53,2
-18,-23,7
-128,5,-55
-128,40,-53
-128,127,-76
-105,118,-75
-40,85,-58
-10,75,-52
72,56,-30
115,48,-22
127,37,-32
81,54,-38
50,74,-36
-43,114,-24
-128,127,-73
-128,127,-76
-128,68,-19
-78,28,9
-57,3,10
-42,-26,25
-15,-49,7
-8,-66,14
-1,-61,16
-61,-41,-2
-99,-12,8
-128,-5,-38
-128,127,-69
-128,127,-66
-105,122,-83
-37,92,-77
-7,75,-65
81,48,-36
124,41,-33
123,41,-29
68,62,-24
-4,99,-41
-114,123,-35
-128,127,-31
-128,71,-35
-128,34,-25
-73,7,-1
-28,-17,5
-16,-26,10
6,-58,15
8,-73,25
3,-63,22
-52,-55,2
-128,-13,-27
-128,22,-74
-128,127,-73
-128,110,-80
-83,99,-76
-17,83,-61
19,76,-48
107,62,-26
127,46,-20
101,49,-18
38,72,-27
-59,96,-20
-128,107,-8
-128,127,-57
-128,56,-1
-113,31,6
-57,-2,17
-28,-35,9
-10,-48,12
18,-78,14
1,-67,8
4,-66,-3
-62,-24,6
-128,-13,-54
-128,88,-74
-128,124,-47
-101,107,-54
-70,89,-57
-12,82,-53
84,74,-40
124,67,-39
110,50,-31
42,66,-26
16,72,-25
-93,68,8
-128,127,-29
-128,103,-22
-128,65,24
-67,14,16
-61,-7,4
-48,-21,4
-33,-42,2
-15,-48,2
-15,-66,1
-44,-45,-2
-54,-31,-12
-128,23,-30
-128,127,-39
-128,107,-34
-92,125,-20
-28,105,-16
6,88,-12
73,87,-13
115,77,-40
127,58,-39
64,78,-35
-51,112,-61
-128,127,-31
-128,127,-36
-128,89,-38
-128,34,22
-44,-1,19
-28,-18,12
-46,-31,6
-22,-37,4
-8,-43,2
-6,-57,1
-22,-50,2
-43,-30,13
-128,4,5
-128,127,-17
-128,108,-8
-116,90,3
-60,93,6
-28,84,4
28,49,7
39,44,3
43,33,-4
44,22,-18
17,41,-5
-14,48,3
-128,42,8
-128,108,26
-128,45,16
-128,33,19
-91,24,31
-77,20,26
-63,3,23
-63,-20,29
-57,-28,30
-36,-38,18
-38,-24,31
-35,-31,32
-126,-11,8
-128,61,2
-128,45,0
-106,24,-22
-85,31,-21
-71,31,-22
-66,28,-18
-51,21,-20
-47,27,-23
-50,44,-40
-38,47,-36
-25,48,-38
-5,47,-28
7,50,-8
13,49,13
-38,46,42
-104,50,49
-128,89,66
-128,64,66
-128,43,57
-67,4,33
-31,-24,12
-27,-31,3
5,-67,-1
2,-69,20
-1,-69,17
10,-37,5
-128,-24,23
-128,-14,16
-128,84,-10
-128,89,-3
-128,127,-24
-128,100,-74
-92,95,-84
-49,91,-68
40,83,-28
127,65,3
127,48,1
63,54,-6
-43,39,-39
-53,49,-57
-128,64,14
-128,34,-21
-128,29,-25
-106,38,3
-102,26,-15
-128,20,-19
-58,9,9
4,-17,7
2,-26,5
24,-48,6
21,-37,12
17,-41,0
-57,-39,-23
-128,-8,-69
-128,47,-128
-128,37,-70
-128,50,-89
-83,49,-69
-27,34,-42
16,31,-20
30,27,-7
28,22,4
4,16,9
4,8,16
-69,-31,27
-117,-45,32
-128,-56,10
-128,-79,24
-104,-57,18
-80,-50,24
-41,-26,22
-24,-18,16
8,-23,19
5,-7,5
15,-10,-1
-9,-24,0
-27,-54,5
-60,-79,33
-41,-71,67
-42,-68,73
-45,-57,64
-11,-45,52
-18,-7,3
-12,0,5
6,7,-7
16,30,-10
19,48,8
-3,52,-3
-91,65,-13
-123,49,-7
-128,26,-23
-128,-22,-16
-128,-13,2
-113,-3,17
-69,-18,-1
-59,-28,-4
-38,-44,1
-22,-60,2
-16,-67,0
-10,-63,-4
-50,-39,-12
-95,-63,-12
-128,14,-95
-128,95,-60
-128,85,-51
-110,59,-63
-59,47,-48
-33,43,-36
39,29,-10
54,34,1
61,39,8
47,35,4
20,52,6
-5,60,1
-128,64,12
-128,119,28
-128,83,10
-128,14,18
-89,-7,21
-69,-27,31
-24,-40,22
5,-45,18
15,-45,15
9,-46,-3
-9,-42,-13
-21,-15,0
-104,-52,-21
-128,-49,-90
-128,119,-50
-128,38,-28
-113,51,-40
-47,43,-35
2,39,-9
29,36,3
44,36,8
36,31,1
21,28,-3
-33,40,7
-101,4,3
-128,-5,-17
-128,22,-6
-128,-19,-10
-117,-6,-11
-74,-5,2
-42,-1,6
-27,-2,5
-1,1,8
20,-4,11
26,-5,11
25,-16,4
8,-21,9
0,-21,16
-128,-57,-46
-128,105,-32
-128,42,-36
-128,30,-32
-92,50,-12
-62,51,-10
-3,49,-7
53,65,-5
66,70,-7
76,47,-4
47,49,-12
35,49,-12
-56,38,-1
-128,122,-60
-128,115,17
-128,38,-25
-107,18,21
-81,3,17
-45,-12,8
-31,-17,7
-16,-24,12
-14,-31,7
-19,-36,1
-23,-34,-3
-38,-10,6
-75,-9,-10
-128,14,-42
-128,123,-37
-128,73,-36
-106,76,-38
-58,56,-21
-41,43,-12
-11,27,-13
12,20,-9
26,17,-3
40,9,0
31,3,6
22,6,7
6,15,7
-32,36,4
-122,64,-7
-128,102,-1
-128,40,-13
-128,22,1
-76,-4,6
-34,-22,10
-21,-23,9
-3,-23,6
6,-30,8
1,-30,-1
-1,-23,-8
-49,-21,-18
-128,-35,-57
-128,2,-62
-128,36,-67
-128,29,-56
-101,29,-36
-65,22,-20
-48,19,-18
-15,14,-5
-9,4,-1
-8,0,-6
-12,6,-3
-19,-2,9
-32,-13,24
-24,-34,41
-22,-44,54
-22,-55,66
-22,-83,62
-20,-72,64
8,-43,68
21,-11,27
12,5,32
16,16,15
51,5,-36
53,3,-58
38,18,-31
0,-26,-3
-113,-16,-9
-128,-63,-7
-128,-61,19
-128,-41,31
-77,16,16
27,21,16
32,33,6
38,53,8
38,40,-7
25,40,-17
-23,66,-20
-128,87,10
-128,83,-27
-128,83,-5
-128,32,-11
-119,26,-14
-69,-8,-11
-28,-21,-7
-8,-27,-8
21,-49,-3
16,-52,7
8,-51,18
-5,-51,19
2,-40,-2
-67,-68,-15
-128,33,-100
-128,68,-86
-128,66,-76
-103,68,-79
-35,59,-51
2,53,-35
51,40,-18
70,49,-9
72,54,-10
34,67,2
-20,71,-1
-88,77,-2
-128,78,-18
-128,31,-13
-128,-3,-20
-91,-5,-10
-34,-16,4
-10,-17,9
23,-35,9
10,-57,-4
10,-58,1
8,-51,3
6,-51,-17
-127,-32,-36
-128,41,-113
-128,59,-110
-128,73,-75
-84,62,-62
-46,55,-46
22,46,-17
67,45,-8
83,51,1
65,67,2
22,77,-12
-51,93,-19
-128,100,-43
-128,54,-29
-128,31,-16
-112,15,-12
-24,-7,-2
7,-14,12
-4,-30,13
10,-44,-5
23,-46,-5
2,-39,7
-64,-33,-25
-99,-21,-39
-128,16,-44
-128,56,-89
-128,71,-74
-104,76,-57
-56,50,-48
-36,39,-42
19,25,-12
41,26,3
50,26,11
43,27,15
29,31,3
15,41,-1
-114,67,-30
-128,90,-2
-128,90,-26
-128,28,-17
-127,1,-2
-95,-14,4
-38,-42,9
8,-74,15
32,-84,23
39,-94,7
-37,-68,-38
-65,-53,-54
-128,-93,-109
-128,-39,-128
-128,-20,-90
-96,0,-76
-68,1,-68
-35,11,-40
7,28,-18
23,36,-19
19,53,-22
-8,66,7
-15,64,8
-30,62,-20
-119,93,9
-128,79,-4
-128,67,-40
-128,55,-1
-128,45,-4
-115,20,-4
-68,5,2
-30,-5,-3
40,-39,-2
23,-31,17
22,-35,21
19,-53,-2
4,-57,-14
-86,-68,-31
-128,29,-114
-128,86,-80
-128,50,-56
-61,53,-58
-9,42,-34
26,38,-19
40,33,-1
31,40,6
33,35,9
16,42,7
-69,62,6
-128,63,-4
-128,85,-57
-128,38,-20
-128,23,-16
-82,12,-6
-53,-12,-3
-38,-17,2
-9,-26,13
-3,-36,5
-2,-40,2
-14,-37,0
-50,-22,-14
-85,-42,-25
-128,18,-78
-128,52,-71
-128,52,-67
-96,52,-71
-63,47,-61
-14,45,-42
30,42,-19
35,42,-11
45,38,6
32,35,7
30,40,12
-10,43,12
-128,39,-30
-128,68,-32
-128,58,-21
-128,23,-9
-123,15,-6
-76,0,2
-41,-18,8
-27,-22,12
-2,-36,14
1,-51,5
-5,-48,2
-25,-31,0
-42,-19,-3
-103,-34,-22
-128,81,-71
-128,36,-29
-128,35,-18
-78,48,-38
-33,40,-18
-22,39,-3
15,33,2
31,35,-1
32,37,-1
31,37,11
21,39,18
6,38,6
-97,60,15
-128,109,-37
-128,68,-27
-128,32,-3
-96,5,1
-66,-10,1
-15,-38,4
-13,-60,11
-18,-76,5
-10,-81,7
-10,-59,18
-37,-52,-4
-128,-26,-29
-128,2,-37
-128,84,-79
-128,84,-78
-97,89,-89
-49,83,-69
32,58,-28
52,53,-18
72,52,-3
58,43,-4
42,47,4
17,59,7
-128,93,-60
-128,107,-13
-128,123,-49
-128,51,-50
-116,33,-31
-51,4,3
-13,-32,1
1,-51,7
-12,-72,34
-4,-68,0
-22,-53,5
-56,-47,20
-128,-32,-76
-128,36,-78
-128,112,-125
-113,86,-124
-62,76,-112
16,45,-63
64,29,-37
83,36,-23
84,42,-7
51,66,-11
22,99,-4
-93,126,-87
-128,127,-85
-128,127,-62
-128,51,-43
-65,1,-33
-26,-15,-20
36,-54,7
23,-89,-11
17,-92,-13
9,-80,16
-50,-42,-8
-128,-35,-47
-128,85,-96
-128,109,-88
-128,127,-111
-49,107,-97
51,63,-38
87,57,-21
127,68,-19
89,62,-29
60,72,-8
22,78,-30
-37,95,-61
-128,124,-49
-128,99,-102
-128,62,-72
-111,23,-20
-35,-4,7
-17,-14,15
17,-23,26
36,-65,24
13,-54,29
9,-46,10
-59,0,16
-128,-10,-16
-128,69,-109
-128,114,-75
-128,94,-84
-56,61,-84
39,63,-50
92,66,-40
127,42,-42
105,59,-6
79,64,-6
34,87,-52
-128,127,-43
-128,127,-70
-128,94,-69
-123,39,-29
-83,28,-10
-33,-16,12
-17,-26,28
0,-32,33
20,-65,21
3,-57,15
-3,-52,15
-86,-30,-14
-128,18,-73
-128,103,-77
-128,110,-91
-88,92,-88
-38,85,-79
78,74,-45
127,62,-45
127,51,-50
89,76,-44
48,68,-51
6,91,-50
-128,127,-42
-128,127,-99
-128,87,-57
-123,37,-13
-63,1,0
-41,-17,15
-33,-33,36
-16,-37,41
20,-72,27
-21,-51,7
-35,-35,17
-55,-6,14
-128,-5,-75
-128,127,-53
-128,94,-69
-92,84,-69
-53,73,-66
35,72,-51
127,77,-19
127,50,-36
127,58,-47
55,81,-42
-6,104,-41
-128,127,-60
-128,127,-81
-128,80,-36
-99,22,-12
-46,-25,-2
-29,-35,19
-19,-22,36
7,-60,19
8,-72,12
7,-60,23
-37,-33,1
-78,-21,-23
-128,-12,-26
-128,127,-102
-128,122,-89
-91,94,-75
-31,65,-62
9,60,-40
116,61,-10
127,38,-24
106,47,-25
44,82,-26
-39,95,-51
-128,118,-62
-128,127,-77
-128,47,-37
-128,18,-26
-76,-14,0
-18,-34,33
20,-43,46
14,-61,46
1,-63,12
-4,-51,11
-12,-29,35
-128,9,-17
-128,48,-7
-128,127,-46
-128,109,-79
-102,92,-82
-35,83,-77
21,66,-67
125,47,-55
127,45,-42
121,53,-40
59,72,-48
-25,100,-27
-128,127,-52
-128,127,-53
-128,78,1
-90,35,8
-63,7,9
0,-36,30
24,-47,30
29,-73,22
9,-72,8
-6,-58,9
-11,-40,10
-128,-11,-33
-128,-11,-32
-128,127,-64
-128,108,-71
-128,127,-67
-42,88,-76
79,69,-34
126,69,-24
127,57,-39
90,53,-51
67,72,-37
-1,96,-38
-128,127,-46
-128,127,-38
-128,76,-14
-128,25,-15
-80,-3,-10
-35,-45,-6
-14,-55,17
15,-63,29
34,-81,31
9,-69,29
-3,-57,11
-94,-22,-8
-128,97,-84
-128,127,-88
-128,108,-66
-85,101,-86
-47,86,-75
40,70,-39
122,69,-24
127,58,-25
107,86,-4
62,92,-13
-17,90,-47
-128,115,-13
-128,116,-71
-128,48,-51
-99,16,-5
-50,-5,-1
-12,-59,3
3,-123,5
-3,-120,-6
-1,-77,5
-109,-46,-26
-128,-43,-67
-128,119,-52
-127,80,-79
-52,86,-74
88,89,-47
127,95,-38
127,98,-40
63,108,-38
-128,127,-46
-128,127,-60
-128,117,-49
-126,26,9
-38,0,12
25,-73,25
14,-92,-1
20,-107,-5
13,-95,15
-44,-84,-1
-128,-38,-34
-128,13,-57
-128,127,-107
-128,113,-103
-110,127,-117
-17,110,-64
24,82,-41
60,48,-17
82,62,-14
92,63,-21
71,84,-16
38,82,-54
9,92,-58
-128,117,-65
-128,103,-108
-128,63,-52
-75,30,-7
-5,-32,-5
-3,-58,-7
-27,-54,-10
-19,-60,-5
7,-63,18
-25,-64,8
-54,-55,6
-58,-21,-24
-128,80,-128
-128,106,-127
-128,97,-128
-72,86,-78
-42,81,-59
37,69,-35
82,76,-4
103,70,11
107,59,-18
55,70,-24
26,69,-31
-56,94,-78
-128,127,-65
-128,114,-128
-128,62,-72
-58,37,1
-52,13,1
-55,-14,8
4,-38,8
11,-61,-8
20,-84,14
0,-63,1
-16,-47,-16
-107,-13,-1
-128,86,-96
-128,127,-93
-128,116,-63
-83,89,-74
-49,79,-57
39,66,-30
127,51,-37
127,53,-31
123,51,-31
59,70,-58
24,89,-44
-128,113,-43
-128,127,-82
-128,97,-28
-114,43,4
-53,3,8
-36,-9,12
-2,-14,26
15,-40,8
14,-60,-2
2,-57,8
-30,-35,-23
-58,-25,-27
-128,12,-77
-128,103,-100
-128,106,-68
-83,84,-63
-46,67,-62
37,54,-29
99,49,-11
106,46,-16
76,42,-24
39,71,-5
17,82,-22
-128,127,-64
-128,123,-91
-128,64,-48
-110,27,-22
-45,-11,-13
-27,-18,-7
24,-34,18
38,-78,8
8,-85,-3
8,-75,10
-63,-34,-19
-128,-38,-46
-128,103,-56
-128,97,-59
-126,96,-61
-43,75,-60
41,59,-15
70,57,-7
104,55,-17
82,56,-31
58,69,-25
-51,96,-22
-128,111,-48
-128,107,-38
-128,31,-16
-86,10,-4
-53,-6,-1
-5,-30,11
25,-49,21
27,-70,16
0,-71,1
-4,-56,5
-29,-39,-4
-128,-29,-38
-128,127,-69
-128,127,-71
-97,85,-53
-32,78,-56
22,69,-44
104,52,-18
121,38,-14
97,44,-18
48,65,-28
35,70,-22
-86,114,-55
-128,127,-26
-128,127,-18
-128,53,-15
-69,5,-10
-45,-19,-1
-15,-47,15
16,-82,20
9,-82,14
0,-70,9
-23,-38,6
-59,-15,4
-128,-37,-81
-128,127,-98
-128,123,-77
-89,92,-66
-13,66,-56
26,60,-38
104,57,-8
99,59,-11
88,60,-21
44,68,-22
-128,80,-16
-128,75,-9
-128,121,89
-128,28,34
-123,19,20
-37,-4,32
12,-16,18
36,-25,11
9,-58,-12
14,-66,12
10,-64,9
-34,-44,-14
-128,-35,-2
-128,41,-9
-128,127,-11
-121,107,-33
-80,85,-49
-21,63,-38
77,63,-10
105,68,-9
127,60,-12
57,70,-15
26,70,-28
-128,78,-47
-128,127,-53
-128,105,-46
-128,41,-8
-100,27,-6
-30,-13,5
17,-38,25
33,-50,27
21,-77,14
20,-70,9
22,-69,-1
-19,-37,-38
-128,34,-56
-128,127,-81
-128,127,-60
-105,117,-65
-58,96,-52
27,68,-21
106,69,-21
127,68,-20
119,53,-35
52,70,-40
38,80,-39
-128,127,-77
-128,127,-62
-128,93,-26
-128,26,-19
-61,-12,-10
-32,-27,-1
16,-41,20
32,-63,9
31,-66,-1
9,-67,7
-71,-24,-18
-128,6,-29
-128,83,-41
-128,119,-71
-128,113,-79
-67,80,-66
3,56,-40
56,50,-21
127,51,-5
100,42,-22
71,47,-26
40,72,-22
-128,124,-49
-128,127,-40
-128,124,-49
-128,35,-19
-98,16,-12
-42,-27,3
-7,-39,22
11,-49,24
29,-72,12
33,-77,16
14,-64,12
-43,-10,-24
-128,45,-10
-128,117,-63
-128,115,-109
-128,100,-80
-72,88,-62
-6,72,-51
46,61,-33
127,56,-21
127,62,-5
127,76,-16
45,103,-60
-128,127,-77
-128,127,-98
-128,87,-68
-113,45,-9
-65,27,1
-24,-19,5
-19,-42,14
-10,-48,18
9,-81,21
2,-60,36
-8,-56,25
-91,-20,-37
-128,89,-88
-128,127,-128
-128,127,-128
-56,107,-112
5,97,-70
126,73,-1
127,71,0
127,63,3
72,74,-4
24,84,-25
-55,100,-57
-128,109,-39
-128,117,-70
-128,66,-33
-103,24,-8
-46,-10,3
-27,-20,8
35,-30,25
39,-75,10
19,-81,0
11,-76,20
-101,-28,-62
-128,0,-77
-128,127,-112
-128,122,-75
-126,117,-77
-29,70,-63
50,34,-23
86,27,-16
127,41,0
119,35,-4
68,51,-22
14,88,-29
-89,125,-47
-128,127,-71
-128,87,-18
-128,52,-10
-62,15,-12
-14,-23,3
0,-28,16
27,-56,13
15,-110,-3
11,-100,2
15,-68,7
-128,4,-74
-128,40,-62
-128,127,-87
-115,107,-81
-88,90,-82
-15,58,-40
54,30,-27
92,27,-19
120,17,-10
60,30,-25
37,47,-28
-12,76,-46
-128,127,-61
-128,127,-67
-128,75,-18
-100,43,-5
-56,13,-5
-8,-27,10
17,-34,-12
33,-56,-26
37,-86,-8
16,-78,5
3,-64,-11
-128,-19,-28
-128,84,-94
-128,127,-93
-128,91,-97
-60,75,-75
-3,64,-53
83,52,-21
116,74,-1
118,76,2
67,75,-19
33,84,-34
-9,90,-39
-128,120,-56
-128,120,-82
-128,87,-47
-112,19,-27
-50,-10,-5
-30,-23,2
7,-39,17
18,-49,16
14,-73,16
5,-72,11
-10,-57,3
-128,-29,-36
-128,47,-128
-128,127,-128
-128,103,-104
-39,100,-79
-7,95,-66
70,87,-23
127,74,-5
127,72,-10
69,72,-11
19,73,-28
-69,96,-58
-128,85,-66
-128,97,-71
-128,26,-41
-92,8,-12
-35,-18,10
-13,-27,13
28,-47,21
23,-64,16
-14,-61,31
-46,-43,24
-128,-9,-11
-128,-25,-85
-128,127,-87
-110,87,-67
-72,82,-70
-28,48,-64
58,39,-23
83,38,-27
103,35,-26
74,52,-29
57,61,-23
-58,100,-14
-128,125,-4
-128,127,5
-128,46,13
-74,21,7
-44,3,6
-15,-22,4
-5,-31,-3
20,-78,-11
11,-78,1
-10,-57,3
-98,-38,-29
-128,-52,-64
-128,5,-96
-128,88,-95
-65,67,-63
-15,54,-41
33,59,-29
62,76,-28
55,70,-21
35,55,-22
27,60,-30
20,64,-26
-119,92,-31
-128,109,-65
-128,97,-30
-126,17,-13
-58,-6,-11
-37,-16,-5
15,-26,11
35,-52,8
44,-74,2
77,-99,10
20,-69,-37
-118,1,-57
-128,70,-89
-128,127,-90
-128,127,-69
-64,109,-58
-17,81,-41
5,68,-35
96,47,-21
110,53,-8
100,45,-24
66,70,-37
-32,95,-29
-128,107,-54
-128,126,-67
-128,57,-14
-120,39,-14
-49,-6,-12
-25,-32,0
-12,-36,6
-1,-61,6
-2,-69,13
6,-66,16
-17,-43,-3
-65,-26,-14
-128,-7,-42
-128,127,-94
-128,115,-73
-92,102,-70
3,88,-46
71,69,-29
127,59,-16
118,43,-13
64,64,-20
54,70,-18
-128,127,-49
-128,127,-63
-128,126,-27
-123,60,-14
-77,41,-22
-25,-14,-5
-12,-44,15
-2,-55,14
14,-91,0
-9,-78,4
1,-73,5
-73,-8,-21
-128,98,-48
-128,127,-97
-128,127,-64
-69,115,-62
-48,92,-56
33,46,-33
126,30,-21
127,27,-24
127,28,-27
88,79,-8
56,79,-16
-128,127,-86
-128,127,-29
-128,127,-19
-98,56,-5
-41,-10,-19
-27,-41,-14
11,-80,27
22,-100,31
6,-95,28
-22,-69,5
-110,10,0
-128,78,-63
-128,127,-121
-128,127,-69
-99,127,-83
-22,91,-74
67,57,-50
112,39,-40
127,31,-45
120,36,-55
84,61,-51
61,78,-25
7,112,-43
-128,127,-66
-128,127,-14
-128,108,-9
-58,6,-28
-23,-74,-2
-30,-62,14
-5,-81,41
-18,-69,35
-9,-65,40
-57,-27,1
-128,51,-59
-128,113,-63
-128,127,-85
-119,127,-84
-55,127,-80
-3,78,-70
60,45,-52
111,36,-42
127,18,-73
125,49,-69
88,70,-48
27,115,-42
-128,127,-15
-128,127,-16
-128,103,-31
-81,33,-9
-36,-6,-10
1,-52,-1
15,-49,8
26,-67,12
23,-66,27
22,-60,14
11,-52,0
-128,88,42
-128,127,-63
-128,127,-88
-128,127,-83
-39,109,-69
-22,92,-69
69,57,-74
127,48,-84
127,32,-75
127,55,-66
72,104,-71
57,124,-44
-128,127,-44
-128,127,-56
-128,127,4
-104,52,-2
-47,-6,8
-36,-25,19
-24,-45,24
-13,-72,15
-7,-75,47
-14,-56,39
-38,-31,14
-128,73,23
-128,127,-79
-128,127,-73
-101,127,-84
-49,127,-71
-25,108,-76
81,59,-62
127,44,-68
127,36,-71
117,36,-50
72,79,-33
39,104,-9
-128,127,8
-128,127,-9
-128,105,10
-95,28,3
-23,-33,16
-7,-53,16
14,-62,21
17,-83,16
3,-66,14
-7,-43,0
-128,13,-61
-128,43,-40
-128,127,-108
-123,123,-78
-75,102,-66
1,65,-41
87,47,-27
110,50,-13
99,38,-10
46,53,-21
37,63,-34
-36,107,-10
-128,127,-94
-128,120,-48
-128,33,-12
-78,8,1
-43,-8,15
-7,-25,20
28,-60,29
29,-72,27
-3,-66,10
-30,-76,-11
-55,-51,1
-128,-7,-79
-128,115,-91
-128,127,-58
-98,114,-56
-62,91,-56
10,68,-37
121,62,-25
127,61,-17
127,61,-23
62,81,-34
35,95,-39
-128,127,-49
-128,127,-72
-128,99,-25
-113,25,-20
-56,-7,3
-38,-16,0
1,-35,8
24,-82,5
13,-87,10
5,-81,9
-18,-46,-21
-114,-8,-40
-128,117,-128
-128,127,-117
-118,127,-94
-32,98,-76
38,70,-45
75,54,-28
127,49,-5
127,34,1
103,46,-2
45,62,-20
-70,121,-62
-128,127,-91
-128,127,-114
-128,43,-46
-122,36,-19
-55,6,12
-15,-15,21
16,-24,21
65,-85,24
10,-73,20
-5,-66,7
-22,-31,-10
-128,21,-56
-128,77,-116
-128,127,-108
-98,117,-82
-63,92,-75
15,72,-41
73,62,-18
127,54,-4
127,43,-8
67,59,-14
39,64,-26
-116,115,-65
-128,127,-63
-128,127,-91
-128,45,-50
-107,37,-27
-33,-1,6
-2,-29,15
12,-35,20
21,-89,28
-12,-96,20
-12,-84,6
-96,-31,-17
-128,31,-99
-128,127,-118
-128,123,-95
-54,91,-65
-33,74,-58
19,50,-47
76,45,-27
85,38,-15
75,38,-21
43,59,-24
23,71,-13
-128,101,-70
-128,114,-67
-128,66,-65
-128,50,-23
-21,-6,7
-3,-35,6
-9,-39,10
14,-61,15
22,-68,6
13,-61,5
-35,-44,-1
-78,-16,-15
-128,-18,-55
-128,127,-75
-128,109,-76
-76,96,-59
-35,66,-47
-15,55,-36
68,41,-22
121,43,-10
113,40,-18
68,68,-32
39,82,-30
-119,127,-61
-128,122,-76
-128,63,-42
-128,36,-30
-54,4,2
-14,-30,13
-12,-35,17
2,-59,24
12,-67,25
-7,-47,14
-3,-42,29
-39,-33,11
-128,37,-54
-128,127,-100
-128,104,-117
-77,99,-115
-11,84,-77
32,77,-47
118,74,0
127,62,8
127,58,7
60,94,1
-15,112,-39
-128,127,-91
-128,127,-75
-128,74,-72
-120,35,-43
-73,-3,-9
-40,-28,0
-27,-41,5
1,-86,11
-5,-86,21
-22,-73,19
-83,-35,-14
-128,8,-43
-128,84,-52
-128,127,-112
-91,127,-77
-32,108,-66
18,64,-44
82,49,-39
123,54,-30
127,32,-32
79,54,-27
53,70,-28
-58,127,-21
-128,127,-5
-128,127,-18
-128,64,-10
-70,16,2
-46,-7,6
-26,-32,12
26,-78,11
53,-104,13
-17,-85,7
-37,-76,6
-23,-43,-19
-128,17,-66
-128,92,-101
-128,108,-94
-128,113,-69
-88,99,-65
-9,82,-54
55,69,-25
72,74,-3
126,77,-1
97,80,-22
49,102,-16
-66,100,-41
-128,108,-19
-128,124,27
-128,30,0
-77,-6,12
-36,-24,5
-4,-43,-6
8,-59,-3
15,-72,-7
32,-90,-2
13,-81,20
-59,-40,-1
-128,-14,-108
-128,127,-110
-128,100,-125
-87,125,-88
-1,95,-70
54,97,-44
127,102,-9
127,84,-20
72,90,-37
28,89,-35
-122,127,-49
-128,126,-70
-128,127,-20
-128,41,-11
-113,24,-6
-53,-11,-8
-21,-39,-15
-8,-54,-14
26,-93,-3
19,-90,11
20,-82,16
-44,-47,-19
-128,-19,-19
-128,39,-111
-128,127,-128
-128,124,-120
-66,127,-85
22,108,-50
76,89,-28
127,70,-7
120,72,-13
93,77,-17
51,81,-21
-128,127,-76
-128,116,-54
-128,125,-60
-128,44,-34
-122,30,-17
-62,-9,-9
-45,-20,-5
-28,-27,0
18,-68,-1
7,-79,17
5,-78,26
-27,-63,7
-128,-22,-14
-128,-6,9
-128,127,-82
-128,127,-72
-121,127,-87
-56,105,-87
55,88,-59
127,82,-47
127,54,-34
89,73,-29
53,89,-28
-10,121,-38
-128,127,-19
-128,127,-56
-128,90,-39
-114,40,-7
-73,14,-1
-31,-16,-1
-6,-35,1
3,-53,-3
3,-85,-6
-6,-75,15
-18,-67,10
-128,-27,-40
-128,106,-46
-128,127,-66
-128,127,-62
-74,113,-67
-34,98,-55
73,72,-40
114,65,-38
127,42,-21
85,71,-31
59,86,-42
-69,121,-13
-128,123,-74
-128,125,-54
-128,71,4
-66,29,6
-48,1,-2
-32,-41,-4
22,-78,-6
33,-99,-4
4,-77,8
-21,-53,5
-77,-25,0
-128,6,-18
-128,127,-53
-128,127,-60
-97,108,-72
-42,94,-62
7,86,-55
127,59,-31
127,55,-28
113,51,-27
61,79,-31
-71,127,-30
-128,127,-44
-128,127,-53
-128,26,-30
-128,10,-26
-51,-14,8
-8,-31,6
16,-39,12
41,-69,16
12,-87,6
6,-80,-2
-68,-33,-9
-128,-5,-116
-128,88,-99
-128,103,-104
-72,87,-71
-45,75,-65
23,69,-37
101,66,-6
108,66,4
74,64,-5
39,72,-14
13,81,-21
-128,111,-88
-128,109,-80
-128,72,-50
-113,20,-35
-49,-18,3
-42,-27,1
-21,-34,16
-4,-42,20
27,-86,15
6,-74,9
-1,-68,10
-112,-31,-35
-128,23,-71
-128,110,-85
-128,93,-72
-63,97,-59
-29,85,-47
52,67,-29
103,61,-8
103,54,-6
68,53,-22
17,67,-30
-37,86,-19
-128,94,-67
-128,93,-31
-128,35,-20
-93,16,-3
-35,-14,11
-17,-21,9
15,-39,16
30,-82,18
15,-83,11
-3,-75,-3
-69,-36,-18
-128,-49,-52
-128,127,-57
-128,87,-53
-91,95,-43
-30,71,-44
66,64,-27
116,65,-20
114,47,-20
56,57,-30
31,72,-32
-124,96,-36
-128,78,-57
-128,73,-24
-128,25,-6
-61,14,11
-36,-2,16
-6,-18,9
7,-32,9
14,-75,2
6,-85,-5
-13,-73,-12
-75,-50,-37
-128,-24,-54
-128,110,-75
-128,96,-71
-61,75,-54
-32,69,-45
49,59,-18
89,57,0
81,53,-3
47,53,-21
-2,74,-8
-74,89,-16
-128,78,-71
-128,81,-33
-128,27,-42
-95,12,-16
-38,-16,1
-22,-21,2
6,-48,-4
11,-102,5
7,-93,11
-36,-77,-15
-128,-81,-23
-128,-43,-64
-128,93,-74
-105,69,-57
-71,75,-49
6,66,-26
82,63,-10
93,60,-3
61,50,-11
25,64,-25
-16,82,-18
-128,81,-48
-128,89,-47
-128,97,-15
-120,18,-23
-68,2,-3
-53,-12,-1
-27,-23,1
4,-66,-2
20,-101,-4
4,-93,12
-54,-59,-27
-128,-51,-41
-128,42,-78
-128,106,-75
-115,88,-66
-54,83,-55
29,66,-29
65,58,-17
92,53,-6
81,50,-10
39,57,-25
-47,79,-21
-103,83,-33
-128,75,-42
-128,65,-17
-128,29,-17
-73,9,-10
-42,-19,-2
-35,-25,-2
-11,-55,-2
14,-96,3
-2,-92,-4
-55,-74,-16
-128,-83,-47
-128,-16,-90
-128,101,-79
-78,61,-54
-53,72,-51
22,88,-27
77,70,-10
82,58,-9
46,53,-25
22,61,-30
-35,80,-29
-128,78,-57
-128,87,-32
-128,46,-11
-108,19,-7
-51,-6,10
-34,-19,8
-1,-50,16
6,-96,5
0,-86,2
-21,-62,-3
-128,-49,-40
-128,-13,-62
-128,127,-61
-115,85,-55
-75,83,-53
-18,60,-37
71,50,-20
98,43,-16
86,34,-22
40,57,-23
11,69,-15
-128,96,-22
-128,108,1
-128,100,4
-128,19,-15
-98,14,-8
-45,-14,4
-16,-25,0
-9,-39,-8
7,-92,-10
14,-87,8
10,-82,-5
-128,-42,-56
-128,26,-86
-128,93,-110
-125,88,-65
-60,69,-48
-36,65,-41
46,63,-15
90,60,3
87,54,-3
49,56,-27
-10,84,-17
-73,85,-26
-128,74,-85
-128,57,-20
-128,15,-25
-82,1,-12
-29,-18,10
-13,-21,10
19,-41,15
9,-77,13
2,-83,21
3,-78,13
-108,-37,-21
-128,-22,-52
-128,127,-97
-117,69,-59
-75,73,-56
-30,58,-51
46,55,-29
87,53,-19
111,42,-19
45,59,-21
-8,78,-14
-128,68,-38
-128,87,-44
-128,63,-15
-109,21,-16
-52,-3,-4
-33,-11,0
-11,-31,-3
-7,-88,-20
3,-103,-20
17,-84,4
-16,-70,-12
-128,-44,-58
-128,84,-53
-128,107,-63
-103,58,-64
-38,67,-45
-1,65,-33
61,68,-15
79,63,2
77,57,-2
46,61,-17
-67,80,-37
-128,78,-64
-128,82,-49
-128,19,-40
-128,6,-36
-69,-2,-3
-26,-18,5
-8,-27,6
31,-71,10
11,-74,8
7,-72,2
-60,-53,-24
-128,-54,-60
-128,-6,-87
-128,91,-65
-89,73,-51
-63,70,-42
12,60,-28
60,62,-16
71,54,-6
68,45,-9
7,69,-22
-48,68,-25
-128,53,-32
-128,41,-44
-128,48,-28
-120,1,-9
-63,-11,-2
-43,-21,1
6,-34,8
26,-75,0
11,-88,-13
2,-70,0
-51,-46,-32
-128,-54,-34
-128,72,-51
-128,102,-38
-127,86,-32
-49,64,-34
-5,58,-26
52,50,-23
82,53,-18
65,49,-25
48,58,-30
-49,86,-19
-128,86,-16
-128,59,-35
-128,47,-13
-128,8,-13
-90,-5,-3
-34,-22,8
-13,-28,11
27,-57,12
25,-72,9
13,-62,4
-47,-48,-15
-128,-48,-33
-128,-1,-49
-128,75,-48
-117,71,-55
-70,66,-54
8,54,-25
54,56,-17
70,59,-11
70,50,-29
38,64,-32
1,76,-21
-128,83,-27
-128,91,-15
-128,101,3
-124,29,-11
-40,-17,-8
-26,-34,-5
-5,-46,2
38,-86,-1
30,-87,-1
12,-83,-3
-49,-37,-47
-128,-25,-67
-128,59,-105
-128,112,-101
-128,109,-69
-46,77,-54
-5,62,-44
40,59,-39
119,58,-41
84,62,-42
63,62,-40
11,88,-5
-80,91,-4
-128,98,-26
-128,60,31
-114,17,10
-70,5,19
-43,-20,7
-7,-45,2
15,-70,-4
24,-80,6
18,-66,18
7,-59,15
-128,-22,-16
-128,3,-32
-128,127,-71
-128,86,-67
-96,100,-64
-18,73,-43
45,60,-34
79,58,-27
112,50,-27
86,57,-27
59,73,-21
-24,110,-8
-128,127,-64
-128,121,-59
-128,52,-66
-81,16,-30
-43,-5,-11
-22,-34,-5
-12,-47,6
0,-68,9
1,-76,21
8,-71,14
-6,-63,7
-128,-25,-36
-128,99,-107
-128,127,-106
-128,98,-80
-70,91,-70
-36,80,-59
50,68,-45
118,53,-24
106,49,-26
81,52,-26
32,88,-12
-16,98,-1
-128,110,-47
-128,89,-27
-128,61,-22
-110,-1,-24
-50,-30,10
34,-47,18
33,-47,13
28,-75,26
19,-75,22
19,-73,14
14,-67,10
-128,34,-79
-128,110,-117
-128,127,-107
-128,97,-99
-62,92,-67
-25,80,-55
67,57,-8
127,71,15
127,69,17
77,70,-23
25,95,-29
-92,114,-48
-128,90,-50
-128,108,-29
-128,52,-25
-90,8,-31
-42,-25,-9
-19,-35,-3
6,-54,1
19,-75,12
10,-69,14
-7,-60,8
-79,-23,-17
-128,-14,-49
-128,127,-80
-128,90,-70
-128,106,-72
-54,91,-67
51,64,-36
109,61,-19
127,71,-10
96,60,-14
67,68,-14
-30,102,-38
-128,127,-79
-128,127,-81
-128,67,-41
-91,28,-8
-66,8,2
-36,-11,14
-10,-26,19
7,-40,20
19,-87,13
12,-82,21
-17,-62,9
-91,-15,-26
-128,7,-128
-128,116,-128
-128,78,-126
-110,95,-106
-22,85,-61
72,79,-20
125,78,-5
127,73,-8
73,87,-36
57,85,-25
8,117,-55
-128,127,-115
-128,127,-110
-128,70,-71
-103,19,-31
-66,1,-7
-25,-32,11
-4,-54,28
9,-74,26
2,-71,21
-9,-47,13
-29,-29,11
-128,-15,-48
-128,126,-87
-128,127,-91
-124,114,-74
-41,81,-65
-5,68,-49
84,45,-27
127,44,-18
125,41,-23
69,54,-38
35,73,-37
-20,93,-44
-128,127,-86
-128,87,-48
-128,60,-20
-70,11,9
-32,-23,31
-29,-28,34
-11,-59,22
-2,-85,0
3,-79,0
-16,-39,11
-128,-26,-58
-128,7,-72
-128,127,-100
-128,94,-67
-100,88,-66
-36,85,-63
38,74,-29
86,70,-23
123,56,-23
117,52,-19
49,62,-21
-61,78,-35
-117,75,-30
-128,127,-50
-128,73,-38
-128,50,-20
-73,17,-18
-43,-29,-19
-35,-37,-12
-8,-77,5
-3,-103,4
-5,-78,4
-90,-52,-15
-128,-37,-64
-128,33,-93
-128,127,-82
-93,102,-67
-62,93,-58
24,70,-28
87,63,-12
107,60,-7
90,49,-14
41,70,-36
0,86,-29
-128,94,-65
-128,67,-75
-128,73,-55
-123,21,-24
-64,9,4
-43,-4,14
-3,-28,21
6,-73,18
6,-82,11
-17,-60,6
-98,-38,-23
-128,-31,-42
-128,113,-96
-128,89,-64
-108,88,-55
-45,75,-55
35,60,-24
68,55,-13
91,44,-7
73,46,-20
58,56,-22
23,67,-26
-128,95,-68
-128,94,-63
-128,98,-63
-128,12,-28
-111,9,-16
-67,-13,4
-19,-30,25
4,-44,28
39,-102,18
18,-87,17
-5,-71,-1
-128,-21,-27
-128,-21,-52
-128,127,-121
-128,114,-68
-87,104,-67
-11,73,-55
74,60,-25
112,62,-15
127,41,-41
73,65,-38
57,74,-22
-72,106,-42
-128,103,-51
-128,118,-64
-128,39,-16
-83,7,-7
-49,-13,0
-16,-33,24
14,-49,25
24,-73,16
15,-70,7
-20,-60,10
-99,-33,-31
-128,0,-38
-128,127,-99
-128,112,-72
-97,99,-60
-10,80,-60
38,69,-45
127,59,-23
127,54,-50
111,66,-55
34,93,-25
-128,121,-50
-128,116,-64
-128,127,-35
-128,41,-6
-96,19,-12
-46,-29,2
-25,-39,20
1,-61,11
20,-93,-3
5,-79,4
-17,-71,-6
-124,-18,-23
-128,-20,-46
-128,127,-116
-128,120,-65
-53,101,-61
-12,90,-57
74,67,-27
103,65,-16
117,45,-27
69,58,-44
53,68,-33
-29,91,-31
-128,109,-88
-128,122,-59
-128,65,4
-80,16,4
-49,-8,9
-25,-24,22
-10,-57,5
-3,-71,2
0,-77,4
-23,-48,15
-69,-36,-15
-128,-1,-36
-128,127,-98
-128,127,-77
-77,100,-65
18,58,-55
62,46,-41
127,42,-24
98,28,-46
74,45,-40
46,76,-23
-34,102,-47
-103,122,-36
-128,127,-82
-128,81,-64
-128,48,-44
-64,6,-9
-26,-41,10
-35,-51,19
-5,-63,34
12,-64,40
-8,-56,19
-66,-16,7
-128,7,-74
-128,66,-128
-128,127,-101
-104,127,-82
-51,101,-87
33,71,-59
72,61,-33
123,51,-36
127,48,-52
103,60,-46
53,77,-46
-116,126,-67
-128,127,-73
-128,127,-59
-128,60,-35
-115,14,-20
-41,-23,10
-12,-46,26
-16,-50,22
-8,-68,5
-13,-51,15
-26,-30,13
-128,-2,-48
-128,45,-59
-128,127,-95
-128,127,-90
-64,107,-78
-17,100,-79
61,69,-56
127,53,-42
127,40,-54
81,57,-68
38,72,-51
14,90,-39
-128,127,-42
-128,127,-60
-128,85,-47
-101,27,-10
-31,-32,2
-10,-44,6
-1,-74,11
-5,-80,7
-10,-71,0
-60,-18,9
-128,-8,-56
-128,7,-90
-128,127,-91
-128,127,-91
-76,109,-94
15,74,-57
118,51,-38
127,51,-51
127,42,-54
64,76,-60
23,90,-41
-74,119,-31
-128,127,-71
-128,127,-99
-128,48,-31
-61,-8,-2
-39,-28,5
-33,-52,16
-23,-66,18
-10,-77,28
-19,-53,27
-34,-41,2
-105,7,19
-128,63,-78
-128,127,-100
-128,127,-69
-53,106,-90
-15,84,-90
42,56,-38
99,40,-34
115,37,-50
100,42,-28
45,61,-24
24,67,-39
-124,124,-23
-128,127,-93
-128,127,-89
-128,65,-19
-56,3,-8
-35,-16,0
-8,-42,27
11,-74,34
3,-74,31
-1,-63,18
-80,-11,21
-89,-12,16
-128,6,-65
-128,127,-92
-128,126,-95
-81,102,-84
-15,77,-70
22,59,-53
99,48,-29
116,38,-35
91,41,-43
46,67,-29
-15,74,-20
-103,96,-17
-128,99,-49
-128,91,-25
-128,57,-6
-78,27,4
-39,-11,0
-23,-17,9
-6,-30,12
7,-64,6
-1,-73,11
-6,-63,13
-27,-40,7
-128,-21,-9
-128,117,-65
-128,127,-58
-123,101,-64
-45,82,-70
-13,65,-60
59,43,-27
92,37,-32
102,37,-31
58,67,-15
23,76,-39
-26,82,-48
-128,127,4
-128,106,-65
-128,84,-51
-93,32,-8
-52,2,3
-54,-4,3
-55,-23,28
-28,-69,35
-23,-87,27
-33,-78,23
-94,-47,-10
-128,-20,-25
-128,127,-80
-128,127,-73
-122,119,-77
-43,101,-72
30,76,-42
49,70,-29
86,61,-41
78,49,-38
64,55,-23
29,57,-18
-125,89,-34
-128,127,-20
-128,96,-17
-128,55,1
-114,25,10
-50,-20,14
-35,-63,31
-46,-82,24
-32,-98,-2
-33,-67,9
-88,-47,-13
-128,-37,-43
-128,127,-80
-128,127,-77
-106,106,-65
-78,90,-53
-5,86,-43
65,74,-20
78,75,-10
76,66,-11
18,71,-3
-38,79,21
-128,72,-15
-128,71,6
-128,36,7
-104,23,16
-47,-17,14
-31,-26,7
-9,-44,10
-7,-55,18
-7,-56,10
-47,-52,-7
-115,-20,-5
-128,-22,-11
-128,73,-36
-128,64,-11
-90,66,-6
-59,63,-7
-34,45,5
-26,36,14
-5,31,22
0,36,11
-4,37,8
-20,36,19
-39,40,6
-78,39,7
-94,26,24
-102,-13,13
-112,-9,21
-82,-19,25
-66,-24,10
-56,-27,8
-22,-35,8
-35,-17,11
-40,-6,9
-37,-2,12
-50,19,21
-61,55,21
-76,71,15
-73,45,-1
-75,33,-4
-100,22,-2
-86,57,1
-54,28,46
-68,1,45
-57,-17,23
-60,-19,-1
-37,7,15
-70,17,18
-85,13,3
-84,-15,-22
-88,-21,9
-64,-2,10
-65,27,-16
-67,41,-16
-56,9,-28
-51,-11,-31
-50,-10,-36
-58,-26,-60
-87,-38,-62
-46,-52,93
10,-40,-7
-128,43,-80
-128,21,-82
-15,-15,3
-16,23,-31
-29,36,-47
-9,36,-51
10,38,-31
9,44,-14
-19,50,-36
-61,57,-34
-68,66,-18
-105,67,-59
-128,105,-17
-108,117,-19
-128,112,-31
-119,102,-19
-101,109,-16
-81,86,19
-76,50,24
-49,35,18
22,16,15
66,-14,20
46,-15,19
-2,-9,30
-91,-11,-4
-128,-30,-19
-128,-38,37
-128,-37,-6
-128,-15,3
-100,-8,12
-79,-7,29
-63,-4,33
-24,2,18
9,5,7
18,3,1
19,9,1
12,20,1
-2,25,-4
-12,29,-2
-52,40,12
-53,48,-5
-128,15,-45
-128,-5,-63
-128,3,-15
-128,-9,-6
-128,2,7
-79,-27,-6
-12,-55,-2
2,-75,-9
-29,-94,-15
-16,-96,-1
-9,-74,12
-88,-47,20
-128,-28,4
-128,10,-19
-128,13,-17
-128,30,-17
-67,38,-19
42,23,11
80,26,10
76,37,-3
31,61,-13
-27,45,-14
-41,41,-21
-76,23,-35
-121,31,4
-119,4,11
-128,-3,-72
-128,-31,-13
-125,-30,-15
-83,-31,-10
-49,-19,-8
-29,-19,-2
-4,-18,0
32,-19,6
46,-25,13
33,-54,-8
-4,-60,-5
-28,-97,-17
-128,-104,-108
-128,-66,-41
-128,-41,-43
-121,-19,-19
-68,-5,1
-56,2,6
-49,11,14
-51,18,18
-25,20,0
-17,16,-13
-25,10,-11
-26,3,12
-32,-62,65
-43,-68,56
-10,-107,74
-30,-66,78
-35,-50,72
-5,-38,31
6,-22,25
10,-7,27
13,1,15
15,-3,0
9,-17,-14
4,-36,20
4,-54,90
-13,-60,90
-42,-112,78
-55,-92,60
-54,-68,62
-15,-30,17
13,12,-36
14,33,-26
3,42,-27
-3,34,-41
-22,38,-50
-88,45,3
-128,7,-88
-128,0,-73
-128,-4,-52
-128,-20,-14
-113,-15,6
-55,-22,4
-9,-37,-10
14,-44,-12
33,-55,-3
27,-69,-1
18,-57,3
-20,-38,-12
-128,-33,-40
-128,7,-67
-128,52,-99
-128,61,-53
-88,73,-38
-29,51,-39
42,29,-4
52,30,1
48,39,6
50,40,0
33,41,-19
5,57,-15
-52,68,-15
-128,55,-52
-128,69,-41
-128,37,-43
-126,5,-44
-97,-2,-22
-74,-1,-10
-9,-22,4
19,-61,-1
18,-78,2
1,-59,10
-8,-49,-15
-53,-34,-31
-128,3,-57
-128,71,-66
-128,54,-51
-128,66,-41
-74,55,-26
-47,46,-21
0,34,-8
30,29,-6
31,36,2
27,49,16
31,53,3
20,55,2
-75,68,12
-128,70,-56
-128,69,-37
-128,17,-35
-128,12,-77
-106,-3,-57
-42,-14,-15
13,-52,-12
17,-78,-15
2,-104,-4
-5,-79,3
-1,-61,5
-62,-32,-31
-128,-6,-54
-128,98,-78
-128,89,-81
-101,91,-64
-68,75,-50
-5,52,-15
85,39,14
82,45,15
62,56,18
51,50,4
26,54,-14
-82,88,-43
-128,107,-85
-128,116,-77
-128,26,-69
-123,11,-59
-65,-5,-11
-32,-20,5
-18,-21,10
14,-60,16
14,-61,12
10,-62,6
0,-51,-14
-128,-36,-35
-128,-19,-81
-128,127,-95
-119,68,-57
-80,84,-47
-23,52,-23
24,31,2
47,24,0
61,45,9
65,33,6
57,36,3
35,61,2
-95,125,-43
-128,127,-50
-128,127,-46
-128,50,-38
-128,40,-34
-88,6,-7
-31,-6,12
1,-17,12
44,-56,15
16,-64,14
-2,-63,8
2,-51,-3
-68,-38,-4
-128,-32,-85
-128,127,-105
-128,74,-54
-103,83,-66
-38,51,-56
22,35,-22
50,30,-10
50,40,4
54,38,7
46,37,0
27,50,-9
2,70,-7
-128,109,-49
-128,112,-45
-128,42,-28
-128,32,-30
-77,10,-8
-28,-10,7
1,-26,11
22,-55,15
15,-58,15
-1,-56,7
2,-43,-1
-21,-33,-18
-128,-24,-82
-128,114,-108
-128,89,-91
-105,85,-72
-33,60,-40
-16,54,-25
37,42,5
64,38,5
61,39,7
53,49,4
15,53,-9
-29,72,-11
-128,87,-68
-128,83,-55
-128,35,-49
-111,12,-42
-63,-12,-14
-44,-21,-4
-8,-26,7
7,-44,5
5,-49,1
-3,-46,-1
-6,-43,-12
-49,-41,-36
-128,-7,-70
-128,94,-73
-128,51,-52
-90,51,-42
-46,45,-30
-29,43,-23
16,36,-6
46,32,4
37,32,2
28,33,-6
3,39,-10
-1,45,1
-110,49,-25
-128,77,-54
-128,62,-6
-127,28,-8
-78,3,-11
-62,-3,-8
-39,-15,-1
-24,-18,3
-2,-21,5
-1,-29,3
-7,-32,1
-16,-24,2
-88,-28,-8
-128,-31,-28
-128,127,-49
-128,45,-15
-104,53,-11
-54,42,-7
-9,29,2
14,23,7
35,25,16
22,35,4
16,34,-5
-2,28,-18
-67,45,-20
-116,39,-20
-128,19,-21
-128,0,-16
-128,-16,-15
-125,-25,-1
-99,-19,5
-87,-17,-4
-35,-15,-3
-2,-11,-8
4,-11,-13
-8,-6,-3
-24,-13,-5
-17,-18,9
-42,-124,50
-53,-45,23
-21,-77,52
-14,-56,56
9,-53,33
13,-33,31
0,-13,18
-8,-5,19
-20,-3,17
-13,9,17
-12,12,15
-12,16,28
-37,-19,27
-52,-5,91
-92,-1,87
-120,-40,59
-98,-14,38
-72,-5,26
-6,-1,14
2,0,1
-6,2,-6
-34,-11,-8
-63,-20,-28
-74,-42,9
-110,-43,-2
-128,-7,-50
-128,54,-28
-128,60,-32
-128,70,-41
-97,68,-30
12,52,-10
83,41,4
120,52,-3
83,72,-24
56,66,-27
9,77,-43
-128,89,-41
-128,72,-37
-128,75,-28
-127,34,-24
-128,25,-41
-95,21,-9
-52,10,-3
-21,0,2
39,-34,5
32,-70,4
17,-69,12
-6,-55,8
-90,-27,-28
-128,-36,-32
-128,82,-121
-128,83,-70
-128,73,-73
-63,59,-51
-23,43,-26
3,33,-13
41,21,-7
51,34,3
49,38,7
31,44,-4
1,53,-4
-57,56,-16
-128,76,-49
-128,51,-42
-128,25,-45
-128,17,-33
-80,-11,-4
-54,-18,5
-4,-21,9
31,-30,13
37,-45,13
7,-53,14
0,-47,15
-8,-37,1
-128,-66,-64
-128,-15,-123
-128,91,-90
-128,65,-53
-93,52,-55
-34,29,-33
13,23,-2
39,24,13
52,36,27
48,42,3
9,36,-14
-28,35,-12
-109,14,-79
-128,-12,-109
-128,37,-55
-128,-16,-66
-124,-7,-54
-84,-13,-29
-26,-16,-10
6,-26,-3
31,-38,6
22,-46,7
14,-48,4
-6,-40,-2
-62,-38,-34
-128,-92,-88
-128,-2,-128
-128,-2,-128
-119,13,-128
-62,5,-81
-48,15,-32
-40,26,-9
5,38,5
20,35,-15
17,31,-19
0,25,-22
-56,-2,-9
-76,-33,15
-121,-65,4
-105,-96,27
-106,-94,14
-65,-55,47
-55,-42,9
-22,-42,2
5,-18,7
0,-15,10
-2,-2,23
1,-23,-18
12,-30,-9
-16,-29,48
-59,-67,11
-63,-49,4
-83,-90,28
-61,-68,-11
-66,-37,3
-59,9,-6
-4,16,2
-1,22,-6
-14,35,-9
-8,37,-29
-14,38,-37
-63,37,-31
-128,13,-82
-128,44,-60
-128,-6,-26
-128,6,-31
-115,2,-21
-72,-13,-21
-38,-31,-14
-21,-37,-9
16,-51,-3
7,-65,-5
3,-64,2
8,-56,-2
-31,-51,-61
-128,17,-71
-128,127,-96
-128,127,-95
-128,127,-88
-60,114,-50
8,77,-30
61,61,-10
116,48,14
127,39,22
113,45,8
39,68,-10
-123,80,-46
-128,99,-50
-128,103,-53
-128,34,-55
-128,32,-52
-92,2,-21
-38,-13,-13
-16,-21,-8
29,-32,1
44,-35,5
30,-46,8
8,-57,7
1,-54,4
-19,-33,-15
-128,-51,-110
-128,127,-121
-128,86,-128
-128,87,-94
-92,85,-72
-36,76,-38
13,60,-19
48,52,-5
88,48,9
70,39,7
59,41,1
31,56,-8
-38,62,-19
-128,79,-71
-128,106,-41
-128,45,-36
-126,28,-25
-73,-10,2
-44,-36,19
-38,-44,14
-20,-57,2
28,-86,4
16,-77,5
-5,-50,2
-22,-36,-32
-119,-54,-41
-128,94,-128
-128,88,-104
-128,85,-92
-63,63,-66
-6,52,-30
31,49,-10
86,57,2
99,48,2
75,46,-9
33,79,-1
-74,89,-36
-128,87,-61
-128,96,-48
-128,41,-58
-128,24,-46
-88,10,-12
-34,-20,-2
-16,-33,2
10,-43,18
15,-54,15
14,-53,10
12,-47,1
-48,-32,-17
-128,-46,-55
-128,36,-128
-128,93,-128
-128,61,-94
-57,52,-70
-36,41,-65
17,47,-37
55,50,-4
57,51,3
55,47,-8
32,43,-10
19,56,-11
-115,65,-34
-128,80,-49
-128,69,-29
-128,15,-54
-85,11,-10
-54,-2,-1
7,-21,3
32,-49,-1
29,-58,0
24,-71,-8
10,-56,-7
-22,-39,-16
-128,-42,-60
-128,71,-106
-128,62,-82
-128,69,-64
-56,56,-45
-27,44,-29
32,27,-8
41,35,-5
43,39,1
39,31,-3
21,41,-12
-3,52,-15
-123,56,-31
-128,71,-58
-128,60,-32
-128,18,-30
-106,2,-18
-94,1,-7
-34,-5,9
11,-29,2
20,-38,-1
15,-56,3
6,-54,-2
4,-50,-9
-9,-27,-20
-128,-42,-81
-128,17,-128
-128,64,-113
-128,69,-88
-82,63,-60
-30,48,-32
1,44,-17
49,40,3
50,50,5
54,49,7
40,42,5
25,53,-7
1,62,-13
-128,101,-68
-128,85,-74
-128,52,-54
-121,28,-31
-57,3,-5
-30,-4,2
35,-24,13
36,-44,12
24,-54,7
7,-53,2
2,-43,-4
-22,-32,-25
-128,-4,-113
-128,84,-118
-128,88,-88
-99,74,-68
-36,53,-47
-12,45,-29
33,30,-4
48,33,-1
54,37,-1
53,34,-1
29,48,-8
12,57,-14
-110,53,-51
-128,103,-72
-128,65,-57
-128,20,-30
-70,-3,-13
-51,-13,-5
-9,-26,3
11,-34,4
11,-46,-1
5,-56,0
-2,-55,-1
-19,-40,-17
-128,-54,-74
-128,74,-124
-128,65,-99
-124,59,-63
-84,56,-53
-28,43,-26
44,39,2
61,42,6
63,49,4
40,49,-7
26,47,-10
-6,55,-5
-96,58,-35
-128,59,-39
-128,93,-37
-128,25,-30
-125,24,-28
-70,1,-9
-39,-10,-6
-23,-15,-3
-5,-29,5
13,-38,12
14,-43,12
1,-38,13
-61,-62,-14
-128,-75,-85
-128,76,-61
-128,36,-31
-101,37,-27
-48,39,-15
2,38,5
18,38,9
32,48,11
24,52,6
16,52,-1
11,49,-18
-32,47,-16
-89,44,-36
-128,82,-61
-128,45,-15
-128,27,-20
-87,4,-20
-54,-10,-10
-39,-22,-4
-12,-33,-3
1,-46,-4
1,-45,-4
-3,-40,0
-25,-11,7
-97,-16,-24
-128,99,-50
-128,75,-17
-128,62,2
-84,47,-12
-53,36,-12
-20,30,0
5,26,12
17,25,11
26,23,3
22,19,-6
22,16,-6
1,27,-3
-72,38,-24
-128,37,-32
-128,64,-23
-128,24,-8
-128,22,0
-95,17,19
-47,-1,11
-24,-3,15
3,-8,17
4,-16,-2
0,-19,-9
0,-23,-4
1,-29,-7
-13,-22,-14
-128,-24,-42
-128,80,-34
-128,50,-17
-128,45,-9
-109,25,-4
-84,19,3
-41,14,18
12,11,42
-18,4,9
-20,-6,-2
-41,-4,-11
-48,-7,-19
-40,-9,-26
-52,-18,6
-75,-27,4
-65,-49,30
-94,-67,35
-82,-63,48
-76,-40,46
-41,-21,20
-42,-15,10
-16,-8,30
-11,-6,9
-2,-9,4
-1,-17,0
-20,-37,-6
-41,-53,15
-28,-61,23
-59,-87,27
-88,-95,34
-61,-89,15
-62,-75,10
-66,-47,0
-37,-18,4
-32,8,-5
-6,21,-1
7,34,-22
-7,34,-39
22,47,-7
-58,53,-8
-87,28,-41
-119,4,-30
-128,-28,-72
-128,-36,-83
-125,-26,-39
-51,-17,-13
-25,-20,-13
0,-32,-22
4,-39,-5
0,-41,7
1,-57,5
-4,-60,3
-33,-42,-6
-128,-46,-35
-128,76,-113
-128,76,-81
-128,66,-55
-59,64,-33
-35,51,-19
18,36,6
38,40,12
42,44,15
13,41,7
14,32,-5
3,35,-6
-49,46,-22
-128,60,-73
-128,84,-53
-128,32,-55
-126,19,-44
-100,7,-28
-55,-12,-4
2,-24,11
31,-32,12
39,-58,6
16,-62,6
11,-60,6
-13,-39,-5
-127,-18,-34
-128,-31,-46
-128,127,-114
-128,116,-64
-104,74,-38
-46,41,-30
-32,34,-31
1,22,-23
40,20,-14
41,23,-7
36,32,0
26,38,-2
18,42,0
-90,68,-10
-128,98,-29
-128,81,-17
-128,24,-25
-110,9,-18
-87,-6,-11
-45,-17,0
6,-31,5
24,-36,6
28,-45,7
8,-48,1
5,-45,5
-15,-37,-7
-128,-58,-100
-128,15,-121
-128,49,-90
-115,41,-56
-82,36,-51
-39,27,-37
11,22,-16
33,24,-9
32,40,2
22,44,-4
20,45,-11
12,58,-2
-34,58,-11
-122,76,-55
-128,85,-40
-128,23,-41
-128,15,-40
-102,-1,-25
-49,-18,1
-22,-22,7
12,-32,3
10,-45,-1
4,-48,5
-1,-49,0
-16,-36,-19
-65,-37,-18
-128,13,-128
-128,54,-92
-128,69,-79
-94,57,-66
-68,52,-49
-3,44,-4
41,41,15
51,45,17
37,54,6
23,47,3
12,46,-2
-40,54,-30
-128,47,-62
-128,51,-72
-128,27,-37
-124,25,-29
-94,11,-20
-60,-5,-12
-28,-12,-3
-11,-16,0
11,-22,3
14,-34,1
5,-39,2
-3,-42,5
-25,-32,-23
-103,-69,-61
-128,1,-128
-128,19,-102
-128,31,-82
-97,39,-64
-62,38,-41
-45,37,-27
-16,35,-7
0,33,11
-5,35,23
-17,22,-5
-28,10,-8
-42,1,24
-96,-80,-6
-93,-62,36
-110,-91,42
-80,-58,46
-41,-42,28
-25,-24,31
-3,2,22
11,-6,27
5,-4,23
1,-15,-5
-3,-26,27
-47,-65,69
-84,-65,30
-105,-113,26
-100,-89,25
-75,-51,34
-69,-29,34
-36,-13,16
-5,-4,4
-16,2,-12
-9,14,-27
-23,15,-3
-43,6,3
-68,-35,28
-121,-35,22
-114,-49,-2
-98,-65,9
-87,-25,32
-60,-10,27
-3,14,20
-3,32,2
-4,23,-23
11,1,-31
26,-33,-28
-9,-43,-28
-128,-78,-76
-128,-22,-25
-128,-33,-17
-128,-7,-34
-122,27,-16
-80,29,-8
-6,27,-6
25,28,-12
34,34,-4
51,33,-5
32,29,-12
20,33,-17
-59,59,9
-128,60,-48
-128,65,-32
-128,29,-10
-128,20,-22
-114,10,-11
-46,-14,0
-13,-41,-1
-13,-41,-2
-4,-43,12
-8,-35,10
-12,-32,7
-40,-12,3
-128,-27,-9
-128,-2,-58
-128,78,-51
-113,46,-35
-87,46,-35
-44,41,-28
-23,41,-20
26,28,6
33,32,13
34,35,10
34,46,-2
6,54,-8
-34,61,-12
-128,46,-34
-128,66,-42
-128,37,-23
-128,2,-30
-90,-1,-6
-73,-3,1
-32,-11,10
-3,-20,7
5,-25,2
1,-25,-5
-18,-35,-8
-25,-37,-8
-59,-52,17
-128,-17,-15
-128,27,-17
-96,0,9
-93,-15,-16
-96,-5,-27
-53,7,-19
-12,10,-8
7,16,-11
17,38,-9
21,51,14
16,54,15
20,62,6
-108,102,-26
-128,127,-50
-128,108,-33
-128,48,-41
-114,36,-38
-66,3,-19
-20,-14,2
0,-26,5
8,-38,-3
-3,-45,1
-4,-44,5
-10,-23,14
-128,-33,-24
-128,27,-54
-128,91,-38
-124,60,-12
-107,69,-18
-55,50,-9
-38,41,-1
9,23,12
31,27,6
31,32,3
25,32,-1
10,35,-2
-20,49,-11
-65,59,-33
-128,121,-67
-128,121,-42
-128,47,-22
-104,29,-25
-80,18,-17
-36,-6,-8
18,-38,3
21,-45,4
7,-52,4
-9,-37,7
-37,-11,-3
-128,20,-50
-128,127,-48
-128,62,-27
-94,56,-18
-42,38,-9
-21,27,-2
11,8,0
12,11,0
10,17,-2
12,24,-2
8,26,-9
4,37,-11
-85,79,-14
-128,110,-50
-128,89,-48
-128,51,-36
-97,40,-26
-72,28,-15
-24,-2,-4
-1,-26,-7
1,-30,-3
-15,-43,-4
-18,-39,-1
-25,-29,-12
-128,-13,-39
-128,47,-70
-128,79,-62
-116,61,-51
-81,59,-32
-60,47,-25
-17,31,-6
2,25,1
16,28,5
20,25,8
13,24,4
5,30,0
-37,48,-7
-96,48,-31
-128,76,-50
-116,35,-23
-96,21,-30
-76,11,-21
-52,1,-7
-41,-7,-5
-20,-23,-4
-10,-30,-1
-11,-29,5
-36,-31,-5
-70,-25,-22
-85,-16,-26
-117,-7,-25
-128,19,-53
-128,48,-64
-128,45,-36
-78,39,-25
-55,34,-20
-31,25,-14
-16,25,-8
-11,26,-11
-3,23,-14
3,22,-11
5,18,-9
1,22,-10
-14,39,-6
-28,59,-2
-89,70,-14
-128,77,-15
-128,71,-22
-128,43,-13
-121,22,-9
-105,15,-4
-64,6,5
-16,-13,9
0,-21,5
10,-36,7
4,-50,8
5,-51,3
1,-46,-15
-128,-50,-63
-128,6,-102
-128,85,-79
-128,64,-64
-94,67,-53
-42,61,-32
-18,52,-20
22,38,-12
41,37,-5
52,33,-2
43,29,-5
23,41,-5
-6,57,0
-128,74,-37
-128,87,-37
-128,50,-23
-116,27,-26
-69,5,-4
-50,-5,4
-23,-18,11
2,-31,11
7,-38,9
3,-49,12
-7,-46,4
-17,-38,-8
-128,-43,-50
-128,92,-126
-128,106,-103
-125,75,-74
-43,65,-46
-14,54,-30
33,39,-17
56,43,-9
61,40,-2
53,37,-8
35,43,-6
19,53,-7
-128,75,-33
-128,107,-55
-128,76,-30
-128,25,-18
-69,3,8
-39,-10,13
4,-30,16
15,-44,10
13,-53,5
12,-55,2
7,-51,2
-13,-38,-15
-128,-20,-77
-128,127,-91
-128,88,-75
-105,80,-58
-67,66,-43
-13,50,-23
45,32,-16
56,37,-1
71,42,0
55,39,-10
40,44,-12
-34,69,-3
-128,97,-67
-128,110,-47
-128,34,-21
-93,16,-12
-66,2,-2
-25,-20,4
-6,-40,5
-4,-48,6
-5,-55,6
-4,-49,3
-4,-41,4
-75,-8,-20
-128,47,-100
-128,126,-92
-128,70,-66
-60,73,-46
-26,58,-33
27,36,-2
43,37,-1
46,39,1
40,33,4
22,37,-1
14,40,-7
-70,62,-18
-128,83,-60
-128,97,-44
-128,26,-13
-94,14,-2
-71,5,9
-45,-23,14
-17,-27,27
-17,-28,23
-10,-26,14
-21,-23,5
-40,-17,3
-93,-19,-13
-128,55,-56
-128,96,-43
-113,27,-17
-88,20,-18
-81,11,-19
-22,20,-4
17,20,0
30,32,8
24,47,20
22,45,9
-7,52,-5
-80,70,2
-101,62,-8
-128,69,-35
-111,48,-21
-105,26,-19
-102,15,-12
-89,8,-2
-80,6,3
-52,2,13
-30,-1,18
-20,-2,19
-10,-4,18
-30,4,8
-51,13,0
-84,34,-14
-101,52,-23
-97,50,-19
-87,56,-9
-63,47,-1
-51,40,2
-36,24,5
-33,18,7
-37,18,6
-51,18,-3
-61,20,-4
-62,19,0
-60,20,1
-58,18,-7
-57,20,-7
-61,30,-5
-75,37,-8
-84,35,-7
-86,27,-1
-78,20,1
-74,17,2
-67,12,2
-57,9,3
-51,9,4
-44,11,3
-42,14,0
-43,19,-2
-36,19,-6
-27,11,-8
-26,8,-5
-16,4,7
-11,-5,11
-1,-20,6
-53,-6,23
-128,54,-31
-128,25,-23
-128,12,2
-128,1,1
-128,16,2
-116,25,4
-76,32,2
-11,36,-13
49,15,-24
73,29,-12
73,29,-25
66,26,-43
59,39,-31
34,71,-23
-128,127,-14
-128,127,-28
-128,114,-34
-128,66,-12
-103,53,-12
-52,14,-9
-22,-9,-12
-8,-22,-14
4,-53,2
8,-76,0
0,-83,8
-19,-72,26
-82,-51,-43
-128,-39,-45
-128,56,-128
-128,127,-128
-128,127,-128
-80,102,-96
35,75,-81
108,60,-67
127,63,-40
89,48,-34
57,56,-28
13,82,-7
-128,127,-52
-128,122,-84
-128,127,-57
-128,70,-33
-109,46,-32
-54,-2,-16
-2,-35,-4
20,-51,5
22,-84,13
21,-84,10
6,-71,14
-34,-49,5
-128,-24,-67
-128,17,-57
-128,127,-128
-128,127,-122
-112,117,-97
-12,67,-75
29,47,-48
82,33,-30
86,33,-18
82,29,-22
54,29,-27
32,61,-19
-10,69,-42
-128,127,-51
-128,127,-63
-128,82,-55
-128,49,-33
-58,5,-5
-16,-13,-4
40,-72,5
30,-75,12
14,-75,8
-15,-64,2
-7,-34,16
-78,-7,-10
-128,90,-77
-128,127,-70
-128,126,-72
-89,84,-96
29,56,-57
91,47,-39
127,48,-35
127,41,-34
97,56,-33
44,82,-15
-68,123,-36
-128,127,-46
-128,127,-97
-128,68,-36
-121,50,-35
-30,-6,-11
18,-31,11
31,-37,9
36,-71,3
20,-76,3
11,-65,12
-31,-37,-6
-94,-12,-20
-128,21,-34
-128,99,-98
-128,127,-82
-128,127,-88
-30,81,-65
21,58,-44
95,44,-29
127,39,-22
121,37,-27
71,54,-34
18,80,-36
-59,105,-35
-128,127,-86
-128,115,-75
-128,69,-51
-104,37,-24
-32,-4,12
-7,-12,19
36,-60,20
22,-79,11
15,-72,15
-2,-55,5
-91,5,-11
-128,16,1
-128,83,-85
-128,120,-67
-128,125,-64
-72,88,-76
21,49,-43
74,40,-34
127,42,-27
114,48,-31
81,57,-28
31,79,-34
-127,113,-43
-128,117,-76
-128,126,-51
-128,43,-50
-128,36,-42
-73,7,2
-26,-5,21
17,-18,20
45,-67,12
31,-73,11
21,-67,-1
-23,-35,-7
-128,-11,-40
-128,4,-59
-128,114,-101
-128,109,-96
-124,114,-90
-18,72,-74
69,47,-43
90,46,-35
127,46,-20
127,48,-29
77,76,-41
19,95,-30
-59,118,-41
-128,127,-76
-128,117,-54
-128,68,-34
-98,25,-28
-47,-15,2
-24,-25,15
15,-61,14
23,-72,12
23,-72,13
3,-55,15
-82,0,-2
-122,18,5
-128,50,-107
-128,127,-92
-128,127,-95
-80,99,-86
-16,64,-59
29,53,-40
113,42,-30
127,40,-29
127,50,-14
64,60,-30
34,90,-34
-19,121,-13
-128,127,-79
-128,127,-50
-128,75,-39
-108,9,-19
-38,-32,9
-26,-35,22
11,-70,28
4,-72,22
-1,-69,26
-8,-49,29
-116,16,-3
-128,32,-7
-128,127,-87
-128,111,-57
-126,117,-67
-44,80,-72
13,50,-45
53,40,-30
102,38,-26
108,45,-32
78,57,-28
38,72,-19
19,78,-33
-128,124,-64
-128,127,-98
-128,103,-86
-128,46,-45
-63,-5,-9
-44,-23,5
-37,-34,28
-5,-52,29
11,-60,34
-5,-50,23
-64,-12,-10
-92,3,-9
-128,8,-69
-128,127,-126
-128,127,-104
-95,107,-97
-17,81,-75
27,69,-53
94,55,-26
127,53,-23
127,54,-29
68,79,-22
20,86,-34
-38,114,-27
-128,127,-107
-128,95,-74
-128,77,-37
-77,10,-15
-22,-41,7
-10,-45,21
-14,-72,25
-8,-74,18
-6,-60,17
-10,-33,16
-55,-3,-3
-128,-6,-52
-128,127,-61
-128,110,-60
-128,122,-65
-50,94,-66
30,61,-43
73,52,-32
127,55,-32
127,67,-46
106,79,-47
37,104,-35
-128,127,-49
-128,127,-70
-128,99,-51
-128,52,-36
-69,-3,-27
-28,-37,3
-14,-41,19
2,-52,27
-14,-55,26
-14,-46,31
-48,-16,20
-128,5,-34
-128,38,-69
-128,127,-90
-108,104,-78
-7,71,-54
41,63,-35
116,54,-21
127,51,-25
84,64,-37
16,94,-23
-24,105,-23
-128,127,-60
-128,124,-33
-128,74,-8
-70,23,-6
-33,-8,15
-29,-24,11
-8,-100,-5
-6,-119,11
-37,-119,-12
-103,-44,-26
-128,46,-96
-128,127,-113
-128,127,-101
-72,127,-92
-5,104,-82
126,80,-55
127,68,-44
127,63,-44
63,70,-42
14,81,-57
-33,107,-42
-128,127,-60
-128,127,-93
-128,91,-62
-76,26,-22
-52,-19,-4
-41,-26,15
-21,-54,40
-12,-70,29
-8,-68,17
-3,-56,12
-16,-41,-2
-128,19,-43
-128,127,-106
-128,127,-116
-128,127,-92
-52,117,-74
-17,86,-65
82,42,-44
127,39,-26
127,37,-27
127,58,-48
87,108,-33
-1,127,-41
-128,127,-101
-128,127,-59
-128,83,-34
-63,33,-16
-23,-13,-3
-7,-20,5
5,-57,14
2,-76,10
2,-73,9
-16,-62,4
-105,-11,-22
-128,13,-29
-128,127,-128
-128,127,-115
-128,127,-102
-20,95,-82
51,53,-30
84,39,-24
109,45,-26
91,52,-26
79,61,-35
25,99,-17
-128,127,-78
-128,127,-99
-128,92,-16
-128,43,-33
-98,21,-27
-19,-13,-7
38,-43,3
47,-60,5
8,-79,-2
1,-61,10
-9,-54,3
-128,-12,-32
-128,76,-50
-128,126,-92
-128,116,-76
-98,117,-75
-20,72,-63
70,51,-34
103,47,-19
95,52,0
63,51,-8
49,60,-8
4,77,-14
-128,127,-86
-128,127,-50
-128,75,-83
-117,24,-36
-81,14,-16
-19,-11,8
48,-40,20
78,-64,21
33,-88,9
12,-67,18
-12,-42,-2
-128,47,-88
-128,111,-82
-128,127,-95
-119,127,-78
-52,85,-76
-34,72,-71
57,51,-49
120,44,-26
123,38,-22
78,48,-23
45,68,-26
21,77,-33
-128,127,-45
-128,127,-56
-128,119,-50
-128,30,-27
-69,2,-1
-44,-12,2
9,-39,21
39,-78,13
15,-72,8
9,-61,10
-30,-34,-20
-115,-12,-34
-128,46,-95
-128,127,-98
-128,127,-88
-51,79,-65
6,54,-44
55,44,-26
106,49,-16
118,51,-12
74,57,-19
38,72,-8
14,78,-12
-128,118,-65
-128,127,-30
-128,91,-19
-108,24,-36
-46,-10,-2
-18,-20,11
38,-58,29
10,-77,9
-5,-71,9
4,-49,23
-63,-12,-22
-128,0,-35
-128,122,-93
-128,120,-80
-107,98,-71
-41,65,-52
40,48,-27
89,39,-19
127,43,-9
87,60,-13
63,66,-22
0,84,-34
-128,113,-96
-128,118,-74
-128,93,-17
-107,21,-26
-70,0,-15
-18,-43,0
33,-71,23
43,-84,21
24,-91,7
-7,-69,2
-34,-49,-22
-128,-38,-70
-128,127,-109
-128,127,-89
-112,87,-72
-28,57,-50
23,52,-31
108,56,-14
109,64,-3
86,61,-8
46,65,-31
-73,98,-33
-128,92,-44
-128,66,-58
-128,65,-35
-128,18,-23
-51,0,-10
-12,-24,-8
14,-57,-4
24,-76,0
11,-76,2
-1,-58,5
-6,-38,-1
-74,-13,0
-128,13,-113
-128,110,-109
-128,84,-84
-48,71,-61
49,54,-27
91,53,-16
110,56,-5
84,65,-6
67,71,-14
26,80,-23
-128,127,-51
-128,127,-66
-128,127,-59
-128,27,-29
-89,12,-12
-16,-26,1
20,-60,11
14,-74,23
25,-83,27
23,-67,5
15,-59,-9
-102,-11,-57
-128,87,-45
-128,127,-31
-128,108,-13
-20,58,-18
31,42,-13
92,48,-6
90,66,-28
77,69,-39
46,61,-42
17,68,-27
-33,93,-37
-128,102,-56
-128,114,-38
-128,56,-18
-101,10,-13
-30,-17,9
0,-23,9
31,-39,12
37,-49,2
44,-81,-5
21,-65,-2
6,-43,18
-128,-33,-55
-128,96,-70
-128,114,-65
-122,72,-74
-30,54,-50
17,49,-30
100,63,-9
100,54,-5
73,43,-15
13,44,-36
-18,90,15
-122,110,19
-128,71,-15
-128,82,3
-83,13,3
-38,3,12
8,-24,10
43,-29,15
51,-50,16
5,-59,2
-8,-54,1
-1,-26,18
-128,-23,-17
-128,33,-8
-128,127,-47
-101,86,-58
-76,70,-56
2,62,-22
87,48,-29
111,52,-37
104,34,-30
46,55,-16
22,56,-30
-128,75,-46
-128,82,-38
-128,80,-30
-128,32,-3
-55,7,11
-25,-14,11
19,-42,7
36,-73,10
29,-72,4
15,-56,6
10,-43,12
-104,-3,-44
-128,49,-55
-128,125,-83
-128,86,-66
-67,78,-38
-20,60,-13
74,45,17
127,57,15
123,49,12
70,57,-34
5,95,-43
-128,127,-52
-128,127,-41
-128,83,-26
-128,61,-10
-109,6,8
-42,-9,13
-14,-19,8
43,-46,-2
46,-77,-12
33,-81,-3
19,-81,-8
-47,-31,-39
-128,-31,-71
-128,106,-123
-128,94,-77
-128,94,-66
-48,69,-54
46,57,-13
92,58,-5
111,64,3
63,62,-13
45,66,-29
-66,93,-52
-128,62,-70
-128,41,-83
-128,67,-51
-108,2,-24
-74,2,-12
-24,-21,2
45,-36,18
56,-59,11
33,-86,-2
16,-76,4
4,-64,-7
-128,-24,-77
-128,112,-128
-128,127,-128
-128,97,-113
-62,82,-94
35,59,-24
106,62,7
122,70,21
85,70,6
31,67,-14
17,66,-22
-92,90,-54
-128,84,-95
-128,77,-90
-128,34,-38
-78,5,-23
-51,-9,-10
-7,-19,11
32,-43,23
41,-67,13
20,-84,-7
7,-58,1
-33,-43,-42
-128,-47,-76
-128,78,-128
-128,92,-128
-87,79,-84
-18,56,-45
20,51,-16
76,58,-2
96,69,14
75,63,2
41,57,-7
-12,77,-7
-100,91,-47
-128,121,-53
-128,80,-41
-128,37,-35
-82,8,-19
-34,-24,8
-3,-36,20
49,-95,23
13,-83,23
15,-76,27
-16,-42,10
-128,3,-41
-128,21,-53
-128,127,-73
-124,86,-62
-71,75,-53
-16,50,-53
51,43,-37
85,40,-32
89,45,-41
90,47,-40
62,69,-21
-112,109,-43
-128,105,-35
-128,93,-21
-128,17,-11
-114,16,-3
-39,-12,6
11,-41,2
31,-49,7
49,-78,19
19,-64,15
20,-60,13
-70,-17,-18
-128,36,-97
-128,127,-114
-128,114,-66
-51,72,-71
-16,59,-50
80,55,-7
110,55,-15
105,48,-18
54,46,-19
10,57,3
-19,69,-7
-128,88,-8
-128,112,-45
-128,69,-20
-94,20,-13
-30,-4,3
-11,-13,7
44,-30,25
26,-72,33
2,-60,41
4,-51,25
-69,-3,4
-128,-24,-74
-128,102,-97
-128,56,-66
-89,50,-66
-40,49,-55
30,53,-18
74,47,-14
104,56,-16
92,73,-20
62,72,-30
21,78,-33
-128,127,-53
-128,127,-54
-128,60,-28
-128,31,-1
-52,6,2
47,-27,30
62,-53,30
60,-59,34
25,-80,-2
28,-74,0
29,-49,23
-128,-2,-36
-128,81,23
-128,127,-43
-128,110,-61
-95,96,-59
-21,81,-50
95,66,-58
126,64,-53
127,43,-44
75,67,-55
42,75,-34
-88,113,-21
-128,127,1
-128,127,-13
-128,35,9
-34,-13,8
-6,-43,19
22,-59,30
41,-76,24
38,-78,15
20,-68,-4
-48,-30,-3
-128,-6,-30
-128,72,-128
-128,108,-107
-128,111,-104
-10,92,-63
75,71,-12
116,73,-10
96,75,-6
57,47,-23
50,48,-34
29,56,-42
-91,105,-60
-128,123,-73
-128,119,-104
-128,59,-10
-103,47,-3
3,-23,-8
47,-56,43
49,-46,46
52,-93,3
31,-92,3
35,-67,19
-128,-15,-93
-128,109,-75
-128,127,-87
-128,103,-82
-86,90,-71
-14,70,-48
91,75,-15
127,83,-9
127,65,-20
66,82,-41
24,89,-29
-128,116,-73
-128,103,-83
-128,81,-51
-128,8,-26
-60,-17,-4
-29,-28,4
21,-34,19
22,-61,4
26,-67,-5
40,-77,11
-12,-51,-28
-128,-38,-77
-128,112,-96
-128,107,-128
-128,120,-111
-63,104,-73
67,92,-50
127,85,-33
127,77,-20
105,78,-35
86,95,-38
-84,127,-52
-128,127,-119
-128,127,-111
-128,47,-29
-37,1,8
-23,-26,2
3,-36,-4
31,-78,-7
30,-89,8
7,-84,26
-42,-64,4
-121,-22,-3
-128,9,-96
-128,127,-91
-128,125,-83
-73,104,-67
6,69,-43
63,58,-36
127,63,-34
127,43,-39
94,65,-45
48,84,-43
23,108,-50
-128,127,-48
-128,127,-58
-128,38,-16
-99,21,-6
-28,-17,-2
-5,-42,-3
14,-71,5
9,-76,3
6,-70,6
5,-56,11
-41,-8,20
-128,12,-7
-128,127,-102
-128,107,-108
-100,127,-88
-22,68,-50
80,57,-26
127,64,-26
127,66,-10
70,70,-30
49,76,-42
-44,127,-37
-128,125,-126
-128,127,-84
-128,51,-25
-67,18,9
-45,-1,13
9,-44,9
33,-103,11
21,-100,20
17,-77,19
-1,-56,-13
-112,-20,-35
-128,61,-42
-128,127,-93
-128,126,-69
-67,106,-75
9,72,-45
66,67,-33
127,46,-22
127,41,-19
96,52,-25
38,96,-41
-128,127,-39
-128,127,-50
-128,127,-45
-109,31,-29
-71,6,-7
-25,-35,5
-8,-47,14
38,-66,16
49,-88,6
28,-83,6
20,-49,28
-128,29,-46
-128,93,-56
-128,127,-80
-128,112,-49
-67,72,-61
-27,57,-58
34,32,-47
75,27,-50
111,24,-33
104,29,-27
86,43,-26
45,81,-11
-128,127,-34
-128,127,-59
-128,110,-61
-112,41,-18
-56,25,8
8,-31,17
11,-43,23
15,-58,23
5,-71,31
-2,-66,27
13,-67,15
-128,-5,-70
-128,116,-89
-128,127,-107
-128,118,-90
-54,86,-74
-4,72,-51
114,59,-24
127,60,-10
127,52,-18
76,71,-47
-24,110,-41
-120,127,-71
-128,126,-92
-128,80,-39
-128,48,-25
-56,21,9
-2,-19,23
15,-37,24
39,-83,13
23,-81,24
18,-72,25
-29,-51,7
-128,-17,-15
-128,73,-47
-128,121,-79
-128,102,-84
-44,85,-93
56,63,-53
107,62,-41
127,55,-34
73,52,-31
51,50,-22
17,75,-22
-128,127,-10
-128,127,9
-128,127,-51
-118,50,-5
-77,33,5
-19,-5,11
-8,-42,5
20,-76,8
26,-97,17
13,-79,13
6,-61,10
-128,-36,-48
-128,106,-103
-128,127,-121
-128,112,-96
-33,79,-78
8,67,-64
125,66,-34
127,51,-29
127,47,-30
66,75,-34
-28,119,-44
-128,127,-84
-128,108,-25
-128,57,-34
-116,35,-15
-37,5,16
-10,-21,0
-1,-37,-3
28,-94,-2
13,-75,12
5,-72,-3
-128,-28,-32
-128,-58,-112
-128,51,-128
-128,110,-109
-28,107,-65
11,82,-58
97,79,-28
110,62,-25
98,51,-29
53,61,-40
38,74,-23
-94,73,-65
-128,99,-35
-128,104,-39
-128,52,-61
-84,28,-10
-41,6,5
6,-32,16
30,-61,16
14,-88,16
3,-88,3
6,-56,18
-45,-28,20
-128,-77,-128
-128,127,-122
-128,63,-128
-69,82,-98
18,52,-42
70,50,-25
127,63,-2
123,51,-14
87,61,-23
-15,85,-36
-128,93,-98
-128,80,-84
-128,87,-38
-102,33,0
-54,24,15
7,-9,17
34,-59,2
42,-82,1
55,-99,-3
-6,-59,-21
-43,-30,-30
-128,-10,-54
-128,118,-93
-128,106,-83
-97,79,-67
-29,63,-58
13,67,-42
112,64,-18
127,41,-15
104,47,-27
40,71,-44
-97,104,-50
-128,98,-63
-128,72,-43
-128,36,-19
-102,25,-2
-20,-7,7
9,-27,4
27,-56,1
30,-101,-7
23,-99,-9
12,-66,-8
-128,-25,-66
-128,17,-45
-128,115,-99
-112,95,-69
-79,97,-66
5,69,-47
101,54,-23
118,50,-22
93,39,-23
58,51,-32
18,76,-29
-128,102,-73
-128,98,-25
-128,80,-6
-106,34,-4
-31,3,16
-13,-13,10
0,-46,1
19,-92,4
19,-93,7
16,-72,1
-103,-27,-23
-128,-12,-33
-128,61,-93
-128,105,-60
-106,92,-62
-33,66,-51
47,58,-26
85,57,-24
122,54,-29
72,58,-38
50,65,-39
-81,108,-44
-128,99,-66
-128,84,-45
-128,24,-17
-39,0,13
-10,-20,20
24,-40,16
28,-85,7
19,-93,1
9,-81,1
-89,-42,-30
-128,-15,-15
-128,63,-79
-128,127,-54
-128,101,-54
-60,79,-49
-12,78,-41
104,68,-50
127,44,-40
80,55,-40
68,66,-42
-21,112,-37
-128,127,-52
-128,118,-9
-128,43,0
-101,26,8
-27,-21,16
22,-85,0
30,-98,7
20,-94,13
6,-61,-6
-83,-40,-21
-128,11,8
-128,127,-78
-128,118,-45
-87,88,-57
1,66,-45
52,60,-40
127,49,-27
114,42,-29
85,53,-29
16,95,-27
-128,109,-56
-128,100,-44
-128,82,-21
-87,14,-8
-62,1,4
-37,-17,7
-29,-24,13
-16,-43,10
20,-99,5
-2,-85,6
-48,-69,-6
-128,-30,-16
-128,104,-74
-128,127,-75
-94,70,-75
-39,62,-64
4,58,-51
100,53,-31
127,47,-18
102,42,-28
52,66,-32
32,74,-34
-128,127,-53
-128,115,-59
-128,81,-27
-95,39,-3
-13,-14,17
-9,-36,19
5,-33,20
25,-82,9
19,-87,-1
2,-81,-10
-128,-47,-52
-128,-65,-52
-128,108,-114
-125,78,-77
-81,84,-64
0,76,-27
90,65,-2
103,61,6
79,58,5
46,61,-29
11,76,-28
-128,112,-67
-128,94,-91
-128,69,-51
-90,39,-10
-16,-5,11
-10,-23,6
2,-29,14
26,-79,19
37,-93,15
-32,-84,-29
-93,-41,-13
-128,-50,-52
-128,90,-122
-128,112,-73
-124,92,-78
-31,83,-59
72,60,-23
120,58,-13
124,51,-2
77,57,-29
59,73,-28
-95,117,-51
-128,123,-81
-128,96,-50
-128,33,-39
-69,12,-6
-41,-6,6
-18,-23,4
-9,-35,3
13,-84,11
9,-100,4
9,-87,1
-53,-49,-15
-128,-49,-89
-128,63,-84
-128,106,-82
-71,108,-72
-25,78,-58
62,58,-34
111,58,-15
107,50,-14
62,50,-25
-4,72,-27
-56,72,-36
-128,66,-79
-128,101,-11
-128,77,-22
-90,33,-10
-49,6,5
-41,-8,2
-8,-44,-6
42,-118,7
31,-90,20
-18,-74,-10
-128,-27,-6
-128,-42,-15
-128,127,-107
-120,91,-77
-70,100,-63
-6,66,-45
77,54,-23
101,58,-14
91,51,-15
58,54,-31
38,70,-22
-128,101,-65
-128,93,-56
-128,74,-17
-122,33,-11
-42,9,22
-20,-10,20
12,-46,16
15,-79,6
14,-83,3
3,-71,-3
-82,-35,-25
-128,-5,-1
-128,32,-59
-128,127,-56
-119,78,-36
-50,68,-38
-22,53,-36
50,48,-24
109,46,-37
101,40,-46
54,52,-40
-65,95,-25
-128,104,-13
-128,115,35
-128,32,19
-96,26,27
-11,-4,28
13,-27,7
15,-40,-4
39,-97,9
1,-81,-6
-52,-74,-35
-128,-13,-11
-128,3,-79
-128,127,-76
-128,85,-43
-34,74,-29
-9,54,-31
42,45,-32
111,49,-40
116,34,-41
69,55,-37
-67,95,-43
-128,95,-39
-128,127,14
-128,53,13
-102,34,13
-28,1,14
11,-45,6
10,-50,2
9,-86,3
-1,-76,5
1,-68,0
-94,-26,10
-128,-18,-43
-128,116,-65
-128,87,-37
-55,78,-38
-17,56,-40
68,46,-30
106,45,-27
93,40,-31
44,62,-44
8,88,-30
-128,94,-30
-128,94,-13
-128,82,25
-100,34,24
-5,-1,25
20,-44,20
-18,-58,2
0,-86,-8
11,-76,-4
1,-45,0
-128,-16,-16
-128,-3,9
-128,115,-73
-128,76,-48
-82,72,-32
-32,49,-37
33,36,-11
67,41,-1
107,38,5
70,51,-26
34,68,-36
-128,107,-53
-128,127,-128
-128,86,-86
-118,44,-42
-18,-16,2
8,-56,4
20,-71,8
19,-90,6
12,-86,-3
7,-58,-1
-80,-14,-21
-128,15,-7
-128,37,-108
-128,122,-75
-128,71,-74
-48,76,-60
26,68,-37
71,64,-27
110,55,-19
61,48,-31
49,55,-30
21,68,-20
-128,95,-79
-128,109,-37
-128,62,5
-128,20,-10
-67,-20,29
-27,-54,23
-14,-65,9
-13,-76,0
-9,-57,11
-20,-44,6
-120,-22,-9
-128,-4,69
-128,70,64
-116,95,34
-47,94,63
-23,61,41
17,42,5
7,27,-26
-5,14,-20
-15,21,-2
17,35,13
25,36,41
50,42,107
59,41,79
56,24,83
49,14,57
21,-8,30
7,-8,27
9,-13,8
14,-27,1
8,-31,10
11,-21,28
49,4,55
62,-33,54
41,23,127
38,25,123
26,31,118
41,32,73
8,42,2
-3,33,-21
-11,17,-40
-24,38,-36
0,52,-11
19,54,102
45,84,127
2,98,127
27,26,127
23,-1,82
7,-12,53
-21,-7,13
-12,-21,-27
3,-34,-41
30,-67,-10
38,-63,23
-70,-77,15
-128,28,17
-128,54,124
-111,15,86
-64,49,13
-6,60,7
85,51,-42
59,60,-70
74,46,-63
74,68,-57
-55,127,-54
-128,127,-42
-128,91,-24
-128,44,-1
-128,16,4
-54,-10,23
7,-40,8
18,-55,-2
45,-91,-2
29,-78,3
24,-65,8
-27,-28,-3
-128,17,-28
-128,96,-48
-128,100,-72
-85,82,-61
-45,73,-58
70,58,-37
127,62,-16
127,53,-11
73,65,-28
-11,108,-35
-110,125,-21
-128,112,-101
-128,71,-24
-128,40,-22
-53,3,11
9,-43,8
29,-66,10
33,-89,4
16,-81,13
9,-68,16
-67,-36,-35
-128,11,-1
-128,81,-87
-128,103,-64
-84,83,-60
-35,66,-59
56,48,-35
103,56,-30
127,54,-21
84,62,-42
64,101,-37
-109,127,-42
-128,113,-75
-128,90,-39
-128,36,-13
-48,0,11
-19,-17,14
27,-32,11
45,-78,-5
26,-95,-11
22,-85,12
-42,-41,-29
-128,3,-7
-128,44,-18
-128,100,-33
-128,95,-38
-71,75,-64
30,65,-53
76,67,-52
127,61,-34
90,66,-33
64,87,-38
-75,127,-23
-128,127,-74
-128,111,-71
-128,37,-35
-74,-12,-18
-42,-36,-7
-4,-68,6
9,-86,17
10,-96,18
3,-70,13
-66,-34,9
-128,-11,-7
-128,16,-21
-128,113,-39
-128,110,-58
-72,90,-64
-9,77,-47
37,72,-38
127,63,-34
127,56,-26
63,68,-43
2,85,-47
-128,114,-54
-128,97,-43
-128,60,-2
-128,27,5
-60,7,20
6,-44,8
14,-59,0
41,-100,-7
24,-98,-9
15,-82,-6
-53,-26,-17
-128,3,-67
-128,71,-76
-128,89,-69
-69,62,-49
-35,47,-45
53,39,-9
112,54,7
104,54,5
64,57,-21
34,68,-15
-30,92,-33
-128,127,-46
-128,100,-85
-128,55,-48
-80,23,-3
-3,-24,8
10,-46,11
32,-62,27
23,-89,5
4,-83,-1
-3,-42,10
-128,-25,-43
-128,0,-68
-128,127,-84
-125,96,-73
-82,87,-64
-4,63,-41
80,49,-20
106,48,-16
108,44,-7
52,54,-26
31,64,-32
-128,97,-52
-128,76,-82
-128,82,-54
-128,22,-16
-67,4,6
-33,-16,9
5,-32,25
33,-85,11
14,-94,-1
5,-68,10
-45,-30,-8
-128,-26,-30
-128,56,-65
-128,119,-77
-128,94,-69
-66,75,-61
-28,67,-45
59,49,-24
109,47,-20
112,41,-18
58,53,-20
17,58,-27
-43,80,-34
-128,99,-70
-128,80,-34
-128,37,-15
-80,11,6
-16,-19,23
8,-25,24
28,-73,8
15,-83,-2
15,-71,2
-10,-45,-6
-128,-17,-31
-128,7,-31
-128,108,-68
-107,78,-63
-81,73,-59
-6,60,-33
68,44,-22
96,47,-20
94,45,-8
52,44,-22
22,49,-25
-128,84,-45
-128,83,-68
-128,80,-43
-120,21,-19
-41,0,11
-21,-12,15
2,-32,19
7,-61,18
3,-70,9
-4,-69,-6
-79,-28,-17
-128,-27,-28
-128,75,-97
-128,98,-70
-106,88,-69
-42,63,-57
52,54,-18
87,50,-13
102,48,-2
81,46,-6
46,55,-18
-92,89,-36
-128,88,-71
-128,75,-46
-128,31,-18
-104,18,-15
-50,-6,3
-13,-25,11
9,-35,14
34,-92,4
15,-88,-2
14,-79,2
-68,-42,-39
-128,-17,-82
-128,78,-102
-128,72,-75
-72,62,-61
-52,58,-35
29,53,-25
77,58,-7
81,57,3
59,57,-7
20,66,-11
-65,81,-23
-128,74,-86
-128,58,-35
-128,24,-31
-78,6,-11
-30,-17,12
-11,-26,21
17,-61,23
5,-75,8
4,-72,4
4,-56,6
-128,-38,-50
-128,-29,-75
-128,127,-83
-104,80,-62
-72,72,-57
-2,53,-32
73,44,-9
93,45,-4
81,35,-4
43,45,-17
20,56,-13
-128,93,-54
-128,95,-41
-128,64,-21
-111,17,-15
-46,-10,5
-32,-24,17
-8,-24,24
6,-46,19
21,-87,-2
19,-78,5
12,-64,2
-96,-38,-44
-128,10,-115
-128,103,-104
-128,68,-73
-61,71,-49
-23,68,-24
58,71,7
104,81,25
92,82,15
52,61,-26
-73,90,-39
-128,80,-64
-128,60,-69
-128,32,-24
-116,11,-23
-51,-7,-6
-13,-32,-4
0,-42,-2
26,-77,6
15,-80,0
12,-74,-1
-20,-39,-17
-128,-39,-82
-128,70,-114
-128,86,-77
-77,62,-58
-54,57,-49
28,46,-8
86,47,2
90,48,6
53,51,3
12,67,-19
-73,85,-31
-128,85,-70
-128,70,-44
-128,39,-34
-83,15,-15
-37,-12,3
-28,-19,10
16,-38,19
22,-78,12
10,-75,8
13,-60,5
-5,-44,-7
-128,-49,-70
-128,95,-101
-128,86,-85
-88,73,-55
-28,65,-37
13,61,-21
70,58,-5
77,49,3
67,43,-6
27,53,-21
-88,75,-24
-128,69,-45
-128,83,-37
-128,20,-18
-110,9,-22
-65,-12,-5
-30,-26,7
-4,-44,12
21,-90,4
7,-79,1
7,-67,0
-50,-42,-32
-128,-4,-86
-128,86,-100
-128,82,-66
-77,69,-61
-48,66,-55
21,56,-22
65,52,0
68,49,1
63,52,-12
34,58,-14
10,62,-14
-123,70,-33
-128,47,-54
-128,87,-39
-128,0,-25
-79,-5,-4
-46,-13,8
17,-48,12
39,-79,13
22,-74,6
4,-56,-2
-71,-46,-27
-128,-55,-54
-128,99,-99
-128,72,-63
-98,70,-59
-24,64,-34
16,63,-20
71,64,4
79,50,4
63,48,-6
27,60,-11
-70,83,-28
-128,72,-60
-128,71,-40
-128,16,-22
-110,9,-24
-47,-12,2
-6,-29,15
7,-42,10
12,-77,1
7,-65,6
5,-56,1
-99,-30,-41
-128,50,-85
-128,123,-89
-128,77,-66
-52,65,-46
-16,58,-31
63,51,-2
92,55,6
90,51,2
52,55,-14
-11,74,-13
-108,88,-37
-128,94,-61
-128,40,-24
-122,15,-34
-67,-10,-14
-33,-27,5
-16,-38,9
16,-72,12
14,-74,10
5,-66,9
-10,-52,-20
-128,-30,-42
-128,-8,-71
-128,116,-85
-110,74,-56
-73,71,-45
-32,50,-29
22,45,-13
54,47,-12
96,51,-12
87,54,-31
66,60,-33
-22,83,-35
-128,94,-67
-128,117,-59
-128,28,-20
-128,28,-14
-53,-14,0
-12,-35,10
0,-48,16
13,-87,5
7,-97,-14
8,-86,3
-110,-67,-38
-128,10,-89
-128,92,-93
-128,90,-83
-43,78,-56
8,69,-34
88,69,-13
97,60,-1
69,64,-13
32,70,-26
-95,104,-32
-128,106,-99
-128,111,-46
-121,28,-23
-78,15,-19
-43,-19,-5
-25,-24,3
-7,-45,0
5,-108,-13
-1,-94,-13
-18,-76,-12
-99,-36,-34
-128,-7,-74
-128,77,-96
-128,84,-86
-75,65,-62
-43,59,-53
39,51,-33
91,49,-15
92,52,-6
62,57,-19
2,77,-19
-77,92,-19
-128,82,-75
-128,70,-30
-128,25,-26
-79,4,-10
-15,-30,6
2,-41,8
20,-83,0
14,-99,-6
16,-72,3
-35,-44,-25
-121,-31,-34
-128,-6,-86
-128,75,-93
-128,72,-90
-65,69,-61
17,57,-27
55,54,-20
98,60,-11
81,61,-10
62,63,-22
-11,88,-31
-128,94,-53
-128,81,-67
-128,89,-19
-111,14,-18
-85,8,-15
-46,-22,-14
7,-49,0
27,-78,4
23,-93,-6
8,-57,21
-1,-38,17
-128,-26,-85
-128,101,-122
-128,125,-101
-112,105,-69
-36,69,-52
12,56,-30
99,47,4
108,55,6
100,51,-8
48,72,-15
-42,90,-13
-128,116,-44
-128,110,-34
-128,51,-12
-119,17,-27
-71,-25,-15
-9,-68,11
22,-79,18
37,-98,2
14,-87,-8
-31,-51,-9
-127,-15,-41
-128,72,-80
-128,127,-102
-128,98,-67
-96,92,-60
-23,61,-54
61,47,-31
88,42,-18
92,48,-4
48,61,-4
-17,81,-1
-103,101,-13
-128,83,-52
-128,90,-41
-121,25,-30
-72,-4,-28
-58,-29,-24
-34,-65,5
-15,-101,23
-12,-93,23
11,-67,19
4,-31,20
-110,5,-31
-128,127,-91
-128,127,-67
-128,125,-67
-39,92,-68
60,69,-40
118,62,-18
127,58,-7
104,61,-36
75,70,-29
-64,100,-20
-128,116,-50
-128,109,-36
-128,44,-5
-68,-4,-2
-28,-20,4
23,-52,16
52,-59,31
58,-81,21
23,-76,-8
-11,-40,-5
-96,-9,-26
-128,11,-107
-128,95,-102
-128,87,-104
-65,77,-68
64,75,3
105,79,8
127,87,13
70,90,-5
49,81,-18
-20,89,-43
-116,112,-42
-128,103,-99
-128,67,-52
-128,19,-38
-83,-5,-16
-43,-26,3
-24,-31,15
28,-75,33
22,-92,16
12,-84,15
-52,-49,-13
-128,-35,-54
-128,5,-86
-128,108,-119
-127,103,-104
-70,96,-88
23,89,-40
121,84,-2
127,82,18
76,76,2
47,73,-26
19,82,-33
-128,108,-44
-128,71,-121
-128,75,-77
-128,12,-35
-71,-16,-9
-47,-23,5
-9,-37,23
18,-69,32
25,-96,28
9,-75,12
-69,-52,-21
-128,-29,-40
-128,-32,-125
-128,80,-125
-128,59,-107
-50,63,-81
21,60,-31
52,58,-11
67,63,-6
51,69,1
36,62,-7
12,65,-26
-24,76,-35
-128,79,-59
-128,56,-93
-128,29,-64
-128,14,-50
-58,5,-9
-18,-8,3
62,-53,14
44,-80,2
36,-88,8
11,-71,1
-110,-31,-70
-128,-21,-47
-128,71,-127
-128,67,-93
-104,70,-73
-24,58,-44
52,52,-11
70,58,-3
65,65,6
50,68,-20
36,65,-28
-55,79,-19
-128,87,-43
-128,70,-33
-128,28,-38
-107,-9,-18
-82,-9,-3
-36,-25,9
19,-65,19
27,-92,24
11,-98,13
-9,-76,-18
-50,-44,-42
-128,-8,-78
-128,127,-120
-128,103,-94
-94,90,-69
-17,59,-47
22,56,-25
90,57,-5
87,51,0
68,52,-11
21,64,-24
-99,76,-34
-128,85,-61
-128,66,-52
-128,13,-18
-128,11,-14
-80,-24,-11
-39,-20,7
32,-35,-1
51,-78,-9
18,-82,-3
-1,-63,-2
-89,-33,-24
-128,-32,-24
-128,29,-49
-128,74,-54
-109,63,-59
-58,48,-40
11,47,-7
38,46,-13
77,52,-9
63,47,-8
47,51,-8
-31,71,-10
-128,62,-64
-128,79,-37
-128,34,-19
-114,9,-5
-78,0,3
-9,-7,21
60,-23,19
68,-47,6
30,-69,-1
15,-68,7
6,-57,-9
-128,-18,-44
-128,60,-110
-128,112,-90
-120,71,-66
-41,51,-55
-14,42,-36
56,46,-6
91,60,9
88,53,5
57,56,-20
2,69,-20
-84,95,-36
-128,101,-51
-128,79,-25
-128,27,-37
-77,3,-15
-17,-25,0
7,-37,1
39,-70,3
22,-98,-2
6,-90,-2
-20,-63,-22
-128,-25,-35
-128,-25,-64
-128,93,-88
-128,81,-82
-89,78,-70
-20,56,-46
19,50,-24
89,49,-14
89,59,-2
77,60,-8
35,67,-19
-104,117,-29
-128,111,-50
-128,103,-48
-128,27,-28
-112,21,-22
-40,-13,-15
-6,-44,-9
12,-61,0
20,-104,-2
3,-85,-8
14,-71,-4
-93,-11,-52
-128,36,-101
-128,115,-101
-128,92,-64
-47,63,-57
5,46,-33
60,42,1
72,67,20
78,63,13
51,64,-17
-19,89,-20
-122,109,-58
-128,110,-77
-128,47,-34
-128,14,-32
-56,-7,-6
29,-46,21
64,-74,29
35,-98,20
2,-78,-3
-17,-53,-13
-128,-25,-27
-128,37,-115
-128,107,-110
-118,89,-74
-28,73,-51
22,62,-33
80,61,-17
80,76,5
65,78,0
34,71,-25
-8,82,-13
-128,86,-41
-128,55,-60
-128,62,-27
-109,2,-21
-53,-12,-3
-28,-25,6
22,-50,24
33,-94,16
5,-82,0
-11,-52,-6
-113,-41,-31
-128,-48,-61
-128,76,-109
-128,73,-70
-40,56,-44
1,53,-29
75,67,-8
96,79,4
89,65,-13
25,83,-36
-38,92,-27
-128,74,-88
-128,68,-49
-128,42,-28
-89,8,-9
-19,-33,5
-5,-54,3
12,-72,12
7,-103,-10
-6,-80,-23
-43,-45,-31
-128,-51,-73
-128,9,-124
-128,91,-96
-72,73,-58
-33,62,-41
45,55,-14
84,71,-3
89,68,0
59,56,-17
-16,80,-18
-106,92,-29
-128,52,-72
-128,70,-32
-128,26,-25
-57,0,-7
9,-23,8
26,-43,9
34,-107,2
7,-100,-15
-7,-59,-13
-128,-42,-44
-128,-45,-84
-128,61,-105
-122,77,-89
-70,75,-70
2,46,-31
54,60,-13
77,74,0
80,60,-11
38,72,-31
-27,91,-23
-128,77,-63
-128,59,-53
-128,54,-19
-88,2,-6
-7,-15,16
15,-37,22
32,-79,11
12,-97,-1
8,-79,4
-62,-44,-22
-128,-13,-56
-128,83,-86
-128,104,-71
-70,81,-58
-13,62,-47
84,54,-21
110,58,-18
101,55,-31
72,71,-25
-8,91,-17
-127,110,-38
-128,108,-53
-128,48,-26
-114,5,-20
-53,-23,-1
1,-63,24
8,-72,40
10,-94,25
-15,-82,-8
-60,-57,-17
-128,-67,-42
-128,127,-105
-128,125,-80
-70,86,-54
8,49,-41
62,37,-25
127,42,-18
127,44,-19
73,54,-36
32,80,-29
-50,118,-29
-128,127,-74
-128,91,-14
-128,36,-15
-31,-16,-6
20,-70,11
30,-70,29
27,-93,15
10,-76,18
-7,-64,4
-128,-6,-41
-128,118,-80
-128,127,-89
-128,116,-80
-45,85,-70
9,68,-58
110,51,-39
127,54,-30
127,52,-42
63,82,-15
-114,115,-40
-128,127,-63
-128,127,-40
-128,39,-27
-87,23,-17
7,-28,-1
22,-50,2
23,-72,4
20,-104,8
-3,-87,8
-28,-69,-15
-128,-8,-40
-128,127,-79
-128,127,-73
-100,100,-70
-4,67,-61
50,62,-50
127,76,-22
125,58,-36
93,68,-44
46,96,-9
-128,127,-95
-128,127,-75
-128,81,-27
-84,6,-4
-21,-18,16
28,-64,14
28,-61,19
19,-99,-4
-12,-75,-7
-32,-56,-9
-128,-15,-59
-128,71,-126
-128,127,-128
-128,127,-107
-23,108,-64
44,91,-36
123,84,-18
127,88,-12
127,91,-30
83,127,-31
-128,127,-48
-128,127,-57
-128,103,-36
-128,28,-14
-93,1,-3
-1,-13,15
56,-52,24
53,-50,31
31,-75,19
12,-59,8
-59,-43,-21
-128,5,-66
-128,87,-111
-128,127,-93
-128,120,-79
-35,75,-59
16,60,-40
110,53,-21
127,59,-24
127,70,-24
75,61,-49
-24,110,-52
-128,127,-57
-128,127,-88
-128,56,-15
-114,38,-11
-32,-20,-1
31,-50,18
36,-60,18
27,-97,7
14,-79,2
6,-65,3
-128,-14,-59
-128,51,-128
-128,127,-128
-128,100,-114
-92,109,-90
33,76,-35
125,69,-19
127,72,-19
110,53,-29
64,72,-46
22,86,-52
-128,127,-47
-128,124,-77
-128,98,-54
-128,59,0
-78,9,-9
-45,-14,6
-3,-35,36
57,-73,31
63,-100,14
1,-90,13
-19,-57,20
-107,-42,-29
-128,64,-22
-128,127,-68
-128,108,-77
-56,81,-58
66,51,-35
121,47,-37
127,47,-55
70,58,-34
47,61,-32
13,95,-30
-128,127,-34
-128,127,-75
-128,127,-9
-118,51,-8
-72,18,-17
-34,-44,-3
25,-63,38
40,-89,38
25,-96,30
52,-75,32
-13,-50,3
-128,-13,-60
-128,127,-117
-128,127,-109
-114,115,-87
-23,84,-56
36,75,-22
127,54,17
127,52,19
101,52,1
36,70,-15
23,69,-36
-128,124,-91
-128,124,-110
-128,96,-69
-124,34,-28
-40,6,0
-6,-21,5
17,-61,25
13,-104,18
3,-97,13
9,-72,11
-128,-27,-49
-128,-6,-106
-128,127,-125
-128,95,-105
-92,83,-97
-15,58,-53
79,47,-11
109,46,-7
125,46,3
70,51,-25
53,52,-33
-84,92,-54
-128,105,-107
-128,89,-79
-128,60,-32
-71,21,-19
-31,3,-12
7,-48,18
29,-80,27
7,-95,12
-2,-76,8
-25,-50,-9
-118,-29,-43
-128,14,-91
-128,108,-104
-128,80,-98
-78,63,-69
36,54,-31
78,54,-26
124,62,-20
83,56,-21
60,61,-24
-1,90,-22
-128,96,-89
-128,97,-84
-128,75,-32
-92,15,-21
-50,-3,-14
19,-58,2
28,-70,19
15,-103,13
3,-79,0
-66,-36,16
-128,-5,-15
-128,60,-74
-128,127,-94
-128,102,-105
-15,63,-73
44,48,-48
107,46,-23
126,41,-20
88,50,-26
