1565785514.000000, 1565785514.000000, 1565785514.000000
32.000000, 32.000000, 32.000000
-13,62,5
-14,62,5
-14,62,5
-14,62,5
-14,62,5
-14,62,5
-14,62,5
-14,62,5
-14,62,5
-14,62,5
-13,62,5
-13,62,4
-13,63,5
-13,62,4
-13,63,5
-14,62,5
-14,63,5
-14,63,5
-14,63,5
-14,63,5
-14,62,5
-14,63,5
-14,62,5
-14,62,5
-14,63,5
-14,63,5
-14,62,5
-14,62,5
-14,62,5
-14,62,5
-14,63,5
-14,62,5
-14,63,6
-14,63,5
-14,62,5
-13,62,5
-13,62,5
-14,63,5
-14,63,5
-15,62,5
-15,62,5
-15,62,5
-15,62,5
-14,62,5
-13,62,5
-14,63,5
-14,63,6
-14,62,6
-15,62,6
-15,62,6
-15,62,5
-15,62,5
-14,62,4
-14,62,4
-13,62,4
-13,63,5
-13,63,5
-15,63,5
-15,62,5
-14,62,5
-15,62,5
-15,62,5
-15,62,5
-14,62,5
-14,63,5
-13,62,5
-13,62,5
-13,62,5
-14,62,5
-14,62,5
-15,62,5
-15,62,5
-15,62,5
-14,62,5
-14,62,5
-14,62,4
-14,62,5
-14,62,5
-14,62,5
-14,62,5
-14,62,5
-14,62,5
-14,62,5
-14,63,5
-14,62,5
-14,63,5
-14,62,5
-14,62,5
-14,62,5
-15,63,5
-14,62,5
-14,62,5
-14,62,5
-14,62,4
-15,63,5
-14,62,5
-14,62,5
-14,62,5
-14,62,5
-14,62,5
-15,62,5
-14,63,5
-14,62,4
-14,62,4
-14,62,5
-15,63,5
-15,63,5
-15,63,5
-13,63,5
-13,62,4
-13,62,5
-14,63,5
-14,63,5
-14,63,5
-14,62,5
-15,62,5
-14,62,5
-14,62,5
-14,62,5
-14,62,5
-15,62,5
-15,63,6
-14,62,5
-14,62,4
-13,62,3
-13,61,3
-13,61,3
-14,61,4
-15,62,6
-17,63,7
-18,63,6
-16,63,6
-16,62,4
-14,62,4
-14,62,4
-14,63,4
-14,63,5
-14,63,5
-14,63,4
-14,62,4
-14,61,4
-15,61,3
-15,62,4
-17,62,5
-17,63,5
-17,62,5
-16,62,4
-16,62,4
-16,62,4
-16,61,5
-15,61,5
-16,62,5
-16,63,5
-15,63,4
-15,63,3
-14,63,3
-13,62,4
-14,62,6
-16,62,6
-16,62,6
-16,62,4
-16,61,3
-16,61,3
-16,61,4
-16,61,5
-17,62,6
-17,63,5
-17,63,4
-16,62,4
-15,61,4
-14,62,4
-15,62,4
-15,62,5
-16,63,5
-16,62,6
-16,62,5
-16,61,4
-16,61,4
-15,62,4
-16,62,4
-16,62,5
-15,63,5
-15,62,5
-15,62,5
-16,62,5
-16,62,4
-15,62,4
-15,61,4
-15,62,4
-15,62,5
-16,62,5
-17,62,5
-17,62,6
-17,62,5
-16,62,5
-16,62,4
-15,62,4
-14,62,5
-14,62,5
-15,62,4
-14,63,5
-15,63,6
-16,62,5
-15,63,5
-15,63,5
-15,63,4
-14,62,3
-13,61,4
-14,61,5
-15,62,5
-17,63,5
-16,62,5
-16,62,5
-15,61,6
-15,63,5
-16,63,4
-15,62,3
-14,61,3
-14,61,4
-14,62,5
-16,62,5
-16,62,6
-16,62,6
-15,62,5
-15,63,5
-14,63,5
-14,63,4
-13,63,5
-13,62,4
-12,62,3
-12,62,4
-14,62,5
-15,63,6
-15,63,6
-15,63,6
-15,62,6
-15,62,5
-14,62,5
-13,62,4
-13,62,4
-13,63,4
-13,63,5
-14,62,5
-14,62,4
-15,62,5
-14,62,5
-16,63,4
-16,64,5
-16,63,4
-14,63,4
-13,63,4
-13,63,4
-12,62,4
-11,62,5
-11,62,5
-14,62,5
-16,62,5
-17,63,5
-17,64,6
-15,63,5
-13,62,5
-10,60,4
-10,61,4
-11,62,4
-15,64,4
-15,63,4
-13,62,5
-13,61,3
-14,62,3
-15,62,4
-16,63,5
-16,63,5
-16,62,5
-15,62,5
-15,62,4
-15,62,4
-15,62,4
-15,62,4
-15,62,5
-16,61,5
-16,61,4
-15,63,2
-14,63,4
-14,62,3
-15,62,5
-16,63,5
-16,63,5
-16,63,4
-15,62,3
-14,63,4
-14,63,3
-14,63,5
-14,63,5
-14,61,4
-14,61,3
-15,62,3
-16,62,5
-17,62,4
-16,62,4
-14,62,4
-14,61,4
-14,62,3
-14,62,4
-15,62,5
-16,62,5
-15,62,4
-14,62,4
-14,62,4
-14,63,4
-14,63,5
-14,62,5
-13,62,4
-13,61,3
-14,62,3
-15,63,4
-16,63,5
-15,62,5
-14,62,5
-13,62,3
-13,61,3
-15,63,5
-15,63,5
-15,63,4
-13,62,3
-13,62,5
-14,62,5
-15,63,5
-15,64,5
-14,63,5
-14,62,4
-14,62,4
-13,61,3
-14,63,3
-14,63,3
-13,63,4
-12,61,4
-12,61,4
-13,62,4
-14,62,4
-15,62,4
-15,63,5
-15,63,5
-15,63,4
-13,62,4
-12,61,4
-12,62,4
-12,63,5
-13,63,5
-13,63,4
-12,63,3
-12,62,3
-12,62,3
-14,63,4
-15,63,5
-15,63,6
-14,63,5
-14,62,4
-14,62,4
-13,63,3
-13,63,4
-13,63,4
-13,62,5
-13,62,5
-14,62,5
-15,62,5
-15,62,5
-15,62,4
-14,62,4
-13,62,4
-13,62,4
-14,63,4
-14,63,4
-14,63,4
-14,62,5
-13,63,4
-13,63,4
-13,63,4
-13,62,4
-13,63,5
-13,63,5
-14,63,4
-14,63,4
-13,62,4
-13,63,4
-13,62,4
-13,62,4
-14,63,4
-14,62,4
-14,63,4
-14,63,4
-14,63,4
-14,63,4
-14,63,4
-14,62,4
-13,62,4
-13,62,4
-14,63,4
-14,63,4
-14,62,4
-13,62,4
-13,62,4
-13,62,4
-13,63,4
-13,63,4
-13,62,5
-14,62,5
-14,62,4
-14,62,4
-14,62,4
-14,62,4
-13,63,4
-13,63,4
-13,62,4
-13,63,4
-14,63,4
-14,63,4
-14,63,4
-14,62,4
-14,62,4
-14,62,4
-14,63,4
-14,63,4
-14,63,4
-14,62,4
-14,63,4
-13,63,4
-14,62,4
-14,63,4
-13,62,4
-14,62,4
-14,63,4
-14,63,4
-14,62,4
-14,62,4
-14,63,4
-14,62,4
-14,62,4
-14,62,4
-14,63,4
-14,63,4
-14,63,4
-14,62,4
-14,62,4
-14,62,4
-14,63,4
-14,63,4
-14,62,4
-14,62,4
-14,63,4
-14,63,4
-14,62,4
-14,62,4
-14,63,4
-14,62,4
-14,62,4
-14,63,4
-14,62,4
-14,63,4
-14,62,4
-13,62,4
-14,63,4
-14,63,4
-14,62,4
-14,62,4
-14,63,5
-13,62,4
-13,61,2
-12,62,3
-12,63,4
-13,63,5
-17,63,7
-16,63,7
-16,62,5
-15,62,1
-13,63,0
-13,62,1
-12,62,5
-12,63,6
-13,63,6
-14,63,4
-15,63,3
-14,62,3
-14,62,3
-13,62,5
-14,62,5
-15,63,6
-15,63,5
-14,63,5
-14,62,4
-12,62,3
-12,62,3
-12,63,4
-13,63,5
-14,62,5
-13,62,4
-15,62,4
-15,62,4
-15,62,4
-14,62,4
-14,62,4
-13,63,4
-13,62,4
-13,63,4
-14,63,4
-14,63,4
-14,63,4
-14,63,4
-14,62,4
-14,63,4
-14,63,4
-14,62,4
-14,63,5
-14,62,4
-14,62,4
-14,63,4
-14,62,4
-13,62,4
-13,62,4
-14,62,4
-14,63,4
-14,63,4
-14,63,4
-14,62,4
-13,62,4
-13,62,4
-13,63,4
-13,63,4
-13,63,4
-13,63,4
-14,63,5
-14,62,5
-14,61,5
-13,61,4
-13,63,3
-13,62,4
-14,62,4
-15,62,4
-15,62,4
-15,63,3
-15,62,3
-14,63,3
-14,62,4
-14,63,4
-14,63,4
-15,63,4
-16,63,5
-15,63,5
-14,63,4
-13,63,4
-13,63,4
-12,64,4
-12,64,4
-12,63,4
-12,63,4
-12,62,4
-12,62,4
-13,61,4
-12,61,3
-12,61,3
-13,63,3
-13,64,3
-12,64,4
-10,63,6
-10,63,7
-11,63,6
-11,63,5
-12,64,4
-12,64,5
-11,64,4
-11,64,3
-10,63,4
-8,62,4
-9,62,5
-9,62,6
-10,63,6
-10,62,6
-11,62,6
-11,62,5
-12,63,5
-11,63,5
-9,62,5
-8,62,5
-7,63,6
-8,63,5
-8,64,5
-8,63,4
-7,63,4
-8,63,4
-8,63,5
-9,62,5
-9,63,6
-10,63,6
-10,63,5
-11,63,5
-10,62,5
-11,64,5
-11,64,5
-10,67,6
-9,64,5
-10,63,3
-9,60,3
-8,61,3
-8,61,3
-12,63,4
-13,64,6
-14,64,6
-14,64,5
-12,64,5
-11,63,4
-10,62,4
-11,63,4
-11,63,4
-12,63,3
-12,63,4
-11,62,4
-12,62,5
-13,63,5
-13,63,5
-13,63,5
-12,62,4
-11,63,3
-11,63,3
-10,62,4
-10,62,5
-13,63,6
-14,63,6
-14,63,5
-12,62,4
-12,62,3
-12,62,3
-12,63,4
-12,63,4
-12,63,5
-12,63,5
-12,63,5
-12,63,4
-12,63,4
-13,63,4
-12,63,4
-12,63,4
-12,63,5
-11,63,4
-12,63,5
-11,63,4
-12,63,5
-13,63,4
-13,63,5
-13,63,5
-13,62,4
-12,62,4
-12,63,5
-12,63,4
-12,63,5
-12,63,4
-12,63,4
-11,63,4
-12,64,3
-13,64,5
-12,63,5
-12,62,5
-13,62,5
-14,62,5
-14,63,5
-14,63,4
-14,63,4
-12,62,4
-11,62,3
-12,62,4
-12,62,4
-12,63,5
-13,63,5
-13,63,4
-13,62,4
-13,62,4
-13,63,4
-13,63,4
-13,64,5
-13,63,5
-12,63,5
-12,63,5
-12,63,4
-12,62,4
-12,62,4
-13,62,4
-13,63,4
-13,63,4
-13,63,5
-13,62,4
-13,62,4
-12,63,5
-12,63,4
-12,63,4
-12,64,4
-12,63,4
-11,63,4
-12,63,4
-12,63,4
-12,63,4
-12,62,4
-12,62,4
-13,62,4
-14,63,5
-14,63,5
-14,63,5
-14,63,5
-14,63,4
-13,63,4
-12,63,4
-12,63,4
-12,63,4
-12,63,4
-12,63,4
-12,63,4
-11,63,4
-12,63,4
-13,63,4
-13,63,4
-14,63,5
-13,62,5
-12,62,4
-13,63,4
-13,62,4
-13,62,4
-14,62,5
-14,63,4
-14,63,4
-14,63,4
-14,62,4
-14,62,4
-13,62,4
-13,63,4
-13,63,4
-13,63,4
-13,63,4
-13,63,4
-14,63,4
-14,63,4
-13,63,4
-13,63,4
-13,63,4
-13,62,4
-13,62,4
-14,63,4
-14,63,4
-14,63,4
-13,63,4
-13,63,4
-13,62,4
-14,63,4
-13,63,4
-14,63,4
-13,63,4
-13,63,4
-13,63,4
-14,63,4
-14,62,4
-13,62,4
-13,62,5
-14,63,5
-14,63,5
-14,63,4
-14,62,5
-14,62,4
-13,63,4
-13,63,4
-13,63,4
-14,62,4
-13,62,4
-13,62,4
-14,63,4
-14,63,5
-13,62,5
-14,62,4
-14,63,4
-14,63,4
-13,62,4
-12,62,4
-13,62,4
-14,63,4
-14,63,4
-14,63,4
-14,62,4
-14,63,4
-13,63,4
-13,63,4
-13,63,4
-13,63,4
-14,62,4
-14,62,4
-14,63,5
-13,62,4
-14,62,4
-14,63,4
-14,63,4
-13,62,4
-13,62,4
-13,63,5
-14,63,5
-14,63,4
-14,63,4
-14,63,4
-14,63,4
-13,63,4
-13,63,4
-13,62,5
-14,63,4
-14,63,4
-14,62,4
-14,63,4
-14,62,5
-13,62,4
-14,63,4
-14,63,4
-14,62,5
-13,63,5
-13,62,4
-13,62,4
-13,63,4
-14,63,5
-14,63,5
-14,63,5
-13,63,4
-13,63,4
-13,63,4
-13,63,4
-13,63,4
-13,63,5
-14,63,4
-13,62,5
-13,63,4
-13,63,5
-13,63,4
-14,63,4
-13,62,4
-13,62,4
-13,63,5
-14,62,4
-13,63,5
-14,63,4
-14,62,5
-13,62,5
-13,63,4
-13,62,4
-13,62,4
-13,62,4
-13,63,5
-14,63,4
-14,63,4
-13,62,5
-13,62,5
-14,63,5
-14,63,5
-14,63,4
-13,62,4
-12,62,4
-12,62,4
-12,62,5
-14,63,5
-14,63,5
-14,63,4
-14,62,4
-13,62,4
-13,62,4
-13,63,4
-14,63,5
-14,63,5
-13,62,5
-14,62,4
-14,62,4
-14,62,5
-14,63,5
-14,63,5
-13,62,5
-13,62,4
-13,62,4
-14,63,5
-14,63,5
-14,63,5
-14,63,5
-14,62,5
-13,62,4
-13,62,4
-13,63,4
-14,62,4
-14,62,5
-14,63,4
-14,62,4
-13,62,4
-13,62,4
-14,62,4
-14,63,4
-15,63,5
-15,63,4
-14,62,5
-13,62,5
-13,62,4
-13,62,4
-13,62,4
-13,62,4
-13,63,5
-13,63,5
-14,63,5
-14,62,5
-14,62,4
-14,63,4
-13,62,4
-13,62,4
-13,63,4
-13,62,4
-13,62,4
-14,63,5
-14,62,5
-14,62,4
-14,62,4
-14,62,4
-14,63,5
-14,63,5
-14,62,4
-14,62,5
-14,62,4
-13,63,4
-13,63,4
-14,63,5
-14,63,5
-14,62,5
-14,62,5
-14,63,4
-14,62,4
-14,63,4
-14,62,4
-13,62,5
-13,63,5
-13,62,4
-13,62,4
-14,62,5
-14,62,5
-14,62,5
-14,63,5
-14,62,4
-13,62,4
-13,63,4
-13,62,4
-13,63,5
-14,63,4
-14,63,4
-13,63,4
-13,62,5
-14,63,4
-14,63,4
-13,63,4
-13,62,4
-13,62,5
-13,63,5
-14,63,5
-14,63,5
-14,63,5
-14,63,4
-13,62,4
-13,63,5
-13,63,4
-13,62,4
-14,63,4
-14,62,4
-14,63,4
-14,62,4
-13,62,5
-13,63,4
-14,63,4
-14,62,4
-13,63,4
-13,62,4
-13,63,5
-14,63,4
-14,63,5
-14,62,4
-14,62,4
-13,62,4
-13,63,4
-13,63,4
-13,63,4
-14,63,5
-14,62,4
-14,63,5
-14,62,5
-13,62,5
-13,62,4
-14,63,4
-14,62,5
-13,63,4
-13,62,4
-14,63,4
-14,63,5
-14,63,5
-14,62,4
-14,63,5
-13,63,5
-13,62,4
-13,63,5
-13,62,5
-14,63,4
-14,63,4
-14,63,4
-14,62,5
-13,62,5
-13,63,5
-14,63,4
-14,63,4
-13,62,4
-13,62,5
-13,62,4
-14,63,4
-14,63,5
-14,62,5
-14,62,4
-13,63,4
-14,62,5
-13,63,4
-13,62,5
-13,63,4
-13,63,4
-13,63,4
-13,63,4
-13,62,5
-13,63,5
-13,62,5
-13,63,4
-14,62,5
-13,62,4
-13,62,5
-13,63,4
-13,63,5
-14,63,5
-14,62,5
-14,62,4
-13,62,4
-13,63,4
-13,62,4
-13,63,5
-13,62,5
-14,62,4
-14,62,4
-14,63,4
-13,62,5
-13,63,5
-13,63,4
-13,63,4
-14,62,4
-13,63,5
-13,63,5
-13,63,4
-14,63,5
-14,62,5
-14,63,5
-14,62,4
-13,62,4
-13,63,4
-13,63,4
-13,63,4
-13,63,4
-13,63,4
-13,62,4
-14,63,4
-13,63,5
-13,63,5
-13,63,5
-13,62,4
-14,63,4
-13,63,4
-13,62,4
-13,62,5
-13,63,4
-13,62,5
-13,63,5
-13,62,5
-13,63,5
-13,63,4
-13,63,4
-13,62,5
-13,62,5
-13,63,4
-13,63,4
-14,63,5
-14,63,5
-13,62,5
-13,63,4
-14,63,4
-14,63,4
-13,63,5
-13,62,5
-13,62,5
-14,63,5
-14,63,5
-14,63,5
-14,62,5
-13,62,4
-13,62,4
-13,63,4
-13,63,4
-13,63,4
-13,62,4
-14,63,5
-14,63,5
-13,62,5
-13,63,4
-14,63,4
-14,62,5
-13,62,5
-13,62,5
-13,63,4
-13,62,5
-14,62,5
-14,63,5
-14,63,4
-14,63,5
-13,63,4
-13,63,5
-13,62,4
-14,63,5
-14,63,4
-14,63,4
-13,62,5
-13,62,5
-13,62,5
-14,63,4
-14,62,4
-13,62,4
-13,62,4
-13,62,5
-13,62,5
-14,62,5
-14,63,5
-14,62,4
-13,62,5
-13,62,5
-13,63,4
-13,62,5
-14,63,5
-14,63,4
-14,63,5
-13,63,5
-13,63,5
-13,62,5
-14,63,5
-14,62,4
-13,63,4
-13,62,5
-13,63,5
-13,63,5
-13,63,5
-14,62,5
-13,62,4
-13,63,4
-13,63,5
-13,62,4
-13,62,4
-13,63,5
-13,63,4
-13,63,5
-13,62,5
-13,63,5
-13,63,5
-13,63,4
-13,63,4
-13,62,4
-13,62,5
-14,62,5
-13,63,5
-14,63,5
-14,63,5
-14,63,5
-13,62,4
-13,62,5
-13,62,5
-13,62,4
-13,62,5
-14,63,4
-14,63,5
-14,63,5
-13,62,5
-13,62,5
-13,63,4
-14,63,4
-13,62,4
-13,62,5
-13,62,5
-14,63,5
-14,62,5
-14,62,5
-14,63,5
-14,62,5
-13,63,4
-13,63,5
-13,62,4
-13,63,5
-13,62,4
-13,63,4
-13,62,5
-13,62,5
-13,62,5
-13,63,4
-14,63,5
-14,63,5
-13,62,4
-13,63,5
-13,63,5
-14,62,4
-14,63,5
-14,63,5
-14,62,5
-13,63,4
-13,63,5
-13,62,4
-13,63,5
-13,63,4
-14,63,5
-13,62,5
-13,62,5
-13,63,4
-14,63,5
-14,63,5
-13,62,5
-13,62,5
-13,62,5
-14,63,4
-14,63,5
-14,62,5
-14,63,4
-13,63,5
-13,63,4
-13,62,5
-13,62,4
-13,63,5
-14,63,4
-13,63,5
-13,63,5
-13,63,5
-13,63,4
-14,63,4
-14,63,5
-13,62,5
-14,62,4
-13,63,5
-13,63,5
-14,63,5
-13,63,5
-13,63,4
-13,63,5
-13,63,4
-13,62,5
-13,62,4
-13,63,5
-13,63,5
-13,63,5
-13,62,5
-13,62,5
-13,62,4
-13,63,4
-13,63,4
-13,63,4
-13,62,4
-13,63,5
-13,63,5
-13,63,5
-13,62,5
-14,62,5
-14,62,4
-14,63,4
-13,63,5
-13,63,5
-13,63,4
-13,63,4
-13,63,4
-13,63,4
-13,63,5
-13,62,4
-14,62,4
-14,62,5
-14,62,5
-14,62,5
-14,63,5
-13,63,4
-13,63,4
-12,62,5
-12,62,4
-13,62,4
-14,63,5
-14,63,4
-14,62,3
-13,63,5
-13,63,5
-15,63,5
-13,62,5
-13,62,4
-13,62,3
-14,63,4
-15,62,4
-14,62,4
-14,63,5
-14,62,5
-15,63,4
-14,63,4
-13,63,4
-13,63,4
-13,63,4
-13,63,4
-12,62,4
-14,63,4
-14,63,4
-14,62,4
-14,62,4
-14,62,4
-15,63,5
-15,63,4
-15,62,4
-14,62,5
-14,62,4
-14,62,4
-13,62,4
-13,63,4
-14,63,4
-14,63,4
-14,63,5
-14,63,4
-14,63,4
-13,63,4
-13,62,4
-13,62,4
-14,62,4
-14,62,5
-15,63,4
-15,63,4
-14,63,5
-13,62,5
-12,62,4
-12,62,3
-11,62,4
-14,62,5
-14,62,5
-15,62,5
-16,63,4
-17,64,4
-15,63,4
-12,62,5
-11,62,5
-11,62,5
-12,64,5
-12,63,4
-13,63,3
-13,62,4
-14,62,4
-15,62,5
-15,62,5
-15,61,6
-15,62,4
-15,63,4
-13,62,3
-13,62,4
-13,62,4
-13,63,4
-14,63,5
-14,63,5
-14,63,5
-14,63,5
-14,63,5
-13,63,4
-12,62,4
-12,62,4
-12,62,4
-12,63,4
-12,63,4
-12,63,4
-13,62,5
-13,63,5
-14,63,5
-14,63,5
-13,63,4
-12,62,4
-11,61,4
-12,62,4
-14,63,5
-15,63,5
-15,63,5
-14,63,4
-13,62,4
-13,63,4
-13,63,4
-13,63,4
-13,63,4
-12,62,3
-12,62,4
-13,62,4
-14,63,5
-15,63,5
-15,63,5
-14,62,5
-14,62,4
-13,62,4
-13,62,4
-13,63,4
-13,63,4
-13,63,4
-13,62,5
-13,62,5
-14,63,4
-14,64,4
-14,63,4
-12,62,4
-11,62,5
-12,63,5
-14,63,4
-14,63,5
-14,63,5
-14,63,4
-14,63,4
-13,62,4
-13,62,4
-13,62,4
-13,63,4
-14,63,4
-14,63,4
-14,63,4
-14,62,4
-14,62,4
-14,63,4
-13,63,4
-13,63,4
-13,63,4
-14,62,4
-14,63,5
-14,63,5
-14,62,4
-14,63,4
-13,63,4
-13,63,4
-13,63,4
-13,63,5
-13,62,4
-14,63,4
-13,62,5
-13,62,5
-14,62,4
-14,63,4
-14,62,4
-13,62,4
-13,63,4
-14,63,5
-14,63,5
-14,63,5
-14,62,4
-14,62,4
-13,62,4
-13,62,4
-13,62,5
-13,62,5
-14,63,5
-14,63,4
-14,63,4
-13,63,5
-13,62,5
-12,63,5
-13,63,4
-13,63,4
-13,62,4
-13,62,5
-13,62,4
-14,62,5
-14,62,5
-14,63,5
-13,62,4
-13,62,4
-13,62,4
-13,62,4
-13,63,5
-13,63,5
-13,62,4
-14,63,4
-14,63,5
-13,63,5
-13,63,4
-14,63,4
-13,63,5
-13,63,4
-13,63,4
-13,62,5
-13,63,4
-14,62,4
-14,63,4
-14,63,4
-13,63,5
-13,62,4
-13,63,4
-13,62,4
-13,62,4
-13,63,4
-13,63,4
-13,63,5
-13,62,5
-14,63,4
-14,63,4
-14,63,4
-13,62,4
-13,62,4
-13,63,5
-14,63,4
-14,62,4
-14,62,4
-14,63,5
-13,63,4
-13,62,4
-12,62,4
-14,63,4
-14,63,4
-14,62,4
-14,63,5
-14,63,5
-14,63,5
-14,63,4
-13,63,4
-13,62,4
-12,63,4
-13,63,5
-14,63,5
-14,63,5
-14,63,5
-14,62,4
-13,62,4
-13,62,4
-13,62,4
-13,63,4
-13,63,5
-14,63,4
-14,63,4
-13,63,5
-13,63,4
-14,63,4
-14,63,4
-13,62,4
-13,63,4
-13,63,4
-13,62,4
-14,63,5
-14,62,5
-14,63,4
-14,63,5
-13,63,4
-13,62,4
-13,62,4
-13,63,4
-14,62,4
-14,62,4
-14,63,5
-13,63,5
-13,62,5
-14,63,4
-14,62,4
-13,62,4
-12,62,5
-13,62,4
-13,63,4
-14,62,5
-14,63,5
-14,63,5
-13,62,4
-13,62,4
-13,63,4
-13,62,5
-13,62,5
-13,62,4
-13,63,4
-13,62,5
-13,63,5
-13,63,4
-14,63,4
-14,63,5
-13,63,5
-13,62,5
-13,63,5
-13,63,4
-13,63,5
-13,62,5
-13,63,5
-13,62,4
-13,63,4
-13,63,4
-13,63,4
-13,62,5
-14,63,5
-14,63,5
-14,62,5
-13,63,5
-14,63,4
-13,63,4
-13,63,4
-13,63,4
-13,63,4
-13,63,5
-14,62,5
-14,62,5
-14,63,5
-14,62,4
-13,62,4
-13,62,4
-13,63,4
-13,63,4
-13,63,4
-13,63,5
-13,63,4
-14,62,4
-14,63,4
-14,63,4
-13,63,4
-13,63,4
-13,63,4
-13,63,5
-13,63,5
-14,63,5
-14,63,4
-13,62,5
-13,63,4
-13,63,5
-13,62,5
-14,63,4
-14,63,4
-14,63,5
-13,63,5
-13,63,4
-13,63,4
-14,63,4
-13,62,4
-13,62,5
-13,63,4
-13,63,5
-13,63,5
-14,63,5
-14,63,5
-13,63,4
-13,63,4
-13,63,4
-13,62,4
-13,63,4
-14,63,4
-14,62,5
-13,62,5
-13,62,4
-13,63,4
-14,63,4
-13,62,5
-13,63,5
-13,63,5
-13,63,4
-13,63,5
-14,63,5
-14,63,4
-13,62,5
-13,63,5
-13,63,4
-13,62,5
-13,62,5
-13,63,4
-14,63,5
-13,63,5
-13,62,5
-13,63,5
-13,63,4
-14,62,4
-13,63,5
-13,62,5
-13,63,5
-13,63,5
-13,63,5
-13,63,5
-13,63,5
-13,63,5
-12,63,5
-13,62,4
-13,63,5
-13,63,4
-13,63,4
-13,63,4
-13,63,5
-12,63,5
-13,63,4
-13,63,4
-13,63,4
-13,62,4
-13,62,5
-13,62,5
-14,63,5
-14,63,5
-14,63,5
-13,63,4
-13,63,4
-13,63,4
-13,62,4
-13,62,5
-13,63,4
-14,63,5
-14,62,5
-13,62,5
-13,63,4
-14,63,4
-13,62,4
-13,63,5
-13,62,5
-13,63,4
-13,63,5
-14,62,4
-14,63,5
-13,62,5
-13,62,4
-13,62,5
-13,63,5
-13,63,4
-13,62,4
-13,62,4
-13,63,5
-13,63,5
-13,63,4
-14,63,5
-14,62,5
-13,62,4
-13,62,4
-13,63,5
-13,63,5
-13,63,5
-14,63,5
-14,62,5
-13,62,4
-13,63,4
-13,63,4
-13,62,4
-13,63,4
-13,63,5
-14,63,5
-13,62,5
-13,62,5
-13,63,4
-14,63,5
-14,63,5
-12,63,5
-13,63,5
-13,63,4
-14,62,5
-13,63,5
-14,63,5
-13,62,5
-13,63,4
-13,63,4
-13,63,4
-13,63,4
-13,63,5
-13,63,5
-13,63,5
-13,63,5
-13,62,5
-13,63,4
-13,62,4
-14,63,5
-13,63,4
-13,62,4
-12,62,5
-13,63,5
-13,63,5
-14,62,5
-13,63,4
-13,63,5
-13,63,4
-13,63,4
-13,63,4
-13,62,5
-13,63,5
-13,63,5
-13,63,5
-13,62,5
-13,63,5
-13,63,4
-13,63,4
-13,62,4
-13,63,4
-13,63,5
-13,62,5
-14,63,4
-14,63,5
-14,63,5
-13,62,4
-13,62,4
-13,63,5
-13,62,5
-13,63,4
-13,62,4
-13,63,5
-13,62,4
-14,63,5
-13,63,5
-13,63,5
-13,63,4
-14,63,4
-13,63,4
-12,63,5
-13,63,5
-13,63,5
-13,63,5
-14,63,5
-14,63,5
-13,63,5
-12,63,4
-13,63,4
-13,63,4
-13,63,5
-13,63,5
-13,63,4
-13,62,4
-13,63,5
-13,62,5
-13,63,5
-13,63,5
-14,63,4
-14,62,4
-13,62,4
-12,62,4
-12,63,5
-13,63,5
-14,62,5
-14,62,5
-14,62,4
-13,62,5
-13,63,4
-13,63,5
-13,63,5
-13,62,5
-13,63,4
-14,63,4
-13,63,4
-13,63,4
-13,63,5
-13,62,5
-13,63,5
-14,63,4
-14,63,4
-13,62,4
-13,63,5
-13,63,5
-13,63,5
-13,62,5
-14,63,5
-14,63,5
-13,63,5
-13,62,5
-13,62,5
-13,63,4
-13,63,5
-13,63,4
-13,63,5
-13,63,4
-13,63,4
-13,63,4
-13,63,5
-13,63,4
-13,63,4
-13,63,4
-13,63,5
-13,62,5
-13,63,5
-13,63,5
-13,63,4
-13,63,4
-13,63,4
-13,63,4
-13,63,4
-13,63,5
-13,62,4
-13,62,4
-13,63,5
-13,63,4
-13,63,4
-13,63,4
-12,63,5
-13,63,5
-14,63,4
-13,63,4
-13,63,4
-13,63,5
-13,63,4
-13,62,4
-14,63,5
-14,63,4
-14,63,5
-13,63,5
-13,63,4
-13,63,4
-13,63,5
-13,63,4
-13,63,5
-13,63,4
-13,63,5
-13,63,5
-13,63,4
-13,63,4
-13,63,4
-13,62,4
-13,63,5
-13,63,5
-13,62,4
-13,62,4
-14,63,5
-14,63,5
-13,62,5
-13,62,5
-13,63,4
-13,63,4
-13,62,5
-13,63,4
-13,63,4
-13,63,4
-13,63,5
-12,62,5
-13,62,4
-14,63,4
-14,63,4
-13,63,4
-13,63,5
-13,63,5
-13,63,5
-13,63,4
-13,62,4
-13,63,5
-13,63,4
-13,62,4
-13,63,5
-13,62,5
-13,63,5
-13,63,4
-13,63,5
-13,63,5
-13,62,5
-13,63,4
-14,63,4
-14,63,4
-12,63,5
-13,62,5
-13,63,4
-13,62,5
-13,62,5
-14,62,5
-14,63,5
-13,63,5
-13,63,4
-12,63,4
-12,63,4
-13,63,5
-14,63,5
-14,63,5
-13,63,5
-12,63,4
-12,62,4
-12,63,4
-12,63,4
-12,63,5
-13,63,5
-13,63,6
-13,63,6
-13,63,5
-13,63,4
-13,62,4
-13,62,4
-12,62,4
-12,63,5
-13,63,5
-10,64,6
-16,62,5
-13,62,4
-16,63,4
-16,62,3
-15,61,3
-15,62,3
-15,63,3
-14,63,4
-14,63,5
-14,63,4
-14,63,4
-14,63,3
-16,62,2
-16,61,1
-16,61,-1
-16,62,0
-16,62,-1
-17,62,-1
-17,63,0
-17,61,0
-17,61,0
-18,61,-1
-17,61,0
-18,61,0
-18,62,0
-16,62,1
-15,62,2
-17,62,2
-16,62,2
-15,61,2
-16,61,1
-16,61,0
-16,61,0
-16,62,0
-16,62,0
-15,62,1
-16,63,2
-16,62,2
-16,62,3
-16,62,2
-16,62,1
-16,62,2
-17,62,2
-17,62,2
-16,61,3
-16,62,2
-16,62,2
-16,63,2
-16,62,2
-15,62,2
-16,62,2
-16,62,2
-16,62,2
-16,62,2
-16,62,1
-16,63,2
-16,62,2
-15,62,2
-15,62,2
-15,63,2
-15,62,2
-16,62,3
-15,62,3
-16,62,3
-16,62,2
-16,62,3
-16,62,3
-16,61,3
-16,62,2
-16,62,2
-16,62,2
-15,62,2
-15,62,2
-15,63,2
-15,62,2
-15,62,3
-15,62,3
-16,62,3
-16,62,2
-16,62,3
-16,62,2
-16,62,3
-16,62,2
-16,62,3
-16,62,2
-16,62,3
-16,62,3
-16,62,2
-16,62,2
-16,62,2
-16,62,2
-16,62,2
-16,62,3
-16,62,3
-16,63,3
-17,63,3
-17,63,3
-16,62,2
-16,62,2
-16,62,2
-16,62,2
-16,62,2
-16,62,2
-16,62,3
-16,62,3
-16,62,3
-16,62,2
-16,62,2
-16,62,2
-16,63,2
-16,62,3
-14,60,1
-15,62,1
-17,64,2
-18,64,3
-17,62,3
-16,61,3
-16,62,3
-17,62,2
-17,61,2
-16,62,2
-16,61,2
-16,61,2
-16,61,2
-16,62,1
-16,63,1
-17,64,2
-17,63,2
-16,61,3
-16,61,3
-17,61,2
-17,62,2
-17,62,2
-18,62,2
-17,62,2
-16,62,2
-16,62,2
-16,62,2
-16,62,2
-16,62,2
-16,62,2
-16,62,2
-17,62,2
-17,62,2
-17,62,2
-17,62,2
-16,62,3
-17,62,3
-17,62,2
-17,62,2
-16,62,2
-17,62,2
-17,62,2
-17,62,2
-17,62,3
-16,62,2
-16,62,2
-17,62,2
-17,62,2
-16,62,2
-16,62,2
-16,62,2
-16,62,2
-16,62,2
-17,62,2
-17,62,2
-17,62,3
-17,62,2
-16,62,2
-17,62,2
-16,62,2
-16,62,2
-16,62,2
-16,62,2
-17,62,2
-17,62,3
-17,62,2
-16,62,2
-17,62,2
-17,62,2
-16,62,2
-16,62,3
-16,62,2
-16,62,2
-16,62,2
-16,62,2
-17,62,2
-16,62,2
-16,62,2
-16,62,2
-16,62,2
-16,62,2
-16,62,3
-16,62,2
-16,62,2
-16,62,2
-16,62,3
-16,62,3
-16,62,2
-17,62,2
-17,62,2
-16,62,2
-16,62,2
-16,62,2
-16,62,2
-16,62,3
-17,62,2
-17,62,2
-16,62,2
-16,62,2
-16,62,2
-16,62,2
-16,62,3
-16,62,3
-16,62,2
-16,62,2
-16,62,3
-16,62,3
-16,62,3
-16,62,2
-16,62,2
-17,62,2
-16,62,2
-16,62,2
-16,62,2
-16,62,3
-16,62,2
-17,62,2
-16,62,2
-16,62,2
-16,62,2
-16,62,2
-16,62,2
-16,62,2
-16,62,3
-16,62,2
-16,62,2
-16,62,3
-16,62,3
-16,62,2
-17,62,2
-17,62,2
-16,62,2
-16,62,2
-16,62,2
-16,62,2
-16,62,2
-16,62,2
-16,62,2
-16,62,2
-16,62,2
-16,62,2
-16,62,2
-16,62,2
-16,62,2
-16,62,2
-16,62,2
-16,62,3
-16,62,3
-16,62,3
-17,62,2
-16,62,2
-16,62,2
-16,62,3
-16,62,3
-16,62,3
-16,62,3
-17,62,2
-16,62,2
-16,62,2
-16,62,2
-16,62,2
-16,62,2
-16,62,2
-16,62,2
-17,63,3
-16,63,3
-16,62,3
-16,62,3
-16,62,2
-16,62,2
-16,62,2
-16,62,2
-16,61,2
-16,62,3
-15,63,3
-16,63,3
-16,62,3
-16,62,3
-16,62,2
-16,62,2
-16,62,2
-16,62,2
-16,62,3
-16,63,3
-16,62,3
-15,62,3
-16,62,3
-16,62,2
-17,62,2
-16,62,2
-16,62,3
-15,62,3
-16,62,2
-16,62,2
-16,62,2
-17,62,3
-16,62,3
-16,62,2
-16,62,2
-16,62,2
-16,62,2
-16,62,2
-16,62,3
-16,62,2
-15,62,2
-16,62,3
-17,62,2
-17,62,2
-16,62,3
-16,62,2
-16,62,3
-16,62,3
-16,62,3
-16,62,2
-16,62,2
-16,62,2
-16,62,2
-16,62,2
-16,62,3
-16,62,3
-16,62,2
-16,62,3
-16,61,2
-16,62,2
-17,63,3
-17,63,3
-16,62,3
-16,62,3
-15,62,2
-16,62,2
-16,62,2
-16,62,2
-16,62,2
-16,62,2
-16,62,2
-16,62,2
-16,62,3
-16,62,2
-16,62,2
-16,62,2
-16,62,3
-16,62,2
-16,62,2
-17,62,2
-16,62,2
-16,62,2
-16,62,2
-16,62,3
-16,62,3
-17,62,2
-16,62,2
-16,62,2
-16,62,2
-16,62,2
-16,62,2
-16,62,2
-16,62,2
-16,62,2
-16,62,3
-16,62,2
-16,62,3
-17,62,2
-16,62,2
-16,62,2
-15,62,2
-16,62,3
-16,62,3
-17,62,2
-17,62,2
-17,62,2
-16,62,2
-16,62,2
-16,62,3
-16,63,3
-16,62,3
-16,62,2
-16,62,2
-16,62,2
-16,62,2
-16,62,2
-17,62,3
-16,62,3
-16,62,3
-16,62,3
-16,62,2
-17,62,2
-17,62,2
-17,62,2
-16,62,2
-16,62,3
-16,62,2
-16,62,2
-16,62,2
-16,62,2
-17,62,3
-16,62,2
-16,62,3
-16,62,3
-17,62,2
-17,62,2
-16,62,2
-16,62,2
-16,62,2
-16,62,2
-16,62,2
-17,62,2
-16,62,2
-16,62,2
-16,62,2
-16,62,3
-16,62,3
-16,62,2
-16,62,2
-16,62,2
-16,62,2
-16,63,3
-17,62,3
-17,62,3
-16,62,2
-16,62,2
-16,62,2
-16,62,2
-16,62,2
-16,62,3
-16,62,2
-16,62,2
-16,62,2
-16,62,2
-16,62,2
-16,62,3
-16,62,2
-16,62,2
-16,62,3
-16,62,2
-16,62,2
-17,62,2
-17,62,2
-16,62,2
-16,62,3
-16,62,2
-16,62,2
-16,62,3
-16,62,2
-17,62,2
-16,62,3
-16,62,2
-16,62,2
-16,62,3
-16,62,2
-16,62,2
-16,62,3
-16,62,3
-16,62,2
-16,62,2
-16,62,2
-17,62,2
-16,62,2
-16,62,2
-16,62,3
-16,62,2
-16,62,3
-16,62,3
-17,62,2
-16,62,2
-16,62,2
-16,62,2
-16,62,2
-16,62,2
-16,62,3
-16,62,2
-16,62,2
-16,62,2
-16,62,2
-17,62,2
-17,62,2
-17,62,2
-16,62,2
-16,62,3
-16,62,2
-16,62,3
-17,62,3
-17,62,2
-16,62,3
-16,62,2
-16,62,2
-16,62,2
-16,62,2
-16,62,2
-16,62,2
-16,62,2
-16,62,2
-16,62,3
-16,62,2
-16,62,3
-17,62,2
-16,62,2
-16,62,2
-16,62,2
-16,62,2
-16,62,2
-16,62,3
-17,62,3
-16,62,3
-16,62,2
-16,62,2
-16,62,2
-16,62,2
-16,62,2
-16,62,2
-16,62,2
-16,62,3
-16,62,3
-16,62,3
-16,62,2
-17,62,2
-17,62,2
-16,62,2
-16,62,2
-16,62,2
-16,62,2
-16,62,3
-17,62,2
-17,62,2
-16,62,2
-16,62,2
-16,62,2
-16,62,3
-16,62,2
-16,62,3
-16,62,2
-16,62,3
-16,62,3
-16,62,2
-16,62,2
-17,62,2
-16,62,2
-16,62,2
-16,62,2
-16,62,3
-16,62,2
-16,62,2
-16,62,2
-16,62,2
-16,62,2
-16,62,2
-16,62,2
-16,62,3
-16,62,2
-16,62,2
-16,62,2
-16,62,2
-16,62,3
-16,62,2
-17,62,2
-17,62,2
-16,62,2
-16,62,2
-16,62,2
-16,62,3
-16,62,2
-17,62,2
-17,62,3
-16,62,2
-16,62,2
-16,62,2
-16,62,2
-16,62,2
-16,62,2
-16,62,2
-16,62,2
-16,62,3
-16,62,2
-16,62,2
-17,62,2
-17,62,3
-16,62,2
-16,62,3
-16,62,2
-16,62,2
-16,62,2
-16,62,2
-16,62,2
-16,62,2
-16,62,2
-16,62,2
-16,62,2
-16,62,2
-16,62,2
-16,62,2
-16,62,3
-16,62,2
-16,62,3
-16,62,2
-17,62,2
-16,62,2
-16,62,2
-16,62,3
-16,62,3
-16,62,2
-16,62,2
-16,62,2
-16,62,2
-16,62,2
-16,62,2
-16,62,2
-16,62,3
-17,62,2
-16,62,2
-16,62,2
-16,62,3
-16,62,2
-16,62,2
-17,62,2
-16,62,2
-16,62,3
-16,62,2
-16,62,2
-16,62,3
-16,62,3
-16,62,2
-16,62,2
-16,62,2
-16,62,2
-16,62,2
-16,62,2
-16,62,2
-16,62,2
-16,62,3
-16,62,2
-16,62,2
-17,62,2
-17,62,2
-16,62,2
-16,62,2
-16,62,2
-16,62,2
-16,62,3
-16,62,2
-17,62,2
-16,62,2
-16,62,2
-16,61,2
-16,62,2
-16,62,2
-16,62,2
-16,62,2
-16,62,3
-16,62,3
-16,62,2
-17,62,2
-17,62,2
-16,62,2
-15,62,2
-16,62,2
-16,62,2
-16,62,3
-17,62,2
-16,62,2
-16,62,2
-16,62,2
-16,62,2
-16,62,2
-16,62,3
-16,62,2
-16,62,2
-16,62,2
-16,62,2
-16,62,2
-17,62,2
-16,62,2
-16,62,2
-16,62,3
-16,62,2
-16,62,2
-16,62,2
-16,62,2
-16,62,2
-16,62,2
-16,62,2
-16,62,2
-16,62,2
-16,62,2
-16,62,2
-16,62,2
-16,62,2
-16,62,2
-16,62,2
-16,62,2
-16,62,2
-16,62,2
-16,62,2
-16,62,3
-16,62,2
-16,62,2
-16,62,2
-16,62,2
-16,62,2
-16,62,2
-16,62,2
-16,62,2
-16,62,2
-16,62,2
-16,62,2
-16,62,2
-16,62,3
-16,62,3
-17,62,2
-17,62,2
-16,62,3
-16,62,3
-16,62,2
-16,62,3
-16,62,2
-17,62,2
-17,62,2
-16,62,2
-16,62,2
-16,62,2
-16,62,2
-16,62,3
-16,62,2
-16,62,2
-15,62,3
-16,62,3
-16,62,2
-17,62,2
-16,62,2
-16,62,2
-16,62,2
-16,62,2
-16,62,2
-16,62,2
-17,62,2
-16,62,2
-16,62,2
-16,62,2
-16,62,2
-16,62,2
-16,62,2
-17,62,2
-16,62,3
-16,62,3
-16,62,2
-17,62,2
-17,62,2
-16,62,2
-16,62,2
-16,62,2
-16,62,2
-16,62,3
-17,62,2
-17,62,2
-16,62,3
-16,62,2
-16,62,2
-16,62,2
-16,62,2
-16,62,2
-16,62,3
-16,62,2
-16,62,2
-16,62,2
-17,62,2
-16,62,2
-16,62,2
-16,62,3
-16,62,2
-16,62,2
-16,62,2
-16,62,2
-16,62,2
-16,62,2
-16,62,2
-16,62,2
-16,62,3
-16,62,2
-16,62,2
-16,62,2
-16,62,2
-16,62,2
-16,62,2
-16,63,2
-16,62,2
-16,62,2
-16,62,3
-16,62,3
-16,62,3
-17,62,3
-17,62,3
-16,62,2
-16,62,2
-16,62,2
-16,62,2
-15,62,2
-15,62,2
-16,62,3
-17,62,3
-16,62,3
-16,62,2
-17,62,2
-17,62,2
-16,62,2
-15,62,2
-15,62,3
-16,62,3
-16,62,2
-16,62,2
-16,62,2
-16,62,3
-16,62,2
-16,62,2
-15,62,2
-16,62,2
-16,62,2
-16,62,3
-16,62,3
-15,62,3
-16,62,2
-16,62,2
-16,62,3
-16,62,3
-16,62,3
-16,62,2
-16,62,2
-16,62,3
-16,62,3
-16,62,2
-16,62,2
-16,62,2
-16,62,2
-16,62,2
-16,62,2
-16,63,2
-16,62,3
-16,62,3
-16,62,3
-16,62,2
-16,62,2
-16,62,2
-16,62,2
-16,62,3
-16,62,3
-16,62,3
-17,62,2
-17,62,2
-16,62,2
-16,62,2
-16,62,2
-16,62,2
-16,62,3
-16,62,2
-16,62,2
-16,62,2
-16,62,2
-16,62,2
-17,62,2
-17,62,2
-16,62,3
-16,62,3
-16,62,2
-16,62,2
-16,62,2
-16,62,2
-16,62,2
-16,62,2
-16,62,2
-16,62,3
-16,62,3
-16,62,3
-16,62,2
-16,62,2
-16,62,3
-16,62,2
-16,62,2
-16,62,2
-16,62,2
-16,62,2
-16,62,2
-16,62,3
-16,62,3
-16,62,3
-16,62,2
-16,62,2
-16,62,2
-16,62,3
-16,62,2
-16,62,2
-16,62,2
-17,62,2
-16,62,2
-16,62,2
-16,62,2
-16,62,3
-16,62,3
-16,62,2
-17,62,2
-16,62,2
-16,62,2
-16,63,2
-15,62,2
-16,62,3
-16,62,2
-17,62,2
-17,62,2
-17,62,2
-17,61,2
-16,61,1
-16,62,2
-16,62,2
-16,63,2
-16,62,2
-16,61,1
-15,62,2
-17,62,3
-18,62,4
-18,62,2
-16,62,1
-16,62,1
-16,63,0
-16,63,1
-16,63,3
-16,62,3
-16,62,1
-18,61,2
-18,61,2
-18,61,1
-17,61,1
-17,61,1
-17,62,2
-17,62,3
-17,62,3
-17,61,2
-16,62,1
-16,62,2
-16,62,2
-16,62,2
-16,62,1
-16,63,1
-16,62,1
-16,62,2
-17,62,2
-17,62,2
-18,62,2
-18,62,2
-17,62,2
-16,62,2
-16,62,2
-16,62,1
-15,61,1
-15,61,1
-16,62,1
-17,64,1
-16,63,2
-15,63,2
-14,61,3
-17,61,3
-17,62,2
-18,62,1
-17,61,1
-17,61,1
-16,62,1
-15,63,2
-15,62,2
-15,61,3
-16,62,2
-17,62,2
-18,63,2
-17,62,2
-16,62,2
-15,62,1
-15,62,2
-14,62,2
-15,62,2
-17,62,2
-17,62,2
-18,62,2
-18,62,1
-17,62,2
-16,61,2
-15,62,2
-15,63,2
-15,62,2
-15,62,2
-15,63,2
-15,62,2
-16,62,2
-16,62,2
-16,62,2
-16,62,1
-16,62,2
-16,62,2
-16,62,2
-17,62,2
-17,62,2
-17,62,2
-17,62,2
-16,62,2
-16,62,2
-16,62,2
-16,62,2
-16,63,2
-16,62,2
-16,62,2
-16,62,2
-16,62,2
-16,62,2
-16,62,2
-16,62,2
-16,62,2
-16,62,2
-16,62,2
-16,62,2
-17,62,2
-17,62,2
-16,62,2
-16,62,2
-16,62,1
-16,62,2
-16,62,2
-17,62,3
-16,62,3
-16,62,3
-17,62,2
-17,62,2
-17,62,2
-16,62,2
-16,62,2
-16,62,2
-16,62,2
-16,62,2
-16,62,2
-16,62,1
-16,62,1
-16,62,2
-16,62,2
-16,62,2
-16,62,2
-16,62,2
-16,62,2
-16,62,2
-16,62,2
-16,62,2
-16,62,2
-16,62,2
-16,63,2
-16,62,3
-16,62,3
-16,62,2
-17,62,2
-16,62,2
-16,62,2
-16,62,2
-16,62,2
-16,62,2
-16,62,2
-17,62,2
-17,62,2
-16,62,2
-16,62,2
-16,62,2
-16,62,2
-16,62,2
-16,62,2
-16,62,2
-16,62,2
-16,62,2
-17,62,2
-16,62,2
-16,62,2
-16,62,2
-16,62,2
-16,62,2
-17,62,2
-17,62,3
-17,62,2
-16,62,2
-16,62,1
-16,62,1
-15,62,1
-16,62,2
-16,62,3
-16,62,3
-16,62,3
-17,63,2
-17,62,2
-16,62,2
-15,62,2
-16,62,2
-16,62,2
-16,62,2
-17,62,3
-17,62,2
-16,62,2
-16,62,2
-16,62,2
-16,62,2
-16,62,2
-16,62,2
-16,62,2
-16,62,2
-17,62,2
-17,62,2
-16,62,2
-16,62,2
-16,62,3
-16,62,2
-16,62,2
-16,62,2
-16,62,2
-16,62,2
-16,62,2
-16,62,2
-16,62,2
-16,62,2
-16,62,2
-17,62,2
-16,62,2
-16,62,2
-16,62,2
-16,62,2
-16,62,2
-16,62,2
-16,62,2
-16,62,2
-16,62,2
-16,62,2
-16,62,2
-16,62,2
-16,62,2
-16,62,2
-16,62,2
-16,62,2
-16,62,2
-16,62,2
-16,62,2
-16,62,2
-17,62,2
-17,62,2
-16,62,2
-16,62,2
-16,62,2
-16,62,2
-16,62,2
-16,62,2
-16,62,2
-16,62,2
-16,62,2
-16,62,2
-16,62,2
-16,62,2
-16,62,2
-16,62,2
-16,62,3
-16,62,2
-16,62,2
-16,62,2
-16,62,2
-16,62,2
-16,62,2
-16,62,2
-16,62,2
-16,62,3
-16,62,2
-16,62,2
-16,62,2
-16,62,2
-16,62,2
-16,62,2
-16,62,2
-16,62,2
-16,62,2
-16,62,2
-17,62,2
-17,62,2
-16,62,2
-16,62,2
-16,62,2
-16,62,2
-16,62,2
-16,62,2
-16,62,2
-16,62,2
-16,62,2
-16,62,2
-16,62,2
-16,62,2
-16,62,2
-16,62,2
-16,62,2
-16,62,3
-16,62,2
-17,62,2
-16,62,2
-16,62,2
-16,62,2
-16,62,2
-16,62,2
-17,62,2
-17,62,2
-16,62,2
-16,62,2
-16,62,2
-16,62,2
-16,62,2
-16,62,3
-16,62,2
-16,62,2
-16,62,2
-16,62,2
-17,62,2
-16,62,2
-16,62,2
-16,62,2
-16,62,2
-16,62,2
-16,62,2
-16,62,3
-16,62,2
-16,62,2
-16,62,2
-16,62,2
-16,62,2
-16,62,2
-16,62,2
-16,62,2
-16,62,2
-17,62,2
-16,62,2
-16,62,2
-16,62,2
-16,62,2
-16,62,2
-16,62,2
-16,62,2
-17,62,3
-16,62,3
-16,62,2
-16,62,2
-16,62,2
-16,62,2
-16,62,2
-16,62,2
-16,62,3
-17,62,2
-16,62,2
-16,62,2
-16,62,2
-16,62,2
-16,62,2
-16,62,2
-15,62,2
-16,62,2
-16,62,2
-16,62,3
-17,62,3
-17,62,2
-16,62,2
-16,62,2
-16,62,2
-15,62,2
-15,62,2
-16,62,2
-16,62,2
-16,62,2
-16,62,2
-16,62,2
-16,62,2
-16,62,2
-16,62,2
-15,62,2
-16,62,2
-16,62,3
-16,62,3
-16,62,2
-17,62,2
-16,62,2
-16,62,2
-16,62,2
-16,62,2
-16,62,2
-16,62,2
-16,62,2
-16,62,3
-16,62,2
-16,62,2
-17,62,2
-16,62,2
-16,62,2
-16,62,2
-16,62,2
-16,62,2
-16,62,2
-16,62,2
-16,62,2
-16,62,2
-15,62,2
-15,62,2
-16,62,2
-16,62,2
-16,62,2
-16,62,2
-16,62,2
-16,62,2
-17,62,2
-16,62,2
-16,62,2
-16,62,3
-16,62,2
-16,62,2
-16,62,2
-16,62,2
-16,62,2
-15,62,2
-16,62,2
-16,62,2
-16,62,2
-16,62,2
-16,62,2
-16,62,3
-16,62,3
-16,62,2
-16,62,2
-16,62,2
-16,62,2
-16,62,2
-16,62,3
-16,62,2
-17,62,2
-16,62,2
-16,62,2
-16,62,2
-16,62,2
-16,62,2
-16,62,2
-16,63,2
-17,62,2
-16,62,2
-16,62,2
-17,62,2
-16,62,2
-16,62,2
-16,62,2
-16,62,3
-16,62,3
-16,62,2
-16,62,2
-16,62,2
-16,62,2
-16,62,2
-16,62,2
-16,62,2
-16,62,2
-16,62,2
-16,63,3
-17,63,3
-17,63,2
-17,62,2
-16,61,2
-15,61,2
-16,62,2
-16,62,2
-16,62,3
-17,62,3
-17,62,3
-16,62,2
-16,62,2
-16,62,2
-16,62,2
-16,62,2
-16,62,2
-16,62,3
-16,62,2
-16,62,2
-17,62,2
-16,62,2
-16,62,2
-16,62,3
-16,62,2
-16,62,2
-16,62,2
-16,62,2
-16,62,2
-16,62,2
-16,62,2
-16,62,2
-16,62,2
-16,62,2
-16,62,3
-16,62,2
-16,62,2
-17,62,2
-16,62,2
-16,62,3
-16,62,2
-16,62,2
-16,62,3
-16,62,2
-16,62,2
-16,62,2
-16,62,2
-16,62,2
-16,62,2
-16,62,3
-16,62,2
-16,63,3
-16,62,3
-16,62,2
-16,62,2
-17,62,2
-16,62,2
-16,62,2
-16,62,2
-16,62,3
-16,62,3
-16,62,3
-16,62,2
-16,62,2
-16,62,2
-15,62,2
-15,62,2
-16,62,2
-16,62,2
-16,62,3
-16,62,3
-16,62,2
-16,62,2
-16,62,2
-16,62,2
-15,62,2
-15,62,3
-16,62,2
-16,62,2
-16,62,2
-16,62,2
-16,62,2
-16,62,2
-16,62,2
-16,62,2
-16,62,2
-16,62,2
-16,62,3
-16,62,2
-16,62,2
-17,62,2
-16,62,2
-16,62,3
-16,62,3
-16,62,3
-16,62,3
-17,62,3
-16,62,2
-16,62,2
-16,62,2
-16,62,2
-16,62,2
-16,62,2
-16,63,2
-16,62,3
-16,62,3
-16,62,2
-17,62,2
-17,62,2
-16,62,2
-16,62,2
-16,62,2
-16,62,2
-16,62,2
-17,62,2
-16,62,2
-16,62,2
-16,62,2
-16,62,2
-16,62,2
-16,62,2
-16,62,3
-16,62,2
-16,62,2
-17,62,2
-17,62,2
-16,62,2
-16,62,2
-16,62,2
-16,62,2
-16,62,3
-17,62,2
-17,62,3
-16,62,2
-16,62,2
-16,62,2
-16,62,2
-16,62,2
-16,62,2
-16,62,2
-16,62,2
-16,62,2
-17,62,2
-17,62,2
-16,62,2
-16,62,2
-16,62,2
-16,62,2
-16,62,2
-17,62,2
-17,62,2
-17,62,2
-16,62,2
-16,62,2
-16,62,2
-16,62,3
-16,62,2
-16,62,2
-16,62,2
-16,62,2
-16,62,2
-16,62,2
-17,62,2
-16,62,2
-16,62,3
-16,62,3
-16,62,2
-16,62,2
-16,62,2
-16,62,2
-16,62,2
-16,62,2
-16,62,2
-16,62,2
-16,62,3
-16,62,3
-17,62,2
-17,62,2
-17,62,3
-16,62,3
-16,62,2
-17,62,2
-16,62,2
-16,62,2
-16,62,2
-16,62,2
-16,62,2
-17,62,3
-17,62,2
-17,62,3
-17,62,2
-16,62,2
-16,62,2
-16,62,2
-16,62,2
-16,63,2
-16,62,2
-16,62,2
-16,62,3
-16,62,3
-16,62,2
-17,62,2
-17,62,2
-16,62,3
-16,62,2
-16,62,2
-16,62,2
-17,62,2
-17,62,2
-16,62,2
-16,62,2
-16,62,2
-16,62,2
-16,62,2
-16,62,3
-17,62,2
-16,62,2
-16,62,2
-16,62,3
-16,62,2
-16,62,2
-17,62,2
-16,62,2
-16,62,3
-16,62,2
-16,62,3
-16,62,3
-17,62,2
-16,62,2
-16,62,2
-16,62,2
-16,62,2
-16,62,2
-16,62,2
-17,62,2
-17,62,2
-16,62,2
-16,62,2
-16,62,2
-16,62,2
-16,62,3
-17,62,2
-17,62,2
-16,62,2
-16,62,3
-16,62,2
-16,62,3
-16,62,3
-16,62,2
-16,62,3
-16,62,2
-16,62,2
-16,62,2
-16,62,2
-16,62,2
-16,62,2
-16,62,2
-16,62,2
-16,62,3
-16,62,3
-16,62,2
-16,62,2
-16,62,2
-16,62,2
-16,62,3
-16,62,2
-16,62,3
-16,62,2
-16,62,2
-17,62,2
-16,62,2
-16,62,2
-16,62,2
-16,62,2
-16,62,3
-16,62,2
-16,62,2
-16,62,2
-16,62,3
-16,62,3
-16,62,2
-17,62,2
-17,62,2
-16,62,2
-16,62,2
-16,62,3
-16,62,3
-17,62,2
-17,62,2
-16,62,2
-16,62,2
-16,62,2
-16,62,2
-16,62,2
-17,62,3
-16,62,2
-16,62,2
-17,62,2
-16,62,2
-16,62,2
-16,62,2
-17,62,2
-16,62,2
-16,62,2
-16,62,2
-16,62,2
-16,62,2
-17,62,2
-17,62,2
-16,62,2
-16,62,2
-16,62,2
-16,62,2
-16,62,2
-16,62,2
-17,62,2
-17,62,2
-16,62,2
-16,62,3
-16,62,2
-16,62,2
-17,62,2
-16,62,2
-16,62,2
-16,62,2
-16,62,2
-16,62,2
-17,62,3
-17,62,2
-17,62,2
-16,62,2
-16,62,2
-16,62,2
-16,62,2
-16,62,2
-16,62,2
-16,62,2
-17,62,2
-16,62,2
-16,62,2
-16,62,2
-16,62,2
-16,62,2
-16,62,2
-16,62,2
-16,62,2
-17,62,2
-17,62,2
-16,62,2
-16,62,2
-16,62,2
-16,62,2
-16,62,2
-16,62,2
-16,62,2
-16,62,2
-16,62,3
-16,62,2
-16,62,2
-17,62,2
-16,62,2
-16,62,2
-16,62,2
-16,62,2
-17,62,2
-17,62,2
-17,62,2
-16,62,2
-16,62,2
-16,62,2
-16,62,2
-16,62,2
-16,62,2
-16,62,2
-16,62,2
-16,62,2
-16,62,2
-16,62,2
-16,62,2
-16,62,2
-16,62,2
-16,62,2
-16,62,2
-16,62,2
-17,62,2
-17,62,2
-16,62,2
-16,62,2
-16,62,2
-17,62,2
-16,62,2
-16,62,2
-16,62,2
-16,62,2
-16,62,2
-17,62,2
-17,62,2
-16,62,2
-16,62,2
-16,62,2
-16,62,2
-16,62,3
-17,62,2
-17,62,2
-16,62,2
-16,62,2
-16,62,2
-16,62,2
-16,62,2
-16,62,2
-16,62,2
-16,62,2
-16,62,2
-16,62,2
-17,62,2
-16,62,2
-16,62,2
-15,62,2
-16,62,2
-16,62,3
-17,62,3
-17,62,2
-16,62,2
-16,62,2
-16,62,2
-16,62,2
-15,62,2
-16,62,2
-16,62,2
-16,62,2
-16,62,2
-16,62,2
-16,62,2
-16,62,2
-16,62,2
-16,62,2
-16,62,2
-16,62,2
-16,62,2
-16,62,2
-16,62,2
-16,62,2
-16,62,2
-16,63,2
-16,62,2
-16,63,2
-16,62,3
-16,62,3
-16,62,2
-17,62,2
-17,62,2
-16,62,2
-16,62,2
-16,62,3
-16,62,2
-16,62,2
-16,62,2
-17,62,2
-16,62,2
-16,62,2
-16,62,2
-16,62,2
-16,62,2
-16,62,2
-15,62,2
-15,62,2
-16,62,2
-17,62,2
-17,62,2
-17,62,3
-16,62,2
-17,62,2
-17,62,2
-16,62,2
-17,62,2
-16,62,2
-16,62,2
-15,62,2
-16,62,2
-16,62,2
-17,62,3
-16,62,3
-16,62,2
-17,62,2
-17,62,2
-16,62,2
-16,62,2
-16,62,2
-16,62,3
-17,62,2
-17,62,3
-17,62,3
-17,62,2
-16,62,2
-16,62,2
-16,62,2
-16,62,2
-16,62,2
-16,62,2
-16,62,2
-16,62,2
-17,62,2
-17,62,2
-16,62,2
-16,62,2
-16,62,2
-16,62,2
-16,62,2
-17,62,2
-17,62,3
-16,62,2
-16,62,2
-16,62,2
-16,62,2
-16,62,2
-16,62,2
-16,62,3
-16,62,2
-16,62,2
-17,62,2
-16,62,2
-16,62,2
-15,62,2
-16,62,3
-16,62,3
-16,62,2
-17,62,2
-16,62,2
-16,62,2
-16,62,2
-16,62,2
-16,62,2
-16,62,2
-16,62,2
-17,62,2
-17,62,2
-17,62,2
-17,62,2
-16,62,2
-16,62,2
-16,62,2
-16,62,2
-16,62,2
-16,62,2
-16,62,2
-16,62,2
-16,62,2
-16,62,2
-16,62,2
-16,62,2
-16,62,2
-16,62,2
-16,62,2
-16,62,2
-16,62,2
-17,62,2
-16,62,2
-16,62,2
-16,62,2
-16,62,2
-16,62,2
-16,62,2
-16,62,2
-16,62,2
-16,62,2
-16,62,2
-16,62,2
-16,62,2
-16,62,2
-16,62,2
-15,62,2
-16,62,2
-17,62,2
-17,62,2
-17,62,2
-16,62,2
-16,62,2
-16,62,2
-16,62,2
-17,62,2
-17,62,2
-16,62,2
-16,62,2
-16,62,2
-16,62,2
-16,62,2
-17,62,2
-17,62,2
-16,62,2
-16,62,2
-16,62,2
-17,62,2
-17,62,2
-16,62,2
-16,62,2
-16,62,2
-16,62,2
-17,62,3
-17,62,2
-17,62,3
-16,62,2
-16,62,2
-16,62,2
-16,62,2
-16,62,2
-16,62,2
-16,62,3
-17,62,3
-16,62,2
-16,62,2
-16,62,2
-16,62,2
-16,62,2
-16,62,2
-16,62,2
-16,62,2
-16,62,2
-16,62,2
-16,62,2
-17,62,2
-17,62,3
-17,62,3
-16,62,2
-16,62,2
-16,62,2
-16,62,2
-15,62,2
-16,62,2
-16,62,2
-16,62,3
-17,62,3
-17,62,2
-17,62,2
-16,62,2
-16,62,2
-16,62,2
-16,62,2
-16,62,2
-16,62,2
-16,62,2
-16,62,2
-17,62,2
-17,62,2
-17,62,2
-16,62,2
-16,62,2
-16,62,2
-16,62,2
-16,62,2
-16,62,2
-16,62,2
-16,62,2
-16,62,2
-17,62,2
-16,62,2
-16,62,2
-16,62,2
-17,62,2
-16,62,2
-16,62,2
-16,62,2
-16,62,2
-17,62,2
-17,62,2
-17,62,2
-16,62,2
-16,62,2
-16,62,2
-16,62,2
-16,62,2
-16,62,2
-16,62,2
-17,62,2
-17,62,2
-16,62,3
-16,62,2
-16,62,2
-17,62,2
-17,62,2
-16,62,2
-16,62,2
-16,62,2
-16,62,2
-17,62,2
-17,62,2
-17,62,2
-16,62,3
-16,62,2
-16,62,2
-16,62,2
-16,62,2
-16,62,2
-16,62,2
-16,62,2
-16,62,2
-16,62,2
-16,62,2
-16,62,2
-17,62,2
-16,62,2
-16,62,2
-16,62,2
-16,62,2
-16,62,3
-17,62,2
-16,62,2
-16,62,2
-16,62,2
-16,62,2
-16,62,2
-16,62,2
-16,62,2
-16,62,2
-16,62,2
-16,62,2
-16,62,2
-16,62,2
-16,62,2
-17,62,2
-16,62,2
-16,62,3
-16,62,2
-16,62,2
-16,62,2
-17,62,2
-17,62,2
-16,62,2
-16,62,2
-16,62,2
-16,62,2
-16,62,2
-16,62,2
-16,62,2
-17,63,2
-16,62,2
-16,62,2
-16,62,2
-16,62,2
-17,62,2
-16,62,2
-16,62,2
-16,62,2
-16,62,2
-17,62,2
-17,62,2
-17,62,2
-16,62,2
-16,62,2
-16,62,2
-16,62,2
-16,62,2
-16,62,2
-16,62,2
-16,62,2
-16,62,2
-16,62,2
-17,62,2
-17,62,2
-16,62,2
-16,62,2
-16,62,2
-16,62,2
-17,62,2
-17,62,2
-17,62,2
-17,62,2
-16,62,2
-16,62,2
-16,62,2
-16,62,2
-17,62,2
-17,62,2
-17,62,3
-16,62,3
-16,62,2
-17,62,2
-17,62,2
-16,62,2
-16,62,2
-16,62,2
-16,62,2
-17,62,2
-17,62,3
-17,62,3
-16,62,2
-16,62,2
-16,62,2
-16,62,2
-16,62,2
-16,62,2
-16,62,2
-16,63,2
-16,62,3
-16,62,2
-17,62,2
-17,62,2
-17,62,2
-16,62,3
-16,62,3
-16,62,2
-16,62,2
-17,62,2
-16,62,2
-16,62,2
-16,62,2
-16,62,2
-16,62,2
-16,62,3
-16,62,2
-17,62,2
-16,62,2
-16,62,3
-16,62,2
-16,62,2
-16,62,2
-16,62,2
-16,62,3
-16,62,2
-16,62,2
-16,62,2
-16,62,2
-16,62,2
-16,62,2
-16,62,2
-16,62,2
-16,62,2
-17,62,2
-16,62,2
-16,62,2
-16,62,2
-16,62,2
-17,62,2
-17,62,2
-16,62,2
-16,62,2
-16,62,2
-16,62,2
-16,62,2
-17,62,2
-16,62,2
-16,62,3
-16,62,2
-17,62,2
-17,63,3
-17,62,2
-16,62,2
-16,62,3
-16,62,2
-16,62,2
-17,62,2
-17,62,2
-16,62,2
-16,62,2
-16,62,2
-16,62,2
-17,62,2
-17,62,3
-17,62,3
-16,62,2
-16,62,2
-16,61,2
-16,62,2
-16,62,2
-17,62,2
-16,62,2
-16,62,2
-16,62,2
-17,62,2
-17,62,2
-17,62,2
-16,62,2
-16,62,2
-16,62,3
-16,62,2
-16,62,2
-17,62,2
-16,62,2
-16,62,2
-16,62,2
-16,62,2
-16,62,2
-16,62,2
-16,62,3
-16,62,2
-16,62,3
-16,62,2
-16,62,2
-16,62,2
-16,62,2
-16,62,2
-16,62,2
-16,62,3
-17,62,2
-17,62,2
-16,62,2
-16,62,2
-16,62,2
-16,62,2
-16,62,2
-16,62,2
-16,62,2
-16,62,3
-16,62,2
-17,62,2
-16,62,2
-16,62,2
-16,62,2
-16,62,2
-16,62,2
-17,62,2
-17,62,2
-17,62,2
-16,62,2
-16,62,2
-16,62,2
-16,62,2
-16,62,2
-16,62,2
-16,62,3
-16,62,2
-16,62,2
-17,62,2
-17,62,2
-16,62,2
-16,62,2
-16,62,2
-16,62,2
-17,62,2
-17,62,2
-17,62,2
-16,62,2
-16,62,2
-16,62,2
-16,62,2
-16,62,2
-16,62,2
-16,62,2
-16,62,2
-16,62,2
-17,62,2
-17,62,2
-16,62,2
-16,62,2
-16,62,2
-17,62,3
-17,62,2
-17,62,3
-16,62,2
-16,62,2
-16,62,2
-16,62,2
-16,63,2
-17,62,2
-16,62,2
-16,62,2
-16,62,2
-16,62,2
-17,62,2
-17,62,2
-16,62,2
-16,62,2
-16,62,2
-16,62,3
-17,62,2
-17,62,2
-16,61,2
-16,62,2
-16,62,2
-16,62,2
-16,62,2
-16,62,2
-16,62,2
-16,62,2
-16,62,2
-16,62,2
-16,62,2
-16,62,2
-17,62,2
-16,62,2
-16,62,3
-16,62,3
-16,62,2
-16,62,2
-16,62,2
-16,62,2
-16,62,2
-16,62,2
-16,62,2
-16,62,2
-16,62,3
-16,62,2
-16,62,2
-17,62,2
-17,62,3
-16,62,2
-17,62,2
-17,62,2
-16,62,2
-16,62,2
-16,62,2
-16,62,2
-17,62,3
-17,62,3
-16,62,3
-16,62,2
-16,62,2
-16,62,2
-16,62,2
-16,62,2
-16,62,2
-16,62,2
-16,62,2
-16,62,2
-17,62,2
-17,62,2
-17,62,2
-16,62,2
-16,62,2
-16,62,2
-16,62,2
-17,62,2
-17,62,2
-16,62,2
-16,62,2
-16,62,2
-16,62,2
-16,62,2
-17,62,2
-17,62,2
-16,62,2
-16,62,2
-16,62,2
-16,62,2
-17,62,2
-16,62,2
-16,62,2
-16,62,2
-16,62,2
-16,62,2
-17,62,3
-17,62,2
-17,62,2
-16,62,2
-16,62,2
-16,62,2
-16,62,2
-16,63,2
-16,62,2
-16,62,2
-16,62,2
-16,62,2
-16,62,2
-17,62,2
-17,62,2
-16,62,2
-16,62,2
-16,62,2
-16,62,2
-17,62,2
-17,62,2
-16,62,2
-16,62,2
-16,62,2
-16,62,2
-16,62,2
-16,62,2
-16,62,2
-16,62,2
-17,62,3
-16,62,2
-16,62,2
-17,62,2
-16,62,2
-16,62,2
-16,62,3
-16,62,3
-16,62,2
-17,62,3
-17,62,2
-16,62,2
-16,62,2
-16,62,2
-16,62,2
-16,62,2
-16,62,2
-16,62,2
-16,62,2
-16,62,3
-16,62,2
-16,62,2
-17,62,2
-17,62,2
-16,62,2
-16,62,2
-16,62,2
-16,62,2
-17,62,2
-17,62,3
-16,62,2
-16,62,2
-16,62,2
-16,62,2
-16,62,2
-17,62,2
-16,62,2
-17,62,2
-16,62,2
-16,62,3
-16,62,2
-17,62,2
-17,62,2
-16,62,2
-16,62,2
-16,62,2
-16,62,3
-17,62,2
-17,62,2
-16,62,2
-16,62,2
-16,62,2
-16,62,2
-16,62,3
-16,63,2
-16,62,2
-16,62,2
-16,62,3
-16,62,3
-16,62,2
-16,62,2
-16,62,2
-16,62,2
-16,62,2
-16,62,2
-16,62,2
-16,62,2
-17,62,2
-16,62,2
-16,62,2
-16,62,2
-16,62,2
-16,62,2
-16,62,2
-16,62,2
-16,62,2
-16,62,2
-16,62,3
-16,62,2
-16,62,2
-16,62,2
-16,62,2
-16,62,2
-16,62,2
-16,62,2
-17,62,2
-17,62,2
-16,62,2
-16,62,2
-17,62,2
-16,62,2
-16,62,2
-16,62,2
-16,62,2
-16,62,2
-16,62,2
-16,62,3
-16,62,2
-17,62,2
-17,62,2
-16,62,2
-16,62,2
-16,62,2
-16,62,2
-17,62,2
-17,62,2
-16,62,2
-16,62,2
-16,62,2
-16,62,2
-17,62,2
-17,62,2
-16,62,2
-16,62,2
-16,62,2
-17,62,2
-17,62,2
-17,62,2
-16,62,2
-16,62,2
-16,62,2
-16,61,2
-17,62,2
-17,62,2
-17,62,2
-17,62,3
-17,62,3
-16,62,2
-15,63,2
-15,63,3
-16,62,2
-15,61,2
-15,61,2
-17,62,2
-19,62,1
-19,62,1
-17,62,2
-17,63,2
-16,63,1
-16,62,3
-16,61,4
-16,61,3
-17,61,2
-18,62,1
-19,61,0
-17,61,2
-16,61,3
-17,62,3
-17,62,2
-16,61,2
-17,61,2
-17,63,3
-18,62,2
-19,62,1
-17,62,1
-17,62,0
-17,61,2
-17,61,2
-17,62,3
-18,61,2
-18,62,2
-18,62,2
-17,61,3
-17,61,3
-17,62,2
-16,62,1
-16,62,1
-16,62,1
-15,62,2
-16,62,2
-16,62,2
-17,62,3
-18,62,2
-17,62,2
-17,62,2
-16,61,2
-16,61,2
-17,61,2
-18,62,3
-18,63,3
-18,62,2
-16,62,2
-15,61,1
-15,61,1
-15,61,1
-16,61,2
-17,62,2
-18,63,3
-18,63,3
-17,63,2
-15,62,1
-14,61,0
-13,61,1
-16,61,2
-17,62,2
-19,63,2
-20,62,2
-19,61,2
-19,61,2
-18,62,1
-18,62,1
-18,62,1
-17,62,2
-17,61,3
-16,62,3
-16,62,1
-15,62,1
-14,61,-1
-14,61,-1
-15,61,0
-17,62,2
-19,62,3
-20,62,4
-21,62,4
-20,62,3
-19,62,3
-17,62,1
-17,62,1
-16,63,0
-16,62,0
-16,62,0
-15,62,1
-17,62,1
-18,62,2
-18,61,2
-18,61,1
-19,61,1
-19,62,1
-18,61,1
-17,61,1
-17,61,1
-18,62,2
-18,62,2
-18,62,2
-18,62,2
-18,62,2
-17,62,1
-17,62,1
-17,62,1
-17,62,1
-17,62,2
-17,62,2
-17,62,1
-17,61,1
-18,62,1
-18,61,1
-17,61,1
-17,61,2
-18,62,2
-18,62,2
-18,62,1
-18,62,2
-17,62,2
-17,62,1
-17,62,2
-18,62,2
-18,62,1
-18,62,1
-18,62,2
-18,61,2
-17,62,1
-18,61,1
-18,62,1
-18,62,2
-17,61,1
-17,62,2
-17,62,2
-18,62,2
-18,62,2
-18,62,2
-17,61,2
-17,62,1
-17,62,1
-17,62,2
-17,62,2
-17,62,1
-18,62,2
-17,62,2
-18,61,2
-18,62,2
-18,62,1
-17,62,1
-17,62,1
-17,62,2
-18,62,2
-18,62,2
-18,62,2
-18,61,2
-17,62,2
-17,61,1
-17,61,2
-17,62,2
-18,62,1
-18,62,2
-18,62,2
-17,62,2
-17,62,2
-17,62,1
-18,61,1
-17,62,2
-17,62,1
-18,62,2
-18,62,2
-18,61,2
-18,62,2
-17,61,1
-17,61,1
-17,62,2
-17,62,2
-17,62,2
-17,62,2
-18,62,2
-18,62,2
-17,62,2
-18,62,2
-18,62,1
-18,61,1
-17,62,1
-17,61,1
-17,61,2
-18,62,2
-18,62,2
-18,62,1
-17,62,2
-17,62,1
-17,62,2
-17,61,2
-17,62,2
-18,62,1
-18,61,2
-18,62,2
-17,62,2
-17,62,1
-17,62,1
-17,62,2
-18,62,2
-18,61,2
-17,62,1
-17,62,2
-17,61,2
-18,62,2
-18,62,2
-17,62,1
-17,62,1
-17,61,1
-17,62,2
-18,61,2
-18,62,2
-18,62,2
-18,61,2
-17,62,1
-18,62,1
-17,62,2
-17,62,1
-17,61,2
-17,62,2
-17,62,2
-18,62,2
-18,62,2
-18,62,2
-18,62,2
-17,62,2
-17,61,1
-17,62,1
-18,62,1
-18,62,1
-18,62,2
-17,62,2
-18,62,1
-18,62,1
-18,61,1
-17,62,2
-17,62,2
-17,62,2
-18,62,2
-18,62,2
-18,62,2
-18,62,2
-17,62,2
-17,62,2
-17,61,2
-18,62,1
-18,62,1
-18,62,2
-17,62,2
-17,61,2
-18,62,2
-18,62,1
-17,61,2
-17,61,1
-17,61,2
-18,62,2
-18,62,2
-18,62,2
-18,62,2
-18,62,2
-17,62,1
-17,62,1
-17,62,1
-18,62,1
-18,62,1
-18,62,2
-18,62,2
-18,61,2
-18,62,1
-18,62,1
-18,61,1
-17,62,1
-17,61,2
-17,61,2
-18,61,2
-18,62,2
-18,62,2
-17,62,2
-17,61,1
-17,62,2
-17,61,2
-17,62,2
-17,62,2
-17,62,2
-18,62,2
-17,62,2
-17,62,2
-17,62,1
-18,62,2
-17,62,1
-18,61,2
-17,61,2
-18,62,2
-18,62,1
-17,62,2
-17,62,1
-17,62,1
-17,61,1
-17,62,2
-18,62,2
-18,62,2
-18,62,2
-18,61,2
-18,61,2
-17,62,2
-18,62,1
-18,62,1
-17,61,1
-17,61,1
-17,61,2
-17,62,2
-18,62,2
-18,62,2
-18,62,2
-17,62,2
-17,62,2
-17,61,1
-17,61,2
-17,62,2
-18,61,1
-17,61,2
-17,62,2
-18,62,2
-18,62,2
-18,61,2
-17,62,2
-17,62,2
-17,62,1
-17,61,1
-17,61,1
-18,61,2
-19,62,3
-19,62,2
-18,62,2
-17,62,1
-17,61,1
-16,62,1
-16,62,1
-16,62,1
-17,62,2
-18,62,3
-18,62,2
-19,62,2
-18,61,2
-17,62,2
-17,62,1
-17,62,2
-17,62,2
-17,61,1
-18,62,2
-18,62,2
-17,61,1
-17,61,2
-17,62,1
-18,62,1
-17,61,2
-17,61,2
-18,62,2
-17,62,2
-18,62,2
-18,62,1
-18,62,1
-17,62,1
-17,62,2
-17,62,1
-17,62,1
-18,61,2
-18,62,2
-18,62,2
-17,62,1
-17,61,2
-17,61,2
-17,62,2
-18,61,2
-17,62,2
-17,62,2
-17,62,1
-17,62,1
-17,62,1
-18,62,2
-17,62,2
-17,62,2
-17,62,2
-18,62,2
-18,61,2
-18,61,2
-18,62,2
-17,62,2
-17,61,1
-17,62,2
-17,62,2
-17,62,2
-17,62,2
-18,62,2
-18,62,2
-17,61,2
-17,62,1
-18,62,1
-17,62,1
-17,62,2
-17,62,2
-17,62,2
-17,62,2
-18,62,2
-18,62,2
-18,62,2
-17,62,2
-17,62,1
-17,62,2
-17,61,2
-17,62,2
-18,62,2
-18,62,1
-17,62,2
-17,62,1
-17,62,1
-18,62,1
-17,62,2
-17,62,2
-17,62,2
-17,62,2
-18,62,2
-18,62,2
-18,62,2
-18,62,2
-17,62,1
-17,62,1
-17,62,2
-18,62,1
-18,62,2
-18,62,1
-18,61,2
-17,61,2
-17,62,2
-18,62,1
-18,62,1
-17,61,1
-17,61,2
-17,62,2
-18,62,2
-18,62,2
-18,62,1
-18,61,1
-17,62,1
-17,62,1
-17,62,1
-17,61,2
-17,62,2
-18,62,1
-18,62,2
-17,61,2
-17,62,2
-17,62,1
-17,62,2
-18,62,2
-17,62,1
-17,62,2
-17,62,2
-18,62,2
-18,61,2
-18,62,2
-18,62,1
-17,62,1
-17,62,2
-17,62,2
-17,62,2
-17,62,2
-18,62,1
-18,62,2
-17,62,2
-17,62,2
-17,62,1
-17,62,1
-17,62,1
-17,61,2
-17,62,2
-17,62,2
-17,62,1
-18,62,2
-18,62,2
-18,62,2
-17,62,2
-17,62,1
-17,62,2
-17,62,2
-17,62,2
-17,62,2
-17,62,1
-17,62,2
-17,62,1
-17,62,2
-17,62,1
-18,62,1
-17,62,2
-17,62,2
-17,62,2
-17,61,2
-18,62,2
-17,62,1
-17,62,2
-17,62,2
-17,62,2
-17,62,1
-17,62,2
-18,62,2
-17,61,2
-17,61,2
-17,62,2
-17,61,2
-17,62,2
-17,62,2
-17,62,1
-17,62,1
-17,62,1
-17,61,3
-18,61,2
-17,61,2
-18,61,1
-18,61,2
-20,62,2
-18,62,2
-18,62,2
-18,61,2
-17,62,2
-17,62,2
-17,63,2
-16,63,1
-15,63,1
-14,61,1
-15,61,1
-17,61,2
-19,62,3
-21,63,3
-21,63,2
-19,61,2
-17,60,1
-17,60,0
-16,61,-1
-17,62,0
-17,62,1
-17,62,2
-17,62,3
-17,62,2
-17,62,1
-17,61,1
-17,62,2
-18,62,3
-19,63,2
-18,63,2
-17,62,2
-17,61,1
-16,61,0
-15,61,0
-15,63,1
-16,63,1
-17,63,2
-18,62,3
-18,62,3
-18,61,1
-17,61,1
-17,61,1
-17,61,1
-16,62,1
-16,62,1
-16,62,1
-16,61,2
-17,61,1
-18,62,2
-19,62,2
-20,62,3
-17,62,2
-16,62,2
-15,62,1
-16,62,1
-16,62,1
-15,62,2
-16,62,2
-16,62,1
-17,62,0
-17,62,1
-17,62,1
-19,61,3
-18,61,3
-17,61,2
-17,62,0
-17,62,0
-17,62,0
-16,62,2
-17,62,3
-17,62,2
-17,62,2
-17,62,2
-17,62,2
-17,62,2
-17,62,2
-17,62,2
-16,62,2
-16,62,2
-16,61,2
-17,61,1
-18,62,2
-18,62,2
-18,63,3
-17,62,2
-17,62,2
-15,62,0
-15,61,1
-15,62,1
-16,62,2
-17,62,2
-17,62,3
-17,61,3
-18,62,2
-18,62,2
-17,62,2
-17,62,2
-16,62,2
-16,62,2
-16,62,2
-16,62,2
-16,62,2
-17,62,2
-17,62,2
-17,62,2
-16,62,2
-16,62,2
-17,62,2
-17,62,2
-17,62,2
-17,62,2
-17,62,2
-17,62,2
-17,62,2
-17,62,2
-16,62,2
-16,62,2
-17,62,2
-17,62,3
-16,62,2
-16,63,2
-16,62,2
-16,62,2
-16,61,2
-17,61,2
-18,62,3
-18,62,3
-18,62,1
-18,61,1
-18,61,2
-18,62,2
-17,62,2
-17,62,2
-16,62,2
-17,62,2
-17,62,2
-17,62,2
-17,62,2
-17,62,2
-17,62,1
-17,62,1
-17,62,2
-17,62,1
-17,61,1
-17,61,2
-18,61,3
-19,62,2
-19,62,2
-18,61,2
-17,61,1
-17,61,1
-16,61,1
-17,62,2
-17,63,2
-17,62,2
-17,62,2
-17,62,2
-17,62,2
-18,62,1
-18,62,2
-17,62,1
-17,62,2
-17,62,2
-17,62,2
-17,62,2
-17,62,2
-18,62,2
-18,62,2
-17,62,2
-17,62,2
-17,61,1
-17,62,2
-17,62,1
-17,62,1
-17,62,2
-17,62,2
-17,62,2
-17,62,1
-17,62,2
-17,62,2
-17,62,2
-17,62,3
-17,62,2
-17,62,2
-17,62,2
-17,62,2
-16,62,2
-16,62,2
-17,62,2
-17,62,2
-17,62,2
-17,61,2
-17,61,2
-17,61,2
-17,61,1
-17,62,2
-19,63,3
-19,62,3
-17,61,2
-17,62,1
-17,62,1
-17,62,1
-16,62,2
-17,62,2
-17,62,2
-17,62,2
-17,62,2
-17,62,2
-17,62,2
-17,61,2
-17,62,2
-17,62,2
-17,62,2
-16,62,2
-17,62,2
-17,62,2
-17,62,2
-17,62,2
-17,62,2
-17,62,2
-17,62,2
-17,62,2
-17,62,2
-17,62,2
-17,62,2
-17,62,2
-17,62,2
-17,62,2
-17,62,2
-17,62,2
-17,62,2
-17,62,2
-17,62,2
-18,62,2
-17,62,2
-17,62,2
-17,62,2
-17,62,2
-17,62,2
-17,62,2
-17,62,2
-17,62,2
-17,62,2
-17,62,2
-17,62,2
-17,62,2
-17,62,1
-17,61,1
-17,61,2
-17,62,2
-17,62,2
-18,62,2
-17,62,2
-17,62,2
-16,61,1
-16,62,1
-17,62,2
-17,62,2
-17,62,3
-17,62,3
-17,62,2
-17,62,2
-17,61,1
-17,62,2
-16,62,2
-16,62,2
-17,62,2
-17,62,2
-17,62,2
-18,62,2
-17,62,2
-17,61,2
-15,60,1
-15,61,0
-16,62,1
-18,63,3
-18,62,3
-17,61,3
-17,62,2
-17,62,1
-17,62,1
-16,62,2
-16,62,2
-16,62,1
-17,62,2
-17,62,2
-17,62,2
-17,62,2
-17,62,2
-17,62,2
-17,62,2
-17,62,3
-17,62,3
-17,62,2
-17,62,2
-17,61,2
-17,62,2
-17,62,2
-17,62,2
-16,62,2
-16,62,2
-17,62,2
-17,62,2
-17,62,2
-17,62,2
-17,62,2
-17,62,2
-17,62,2
-16,62,2
-16,62,2
-17,62,2
-17,62,2
-17,62,2
-17,62,2
-17,62,2
-17,62,2
-17,62,2
-16,62,2
-17,62,2
-17,62,2
-17,62,2
-17,62,2
-17,62,2
-17,62,2
-17,62,2
-17,62,2
-16,62,2
-17,62,2
-16,62,2
-17,61,1
-17,62,2
-18,63,3
-18,62,3
-17,62,2
-16,61,1
-16,62,1
-17,62,1
-17,63,2
-16,61,3
-15,60,2
-16,62,1
-19,64,3
-20,63,4
-18,62,3
-16,61,1
-16,61,1
-17,62,1
-16,62,2
-15,62,2
-17,62,3
-17,62,2
-17,62,2
-17,62,2
-17,62,2
-17,62,1
-17,62,1
-16,62,2
-16,62,2
-16,62,2
-16,62,2
-17,62,2
-17,62,2
-17,62,2
-17,61,2
-17,62,2
-17,62,2
-17,62,3
-17,62,2
-16,62,2
-16,62,2
-17,62,1
-16,62,2
-17,62,2
-17,62,2
-17,62,2
-17,62,2
-17,62,2
-17,62,2
-17,62,2
-17,62,2
-17,62,2
-17,62,3
-17,62,2
-17,62,2
-17,62,2
-17,62,2
-17,62,2
-16,62,2
-16,62,2
-17,62,2
-17,62,2
-17,62,2
-17,62,2
-16,62,2
-17,62,2
-17,62,2
-17,62,2
-17,62,2
-16,62,2
-17,62,2
-17,62,2
-17,62,2
-17,62,2
-17,62,2
-17,62,2
-17,62,2
-16,62,2
-16,62,2
-17,62,2
-17,62,2
-17,62,2
-17,62,2
-17,62,2
-17,62,2
-17,62,2
-17,62,2
-17,62,2
-16,62,2
-17,62,2
-17,62,2
-17,62,2
-17,62,3
-17,62,2
-17,62,2
-17,62,2
-17,62,2
-17,62,2
-17,62,2
-17,62,2
-17,62,2
-17,62,2
-17,62,2
-17,62,2
-17,62,2
-17,62,2
-17,62,2
-17,62,2
-17,62,2
-17,62,2
-17,62,2
-17,62,2
-17,62,2
-17,62,2
-16,62,2
-16,61,2
-16,62,2
-17,62,2
-18,62,2
-18,61,3
-18,62,3
-19,62,3
-18,62,2
-17,62,2
-17,62,1
-18,61,0
-17,61,0
-15,61,2
-16,62,3
-17,63,4
-17,63,3
-16,62,2
-16,61,0
-16,61,0
-17,61,1
-18,63,3
-19,62,4
-19,63,4
-17,62,3
-16,62,2
-17,62,1
-17,61,1
-17,61,1
-16,62,1
-17,62,1
-18,62,2
-17,62,2
-17,63,2
-17,63,2
-16,62,1
-15,62,1
-15,62,2
-16,62,2
-17,62,3
-18,62,2
-19,62,2
-18,62,2
-17,61,2
-16,61,1
-16,62,1
-17,63,2
-17,63,2
-15,62,3
-15,62,2
-16,62,1
-16,61,1
-17,61,1
-18,62,2
-18,63,3
-18,63,2
-16,62,1
-16,62,2
-16,61,2
-17,62,1
-17,61,2
-17,62,1
-18,61,2
-18,62,1
-18,62,2
-18,62,2
-16,62,2
-16,62,2
-16,62,1
-16,63,3
-16,63,3
-16,63,2
-16,62,1
-15,62,1
-16,61,2
-17,62,2
-16,62,2
-16,62,1
-16,61,2
-16,61,2
-17,62,2
-17,63,2
-17,63,2
-18,61,4
-16,61,3
-17,60,2
-16,61,0
-15,61,-1
-15,62,-1
-14,62,1
-15,63,3
-14,62,4
-16,63,4
-16,63,4
-17,63,3
-17,62,2
-17,62,2
-17,62,2
-17,62,2
-16,62,2
-17,62,1
-17,62,2
-16,62,2
-17,62,3
-17,62,3
-17,61,3
-18,61,2
-18,62,2
-17,62,2
-17,62,2
-16,62,2
-16,62,2
-16,62,3
-16,62,2
-16,62,2
-16,62,2
-17,62,2
-17,62,2
-17,62,2
-16,62,2
-16,62,2
-16,62,2
-16,62,3
-16,62,3
-17,62,2
-17,62,2
-17,62,2
-16,62,2
-16,62,2
-16,62,2
-16,62,2
-16,62,2
-16,62,2
-16,62,2
-15,62,2
-16,62,2
-16,62,2
-16,62,2
-17,62,2
-16,62,2
-17,62,2
-17,62,2
-17,62,2
-17,62,2
-17,62,2
-17,62,2
-17,62,2
-16,62,2
-16,62,2
-17,62,2
-17,62,2
-17,62,2
-17,62,2
-17,62,2
-17,62,2
-17,62,2
-16,62,2
-16,62,2
-17,62,2
-17,62,2
-17,62,2
-17,62,2
-17,62,2
-17,62,2
-16,62,2
-17,62,2
-16,62,2
-16,62,2
-16,62,2
-16,62,3
-16,62,3
-17,62,2
-17,62,2
-17,62,2
-16,62,2
-16,62,3
-17,62,2
-17,62,3
-17,62,2
-17,62,2
-17,62,2
-17,62,2
-17,62,2
-17,62,2
-17,62,2
-17,62,2
-17,62,2
-16,61,2
-16,62,2
-17,62,2
-17,62,2
-17,62,2
-16,62,2
-17,61,2
-17,62,2
-17,62,2
-17,62,2
-17,62,2
-16,62,2
-16,62,2
-16,61,3
-15,60,1
-17,63,1
-18,64,2
-19,64,4
-17,61,4
-15,61,3
-16,62,0
-17,62,0
-16,62,0
-16,62,2
-16,61,3
-17,62,3
-17,61,3
-18,62,2
-17,62,3
-17,62,2
-17,62,2
-16,62,2
-16,62,2
-16,62,2
-16,62,2
-16,62,3
-16,62,3
-16,61,2
-16,62,2
-17,63,2
-17,63,3
-17,62,3
-16,62,3
-16,62,2
-17,62,2
-17,62,2
-17,62,2
-17,61,3
-17,62,2
-17,62,2
-17,62,2
-17,62,2
-17,62,2
-17,62,2
-16,62,3
-17,62,2
-17,62,2
-17,62,2
-16,62,2
-16,62,3
-16,62,3
-17,62,3
-17,62,3
-17,62,2
-17,62,3
-17,62,2
-16,62,2
-16,62,2
-16,62,2
-16,62,2
-16,62,2
-16,62,2
-16,62,2
-17,62,2
-17,62,2
-17,62,2
-16,62,3
-16,62,3
-16,62,3
-17,62,3
-17,62,3
-17,62,3
-17,62,3
-16,62,2
-16,62,2
-16,62,2
-16,62,2
-16,62,2
-16,62,2
-16,62,3
-16,62,3
-17,62,3
-17,62,2
-17,62,2
-16,62,3
-16,62,2
-16,62,3
-17,62,3
-17,62,2
-17,62,2
-16,62,2
-16,62,2
-16,62,2
-16,62,2
-17,62,2
-17,62,2
-17,62,3
-17,62,3
-16,62,2
-16,62,2
-17,62,2
-17,62,2
-16,62,3
-16,62,3
-16,62,3
-17,62,3
-17,62,3
-17,62,3
-16,62,2
-16,62,2
-16,62,2
-16,62,3
-16,62,3
-16,62,2
-16,62,2
-16,62,2
-16,62,3
-16,62,2
-16,62,2
-16,62,2
-16,62,2
-16,62,3
-16,61,2
-16,62,2
-16,62,2
-17,62,3
-17,62,3
-17,62,3
-16,62,3
-16,62,2
-16,62,2
-16,62,3
-17,62,2
-17,62,3
-17,62,3
-16,62,3
-16,62,2
-16,62,2
-17,62,2
-16,62,3
-16,62,3
-16,62,3
-17,62,3
-17,62,3
-17,62,3
-17,62,2
-16,62,2
-16,62,2
-16,62,3
-16,62,3
-16,62,2
-16,62,2
-16,62,3
-16,62,3
-16,62,2
-17,62,2
-17,62,2
-17,62,3
-16,62,3
-16,62,3
-16,62,3
-16,62,3
-17,62,3
-17,62,3
-16,62,3
-16,62,2
-16,62,2
-16,62,2
-16,62,3
-17,62,2
-17,62,3
-16,62,3
-16,62,3
-16,62,2
-17,62,3
-17,62,2
-16,62,3
-16,62,3
-17,62,3
-17,62,3
-17,62,3
-17,62,3
-16,62,2
-16,62,2
-16,62,2
-16,62,2
-16,62,3
-17,62,2
-17,62,3
-16,62,3
-16,62,3
-16,62,3
-16,62,3
-16,62,2
-16,62,3
-16,62,3
-16,62,3
-16,62,3
-16,62,3
-16,62,3
-17,62,3
-16,62,2
-16,62,2
-16,62,3
-16,62,2
-16,62,2
-16,62,3
-16,62,3
-16,61,3
-16,62,2
-16,62,2
-17,62,2
-17,62,2
-16,62,3
-16,62,3
-16,62,3
-16,62,3
-17,62,2
-17,62,2
-16,62,3
-16,62,2
-16,62,3
-16,62,2
-16,62,2
-16,62,2
-16,62,2
-16,62,3
-16,62,3
-16,62,2
-17,62,2
-17,62,2
-16,62,3
-16,62,3
-16,62,3
-17,62,3
-17,62,2
-17,62,3
-16,62,2
-16,62,2
-16,62,2
-16,62,2
-16,62,3
-16,62,2
-16,62,3
-16,62,3
-16,62,3
-16,62,3
-17,62,3
-17,62,2
-16,62,3
-16,62,3
-16,62,3
-16,62,3
-17,62,3
-17,62,2
-16,62,2
-16,62,2
-16,62,2
-16,62,2
-16,62,3
-17,62,3
-17,62,2
-17,62,3
-16,62,3
-16,62,3
-17,62,3
-17,62,2
-16,62,3
-16,62,3
-16,62,3
-16,62,3
-16,62,3
-17,62,3
-16,62,2
-16,62,3
-16,62,3
-16,62,2
-16,62,3
-16,62,2
-17,62,2
-16,62,3
-16,62,3
-16,62,3
-16,62,2
-16,62,2
-16,62,3
-16,62,3
-16,62,3
-16,62,3
-17,62,2
-17,62,3
-16,62,3
-16,62,3
-16,62,2
-16,62,2
-16,62,2
-16,62,2
-16,62,3
-16,62,3
-17,62,3
-16,62,3
-17,62,3
-17,62,2
-16,62,3
-16,62,2
-16,62,3
-16,62,3
-16,62,3
-16,62,3
-17,62,3
-16,62,3
-16,62,3
-16,62,3
-16,62,3
-16,62,3
-16,62,3
-16,62,3
-16,62,3
-16,62,2
-16,62,2
-17,62,2
-16,62,3
-16,62,3
-16,62,3
-16,62,3
-17,62,3
-17,62,3
-17,62,3
-16,62,3
-16,62,2
-16,62,2
-15,62,2
-16,62,3
-16,62,3
-16,62,3
-16,62,3
-16,62,3
-17,62,2
-17,62,2
-17,62,2
-16,62,3
-16,62,3
-16,62,3
-16,62,3
-17,62,3
-16,62,3
-16,62,3
-16,62,2
-16,62,3
-16,62,3
-16,62,3
-16,62,2
-16,62,3
-16,62,3
-16,62,3
-16,62,2
-17,62,2
-17,62,3
-16,62,3
-16,62,3
-16,62,3
-17,62,3
-17,62,3
-17,62,3
-17,63,3
-16,62,3
-15,61,3
-14,60,2
-16,62,2
-17,62,2
-18,63,3
-16,63,4
-16,62,4
-16,62,3
-17,63,2
-16,63,2
-15,62,2
-15,62,2
-15,62,3
-16,62,3
-16,62,3
-17,62,3
-17,62,3
-17,62,2
-17,62,2
-16,62,2
-16,62,2
-16,62,3
-15,62,3
-16,62,3
-16,62,3
-16,62,3
-16,62,3
-17,62,2
-17,62,3
-16,62,3
-16,62,3
-16,62,3
-16,62,2
-16,62,3
-16,62,3
-16,62,3
-16,62,2
-16,62,2
-16,62,2
-16,62,3
-16,62,3
-16,62,3
-16,62,3
-16,62,3
-16,63,3
-16,62,3
-17,61,3
-15,61,3
-16,62,2
-16,63,2
-16,63,3
-16,62,3
-15,63,3
-16,63,3
-16,62,3
-15,61,2
-15,61,2
-17,62,3
-18,62,3
-18,62,3
-17,62,3
-16,62,3
-16,62,3
-16,62,2
-15,62,2
-15,62,2
-16,62,3
-15,62,3
-16,62,3
-16,62,3
-17,62,3
-17,62,3
-17,62,3
-16,62,3
-16,62,3
-16,62,2
-15,62,2
-15,62,3
-16,62,3
-16,62,3
-17,62,3
-16,62,3
-16,62,2
-16,62,2
-17,62,3
-16,62,3
-16,62,3
-16,62,3
-16,62,3
-16,62,3
-16,62,2
-16,62,2
-16,62,3
-16,62,3
-16,62,3
-16,62,3
-17,62,3
-17,62,3
-16,61,2
-16,62,2
-15,62,3
-15,62,3
-16,62,3
-17,62,3
-17,62,3
-16,62,3
-16,62,2
-16,62,2
-16,62,2
-16,62,2
-16,62,3
-16,62,3
-16,62,3
-16,62,2
-16,62,3
-16,62,2
-16,62,3
-16,62,3
-17,62,3
-16,62,3
-16,62,3
-16,62,2
-16,62,2
-16,62,2
-16,62,2
-15,62,2
-16,62,3
-16,62,3
-16,62,3
-17,62,3
-17,62,3
-17,62,2
-16,62,2
-16,62,2
-16,62,2
-16,62,3
-16,62,2
-16,62,3
-16,62,3
-16,62,2
-16,62,2
-17,62,2
-16,62,2
-15,62,3
-16,62,3
-16,62,3
-16,62,2
-17,62,3
-17,62,3
-16,62,3
-16,62,3
-16,62,2
-16,62,3
-16,62,3
-16,62,3
-16,62,3
-16,62,3
-16,62,3
-16,62,3
-16,62,2
-17,62,2
-16,62,2
-16,62,3
-16,62,3
-16,62,3
-16,62,3
-17,62,3
-17,62,3
-16,62,3
-16,62,2
-16,62,3
-16,62,3
-16,62,3
-16,62,3
-16,62,3
-16,62,3
-16,62,3
-16,62,3
-16,62,3
-17,62,3
-16,62,3
-16,62,3
-16,62,3
-16,62,3
-16,62,3
-17,62,3
-17,62,2
-16,62,3
-16,62,3
-16,62,3
-16,62,2
-16,62,2
-16,62,3
-16,62,3
-16,62,3
-16,62,3
-16,62,3
-16,62,2
-16,62,2
-16,62,3
-16,62,3
-16,62,3
-16,62,3
-17,62,3
-16,62,3
-16,62,3
-16,62,3
-16,62,3
-16,62,2
-16,62,3
-16,62,3
-16,62,3
-16,62,2
-16,62,2
-16,62,3
-16,62,3
-16,62,3
-16,62,2
-16,62,2
-16,62,3
-16,62,3
-16,62,3
-16,62,3
-16,62,3
-17,62,3
-16,62,3
-16,62,2
-16,62,2
-16,62,2
-16,62,3
-16,62,3
-16,62,2
-16,62,3
-16,62,3
-16,62,3
-16,62,3
-16,62,3
-17,62,2
-16,62,3
-16,62,3
-16,62,3
-16,62,3
-16,62,3
-17,62,3
-17,62,3
-16,62,3
-16,62,3
-16,62,2
-16,62,3
-16,62,3
-16,62,3
-16,62,3
-16,62,3
-16,62,3
-16,62,3
-16,62,3
-17,62,3
-16,62,3
-16,62,3
-16,62,3
-16,62,3
-16,62,3
-17,62,3
-16,62,3
-16,62,3
-16,62,3
-16,62,3
-16,62,3
-16,62,3
-16,62,2
-16,62,3
-16,62,3
-16,62,3
-16,62,2
-17,62,2
-17,62,2
-16,62,3
-16,62,3
-16,62,3
-16,62,3
-16,62,3
-17,62,3
-17,62,3
-16,62,3
-16,62,2
-16,62,3
-16,62,3
-16,62,3
-16,62,3
-16,62,3
-16,62,3
-16,62,3
-16,62,3
-16,62,2
-16,62,2
-16,62,2
-15,62,3
-16,62,3
-16,62,3
-16,62,3
-17,62,3
-17,62,3
-16,62,3
-16,62,2
-16,62,3
-16,62,3
-16,62,3
-16,62,3
-16,62,3
-16,62,3
-16,62,3
-16,62,3
-16,62,2
-16,62,2
-16,62,3
-16,62,3
-16,62,3
-16,62,3
-16,62,3
-16,62,3
-17,62,3
-16,62,3
-16,62,2
-16,62,2
-16,62,3
-16,62,3
-16,62,2
-16,62,3
-16,62,3
-16,62,3
-16,62,3
-16,62,2
-16,62,2
-17,62,3
-16,62,3
-16,62,3
-16,62,3
-17,62,3
-17,62,3
-17,62,3
-16,62,3
-16,62,3
-16,62,3
-16,62,3
-16,62,3
-16,62,3
-17,62,2
-16,62,3
-16,62,3
-16,62,3
-16,62,3
-17,62,3
-16,62,3
-16,62,3
-16,62,3
-16,62,2
-16,62,3
-16,62,3
-17,62,3
-16,62,3
-16,62,3
-16,62,3
-16,62,2
-16,62,3
-16,62,2
-16,62,3
-16,62,3
-16,62,3
-17,62,3
-17,62,2
-17,62,3
-16,62,3
-16,62,3
-16,62,3
-16,62,3
-17,62,3
-17,62,3
-17,62,3
-16,62,3
-16,62,3
-16,62,3
-16,62,3
-16,62,3
-16,62,3
-17,62,3
-16,62,3
-16,62,3
-16,62,3
-17,62,3
-17,62,3
-16,62,3
-16,62,3
-16,62,3
-16,62,3
-16,62,3
-16,62,3
-16,62,3
-16,62,3
-16,62,2
-16,62,3
-16,62,3
-16,62,3
-16,62,3
-16,62,3
-16,62,3
-16,62,3
-16,61,2
-17,62,3
-16,62,2
-16,62,2
-16,62,3
-16,62,3
-16,62,3
-17,62,3
-16,62,3
-16,62,3
-16,62,2
-16,62,2
-16,62,3
-16,62,3
-16,62,3
-16,62,3
-16,62,3
-16,62,3
-16,62,3
-17,62,2
-16,62,3
-15,62,3
-16,62,3
-16,62,3
-16,62,3
-16,62,3
-17,62,3
-17,62,3
-16,62,3
-16,62,3
-16,62,3
-16,62,3
-16,62,3
-16,62,3
-16,62,3
-16,62,3
-16,62,3
-17,62,3
-16,62,3
-15,62,3
-16,62,3
-16,62,3
-16,62,3
-16,62,3
-17,62,3
-16,62,3
-16,62,3
-16,62,3
-16,62,3
-16,62,3
-16,62,3
-16,62,3
-16,62,3
-16,62,3
-16,62,2
-17,62,2
-16,62,2
-16,62,3
-15,62,2
-16,62,3
-16,62,4
-17,62,4
-17,62,3
-16,62,3
-16,62,3
-16,62,2
-16,62,3
-15,62,2
-15,62,3
-15,62,3
-15,62,3
-16,62,3
-16,62,3
-17,62,3
-17,62,2
-16,62,3
-16,61,3
-16,62,3
-16,62,3
-16,62,3
-16,62,3
-15,62,3
-16,62,2
-16,62,2
-15,62,2
-15,62,2
-15,63,3
-15,63,3
-15,62,3
-16,62,3
-16,62,2
-17,62,2
-16,62,2
-16,62,2
-16,62,3
-16,62,3
-16,63,3
-16,63,2
-16,62,3
-16,62,2
-16,62,2
-16,62,3
-16,62,2
-17,62,3
-17,62,3
-16,62,3
-16,62,3
-16,62,2
-16,62,2
-16,62,2
-16,62,3
-16,62,3
-16,62,3
-16,62,3
-16,62,3
-16,62,3
-16,62,3
-16,62,3
-16,62,2
-16,62,3
-16,62,2
-16,62,3
-16,62,3
-16,62,3
-16,62,2
-16,62,2
-16,62,2
-16,62,3
-16,62,3
-16,62,3
-16,62,3
-16,62,3
-17,62,3
-16,62,3
-16,62,3
-16,62,3
-16,62,3
-16,62,3
-16,62,3
-16,62,3
-16,62,3
-16,62,3
-16,62,3
-17,62,2
-16,62,2
-16,62,3
-16,62,3
-16,62,3
-17,62,3
-18,63,3
-16,62,3
-14,61,2
-13,61,2
-16,61,2
-19,63,4
-19,63,4
-19,63,5
-16,61,3
-16,61,2
-16,61,0
-17,62,0
-16,62,1
-15,62,2
-15,61,4
-15,61,4
-17,62,4
-18,62,4
-19,63,3
-18,63,2
-18,63,2
-16,62,2
-16,62,3
-17,62,4
-17,63,3
-16,62,3
-15,62,2
-17,61,1
-17,62,2
-17,62,2
-17,62,2
-16,61,2
-16,61,2
-16,61,3
-17,62,3
-17,62,3
-17,63,2
-16,63,3
-16,63,4
-14,62,3
-13,61,3
-14,61,2
-15,62,2
-17,62,2
-18,63,3
-17,62,3
-17,60,3
-16,61,3
-16,63,1
-16,64,3
-16,63,3
-15,62,3
-15,62,3
-15,62,2
-16,62,1
-16,62,2
-16,62,3
-17,62,3
-17,62,3
-16,62,3
-16,62,3
-16,62,2
-16,62,2
-16,62,2
-16,62,2
-16,62,2
-16,62,3
-16,62,3
-17,63,3
-16,64,4
-15,63,4
-14,62,4
-14,61,3
-13,62,2
-13,63,1
-14,62,1
-14,62,2
-16,62,3
-17,62,4
-18,62,4
-18,63,4
-18,63,3
-17,62,3
-15,62,2
-14,62,2
-14,62,2
-14,63,2
-13,63,3
-13,63,4
-14,63,3
-15,62,3
-15,62,3
-16,62,3
-16,62,3
-17,62,3
-16,62,3
-15,62,3
-15,62,3
-14,62,3
-14,62,3
-14,63,3
-15,62,3
-15,62,3
-16,62,3
-16,62,3
-16,62,3
-16,63,3
-15,62,3
-15,62,3
-15,62,3
-15,62,3
-16,62,3
-16,62,3
-16,62,3
-16,62,3
-16,62,3
-15,62,3
-15,62,2
-15,63,2
-15,63,3
-15,62,3
-15,63,3
-15,62,3
-16,62,3
-15,62,2
-15,62,3
-15,62,3
-15,62,3
-16,63,3
-16,62,3
-15,62,3
-15,62,3
-15,62,2
-15,62,2
-15,62,3
-15,62,3
-15,62,3
-15,62,3
-16,62,3
-15,62,3
-15,63,3
-15,62,2
-16,62,3
-15,62,3
-16,62,3
-16,62,3
-16,62,3
-16,62,3
-16,62,3
-15,61,3
-16,61,2
-15,63,3
-16,62,2
-15,62,3
-14,62,3
-15,62,3
-15,62,3
-15,62,3
-15,62,3
-16,62,3
-16,62,3
-16,62,3
-16,62,3
-16,62,3
-16,62,3
-16,62,3
-15,62,3
-15,63,3
-15,63,3
-15,62,3
-15,62,3
-15,62,3
-15,62,3
-16,63,4
-16,62,4
-15,61,3
-14,62,3
-15,63,4
-17,63,4
-16,62,4
-15,62,3
-15,63,4
-16,62,2
-17,63,3
-15,63,5
-15,60,3
-14,61,3
-14,62,2
-16,63,3
-16,63,4
-16,62,4
-16,62,4
-16,62,4
-16,62,3
-16,62,3
-16,63,3
-16,63,3
-16,62,3
-15,61,3
-14,61,2
-15,61,2
-15,62,2
-16,63,3
-17,63,4
-17,64,5
-17,63,4
-16,62,3
-14,62,2
-15,62,1
-15,62,0
-15,62,2
-15,62,3
-15,63,3
-16,63,3
-17,63,4
-16,63,4
-15,63,3
-15,62,2
-15,62,2
-14,61,2
-14,62,2
-15,62,3
-15,62,3
-16,62,3
-17,62,3
-17,63,3
-17,62,3
-16,62,3
-15,62,2
-14,62,2
-15,62,2
-15,62,2
-15,62,3
-15,62,3
-16,62,3
-16,62,3
-16,62,3
-16,62,3
-16,62,3
-16,62,3
-16,62,3
-15,62,3
-16,62,3
-16,62,2
-16,62,3
-16,62,3
-15,62,3
-15,62,2
-15,62,2
-16,63,2
-16,63,3
-15,62,3
-16,62,3
-16,62,3
-16,62,3
-16,62,3
-17,62,3
-16,62,3
-16,62,3
-16,62,3
-15,62,3
-15,62,2
-16,62,3
-16,62,3
-16,62,3
-16,62,3
-16,62,2
-16,62,2
-16,62,3
-15,62,3
-15,62,3
-16,62,3
-16,62,3
-16,62,3
-16,62,3
-16,62,3
-16,62,3
-16,62,3
-15,62,3
-16,62,3
-15,62,3
-15,62,3
-16,62,3
-16,62,3
-16,62,3
-16,62,3
-16,62,3
-15,62,3
-16,62,3
-16,62,3
-16,62,3
-16,62,3
-16,62,3
-15,62,3
-15,61,3
-15,62,2
-16,63,3
-17,63,4
-16,62,4
-16,62,3
-16,62,2
-16,62,2
-15,62,2
-15,62,3
-15,62,3
-16,62,4
-17,62,4
-17,62,3
-17,62,3
-16,62,2
-16,62,2
-16,62,2
-15,62,3
-15,62,3
-15,62,4
-16,62,3
-16,62,3
-16,62,3
-16,62,3
-17,62,2
-16,62,3
-15,61,3
-15,62,3
-16,62,3
-16,63,3
-16,62,3
-16,62,3
-15,62,3
-15,62,2
-15,63,3
-16,62,3
-15,62,3
-15,62,4
-15,62,4
-16,62,3
-16,62,3
-16,62,2
-16,62,3
-15,62,3
-15,62,3
-16,62,3
-16,62,3
-16,62,3
-15,62,3
-16,62,3
-16,62,3
-15,62,3
-16,62,3
-15,63,3
-15,62,3
-15,62,4
-15,62,3
-16,62,3
-16,62,3
-16,62,3
-15,62,3
-15,62,3
-16,62,3
-16,62,3
-16,62,3
-16,62,3
-16,62,3
-16,62,3
-16,62,3
-15,62,3
-15,63,3
-15,62,3
-15,62,3
-15,62,3
-16,62,3
-16,62,3
-16,62,3
-15,62,3
-16,62,3
-16,62,3
-16,62,3
-16,62,3
-16,62,3
-16,62,3
-15,62,3
-15,62,2
-15,62,3
-16,62,3
-16,63,3
-16,62,4
-16,62,3
-16,62,3
-16,62,3
-16,62,3
-16,62,3
-15,62,3
-15,62,3
-16,62,3
-16,62,3
-16,62,3
-16,62,3
-16,62,3
-15,62,3
-15,62,3
-15,62,3
-16,62,3
-16,62,3
-16,62,4
-16,62,3
-16,62,3
-16,62,3
-16,62,3
-15,62,3
-15,62,3
-15,62,3
-16,62,3
-16,62,3
-16,62,3
-16,62,3
-16,62,3
-16,62,3
-15,62,3
-15,62,3
-15,62,3
-15,62,3
-16,62,3
-16,62,3
-16,62,3
-16,62,3
-16,62,3
-16,62,3
-15,62,3
-15,62,3
-15,62,3
-16,62,3
-16,62,3
-16,62,3
-16,62,3
-16,62,3
-15,62,3
-16,62,3
-16,62,3
-16,62,3
-16,62,3
-16,62,3
-15,62,3
-15,62,3
-15,62,3
-16,62,3
-16,62,3
-16,62,3
-16,62,3
-15,62,3
-15,62,3
-16,62,3
-16,62,3
-16,62,3
-15,62,3
-16,62,3
-15,62,3
-15,62,3
-16,62,3
-15,62,3
-15,62,3
-16,62,3
-16,62,3
-15,62,3
-16,62,3
-16,62,3
-16,62,2
-15,62,3
-15,62,3
-16,62,3
-16,62,3
-16,62,3
-16,62,3
-16,62,3
-15,62,3
-16,62,3
-15,62,3
-16,62,3
-16,62,3
-16,62,3
-16,62,3
-15,62,3
-15,62,3
-16,62,3
-16,62,3
-15,62,3
-15,62,3
-15,62,3
-15,62,3
-16,62,3
-16,62,3
-16,62,3
-16,62,3
-15,62,3
-15,62,3
-15,62,3
-16,63,3
-16,62,3
-16,62,3
-16,62,3
-15,62,3
-15,62,3
-16,62,3
-16,62,3
-15,62,3
-15,62,3
-15,62,3
-15,62,3
-16,62,3
-16,62,3
-16,62,3
-16,62,3
-16,62,3
-15,62,3
-16,62,3
-16,62,3
-16,62,3
-15,62,3
-15,62,3
-15,62,3
-16,62,3
-16,62,3
-16,62,3
-15,62,3
-15,62,3
-15,62,3
-16,62,3
-16,62,3
-16,62,3
-16,62,3
-16,62,3
-15,63,3
-15,62,3
-15,62,3
-15,62,3
-16,62,3
-15,62,3
-15,62,3
-16,62,3
-16,62,3
-17,62,3
-16,62,3
-15,61,3
-15,62,3
-16,62,3
-16,62,3
-16,62,3
-16,62,3
-16,62,3
-16,62,3
-15,62,3
-15,62,3
-15,62,3
-16,62,3
-16,62,3
-16,62,3
-16,62,3
-16,62,3
-16,62,3
-16,62,3
-16,63,3
-16,62,3
-16,62,3
-16,62,3
-16,62,3
-16,62,3
-16,62,3
-16,62,3
-16,62,3
-15,62,3
-15,62,3
-15,62,3
-16,62,3
-16,62,3
-16,62,3
-16,62,3
-16,62,3
-16,62,3
-16,62,3
-15,62,3
-15,62,3
-15,62,3
-16,62,3
-16,62,3
-16,62,3
-16,62,3
-15,62,3
-15,62,3
-15,62,3
-16,62,3
-16,62,3
-16,62,3
-15,62,3
-16,62,3
-16,62,3
-16,62,3
-15,62,3
-15,62,3
-16,62,3
-16,62,3
-16,62,3
-16,62,3
-15,62,3
-15,62,3
-15,62,3
-15,62,3
-15,62,3
-15,62,3
-16,62,3
-16,62,3
-16,62,3
-16,62,3
-17,62,2
-16,62,3
-15,62,3
-15,62,3
-15,62,3
-16,62,3
-16,62,3
-16,62,3
-16,62,3
-16,62,3
-15,62,3
-16,62,3
-16,62,3
-16,62,3
-16,62,3
-15,62,3
-16,62,3
-16,62,3
-16,62,3
-16,62,3
-16,62,3
-15,62,3
-15,62,3
-16,62,3
-16,62,3
-16,62,3
-15,62,3
-15,62,3
-16,62,2
-16,63,3
-16,62,4
-16,61,3
-15,61,2
-15,61,2
-15,62,2
-16,63,3
-16,62,4
-16,63,4
-16,62,3
-15,62,3
-16,62,3
-16,62,2
-16,62,2
-16,62,3
-15,62,3
-16,62,3
-16,62,3
-16,62,3
-16,62,3
-16,62,3
-16,62,3
-15,62,3
-15,62,3
-16,62,3
-16,62,3
-16,62,3
-15,62,3
-15,62,3
-16,62,3
-16,62,3
-16,62,3
-16,62,3
-15,62,3
-15,62,3
-15,62,3
-15,62,3
-15,63,3
-16,62,3
-15,62,3
-15,62,3
-16,63,3
-16,62,3
-15,62,3
-15,62,3
-15,62,3
-15,62,3
-16,62,3
-16,62,3
-16,62,3
-16,62,3
-16,62,3
-16,62,3
-15,62,3
-15,62,3
-15,62,3
-15,62,3
-16,62,3
-16,62,3
-16,62,3
-16,62,3
-15,62,3
-15,62,3
-15,62,3
-15,62,3
-16,62,3
-16,62,3
-16,62,3
-16,62,3
-16,62,3
-16,62,2
-16,63,3
-15,62,3
-15,62,3
-15,62,3
-16,62,3
-16,62,3
-16,62,3
-15,62,3
-15,62,3
-15,62,3
-16,62,3
-16,62,3
-16,62,3
-16,62,3
-16,62,3
-16,62,3
-15,62,3
-15,62,3
-16,63,3
-15,62,3
-15,62,3
-16,62,3
-16,62,3
-16,62,2
-16,62,3
-15,62,3
-15,62,3
-16,62,3
-16,62,3
-16,62,3
-16,62,3
-16,62,3
-15,62,3
-15,62,3
-16,62,3
-16,62,3
-16,62,3
-15,62,3
-16,62,3
-16,62,3
-16,62,3
-16,62,3
-15,62,3
-15,62,3
-16,62,3
-15,62,3
-16,62,3
-15,62,3
-15,62,3
-16,62,3
-15,62,3
-16,63,3
-16,63,3
-16,62,3
-15,62,3
-16,62,3
-16,62,3
-16,62,3
-16,62,3
-15,62,3
-15,62,3
-16,62,3
-16,62,3
-16,62,3
-16,62,3
-16,62,3
-16,62,3
-15,62,3
-16,63,3
-16,62,3
-16,62,3
-15,62,3
-15,62,3
-16,62,3
-16,62,3
-16,62,3
-16,62,3
-15,62,3
-15,62,3
-16,62,3
-16,62,3
-16,62,3
-16,62,3
-16,62,3
-15,62,3
-15,62,3
-15,63,3
-15,62,3
-16,62,3
-16,62,3
-15,62,3
-16,62,3
-16,62,3
-16,62,3
-15,62,3
-16,62,3
-15,62,3
-15,62,4
-15,62,3
-16,62,3
-16,62,3
-16,62,3
-15,62,3
-15,62,3
-15,62,3
-15,62,3
-16,62,3
-15,62,3
-16,62,3
-15,62,3
-16,62,3
-16,62,3
-16,62,3
-15,62,3
-15,62,3
-15,62,3
-15,62,3
-16,62,3
-16,62,3
-16,62,3
-16,62,3
-16,62,2
-15,62,3
-16,62,3
-16,62,3
-16,62,3
-16,62,3
-15,62,3
-15,62,3
-15,62,2
-16,62,3
-15,62,3
-15,62,3
-15,62,4
-15,62,3
-16,62,3
-16,62,3
-16,62,3
-16,62,3
-15,62,3
-15,62,3
-15,62,3
-16,63,3
-15,62,3
-16,62,3
-15,62,3
-15,62,3
-16,62,2
-16,63,3
-16,63,3
-16,62,3
-15,62,3
-15,62,3
-16,62,3
-16,62,3
-16,62,3
-16,62,3
-16,62,3
-16,62,3
-15,62,3
-15,62,3
-16,62,3
-16,62,3
-16,62,3
-15,62,3
-16,62,3
-16,62,3
-16,62,3
-16,62,3
-15,62,3
-15,62,3
-16,62,3
-16,62,3
-16,62,3
-16,62,3
-16,62,3
-16,62,3
-15,62,3
-15,62,3
-16,63,3
-16,62,3
-15,62,3
-15,62,3
-16,62,3
-16,62,3
-16,62,3
-15,62,3
-15,62,3
-15,62,3
-15,62,3
-16,62,3
-16,62,3
-16,62,3
-16,62,3
-16,62,3
-16,62,3
-15,62,3
-15,62,3
-16,62,3
-17,63,4
-17,63,3
-15,62,3
-15,62,3
-16,62,2
-15,62,2
-15,62,3
-14,62,4
-15,62,4
-15,62,4
-16,62,4
-17,62,3
-16,62,3
-16,62,3
-15,62,2
-15,62,3
-15,62,3
-15,62,3
-16,62,3
-16,62,3
-16,62,3
-16,62,3
-16,62,3
-16,62,3
-16,62,3
-15,62,3
-15,62,4
-15,62,4
-15,62,3
-16,62,3
-16,62,3
-16,62,3
-15,62,3
-15,62,3
-15,62,3
-16,62,3
-16,62,3
-15,62,3
-15,62,3
-15,62,3
-16,62,3
-16,62,2
-15,61,2
-15,62,3
-16,62,4
-17,63,4
-17,63,4
-16,62,3
-16,62,2
-16,62,2
-15,62,3
-15,62,3
-15,62,3
-16,63,3
-16,62,3
-16,62,3
-16,62,3
-16,62,3
-16,62,3
-16,62,3
-16,62,3
-15,62,3
-15,62,3
-16,62,3
-16,62,3
-16,62,3
-16,62,3
-16,62,3
-16,62,3
-16,62,3
-16,62,3
-16,62,3
-15,62,3
-16,62,3
-16,62,3
-15,62,4
-16,62,3
-16,62,3
-16,62,3
-16,62,3
-16,62,3
-15,62,3
-16,62,3
-16,62,3
-16,62,3
-16,62,3
-16,62,3
-16,62,3
-15,62,3
-15,62,3
-15,62,3
-16,62,3
-16,62,3
-15,62,3
-15,62,3
-16,62,3
-16,62,3
-16,62,3
-15,62,3
-15,62,3
-15,62,3
-15,62,3
-16,63,3
-16,62,4
-16,62,3
-16,62,3
-16,62,3
-16,62,3
-16,62,3
-16,62,3
-16,62,3
-15,62,3
-15,62,3
-16,62,3
-16,62,3
-16,62,3
-16,62,3
-15,62,3
-16,62,3
-16,62,3
-16,62,3
-16,62,3
-15,62,3
-15,62,3
-15,62,3
-15,63,3
-16,62,3
-15,62,3
-15,62,3
-16,62,3
-16,62,3
-16,62,3
-16,62,3
-15,62,3
-15,62,3
-15,62,3
-16,62,3
-16,62,3
-16,62,3
-16,62,3
-16,62,3
-15,62,3
-16,62,3
-16,62,3
-15,62,3
-16,62,3
-15,62,3
-15,62,3
-16,62,3
-16,62,3
-16,62,3
-16,62,3
-15,62,3
-16,62,3
-16,62,3
-16,62,3
-16,62,3
-16,62,3
-16,62,3
-16,62,3
-15,62,3
-15,63,3
-16,62,3
-16,63,3
-15,62,4
-15,62,3
-16,62,3
-16,62,3
-16,62,2
-15,62,3
-15,62,3
-15,62,3
-15,62,3
-16,62,3
-16,62,3
-16,62,3
-16,62,3
-15,62,3
-15,62,3
-15,62,3
-15,62,3
-16,62,3
-16,62,3
-16,63,3
-15,62,3
-16,62,3
-16,62,3
-16,62,3
-15,62,3
-15,62,3
-15,62,3
-15,62,3
-16,62,4
-16,62,3
-15,62,3
-15,62,3
-15,62,2
-15,62,3
-15,62,3
-15,62,3
-15,62,3
-15,62,4
-16,62,4
-15,62,3
-16,62,3
-16,62,3
-16,62,2
-15,62,3
-15,62,3
-15,62,3
-15,62,3
-16,62,3
-16,62,3
-16,62,4
-16,62,3
-16,62,3
-15,62,3
-16,62,3
-15,62,3
-16,62,3
-15,62,3
-15,62,4
-15,62,3
-16,63,2
-16,62,2
-16,62,3
-15,62,4
-16,62,4
-16,63,4
-16,62,3
-16,62,3
-16,62,3
-16,62,3
-16,62,3
-15,62,3
-15,62,3
-16,62,3
-16,62,3
-16,62,3
-16,62,3
-15,62,3
-16,62,3
-16,62,3
-16,62,3
-15,62,3
-15,61,3
-15,62,3
-16,62,3
-16,62,3
-16,62,3
-16,62,3
-16,62,3
-16,62,3
-15,62,3
-15,62,3
-16,63,3
-16,62,3
-16,62,3
-16,62,3
-15,62,3
-16,62,3
-16,62,3
-16,62,3
-16,62,3
-16,62,3
-15,62,3
-16,62,3
-16,62,3
-16,62,3
-16,62,3
-16,62,3
-16,62,3
-16,62,3
-16,62,3
-16,62,3
-15,62,3
-15,62,3
-16,62,3
-15,62,3
-15,62,3
-15,62,3
-16,62,3
-16,62,3
-15,62,3
-15,62,3
-15,62,3
-16,62,3
-16,62,3
-16,62,3
-16,62,3
-16,62,3
-16,62,3
-16,62,3
-16,62,3
-17,62,3
-17,62,3
-17,62,3
-16,62,3
-16,62,3
-16,62,3
-16,62,3
-15,62,3
-15,62,3
-16,62,3
-16,62,3
-16,62,3
-17,62,3
-16,62,3
-16,62,3
-16,62,3
-16,62,3
-16,62,3
-16,62,3
-16,62,3
-16,62,3
-15,62,3
-16,62,3
-16,62,3
-17,62,3
-16,62,3
-15,62,3
-15,62,3
-15,62,3
-16,62,3
-16,62,3
-17,62,3
-16,62,3
-16,62,3
-16,62,3
-16,62,3
-16,62,3
-16,62,3
-16,62,3
-16,62,3
-15,62,3
-16,62,3
-16,62,3
-16,62,3
-16,62,3
-16,62,3
-15,62,3
-16,62,3
-16,62,3
-16,62,3
-16,62,3
-16,62,3
-15,62,3
-15,62,3
-15,62,3
-16,62,3
-16,62,3
-16,62,4
-16,62,3
-15,62,3
-16,62,3
-16,62,3
-16,62,3
-15,62,3
-15,62,4
-15,62,3
-16,62,4
-16,62,3
-16,62,3
-16,62,3
-16,62,3
-16,62,3
-16,62,3
-15,62,3
-15,62,3
-15,63,4
-15,62,3
-16,62,3
-16,62,3
-16,62,3
-17,62,3
-16,62,3
-16,62,3
-15,62,4
-15,62,4
-16,62,3
-16,62,3
-16,62,3
-16,62,3
-16,62,3
-16,62,3
-16,62,3
-16,62,3
-16,62,3
-16,63,3
-15,62,4
-15,62,3
-16,62,3
-16,62,3
-16,62,3
-15,62,3
-16,62,3
-15,62,3
-16,62,3
-16,62,4
-16,62,3
-16,62,3
-16,62,3
-15,62,3
-16,62,3
-16,62,3
-16,62,3
-16,62,4
-16,62,4
-16,62,3
-16,62,3
-16,62,3
-16,62,3
-15,62,4
-15,62,4
-15,62,3
-16,62,3
-16,62,3
-16,62,3
-16,62,3
-16,62,3
-16,62,3
-16,62,3
-16,62,3
-16,62,3
-16,62,3
-16,62,3
-15,62,3
-16,62,3
-16,62,3
-16,62,3
-15,62,3
-15,62,3
-15,62,3
-16,62,3
-16,62,3
-16,62,3
-16,62,3
-16,62,3
-15,62,3
-15,62,3
-16,62,3
-15,62,3
-15,62,3
-16,62,3
-16,62,3
-15,62,3
-15,62,3
-16,62,3
-16,62,3
-15,62,3
-15,62,3
-15,62,3
-16,62,3
-16,62,3
-16,62,3
-15,62,3
-15,62,3
-15,62,3
-16,62,3
-15,62,3
-16,62,3
-16,62,3
-16,62,3
-16,62,3
-15,62,3
-16,62,3
-16,62,3
-15,62,3
-15,62,3
-15,62,4
-16,62,4
-16,62,3
-16,62,3
-16,62,3
-15,62,3
-15,62,3
-15,62,3
-16,63,3
-15,62,3
-16,62,3
-15,62,4
-15,62,3
-16,62,3
-16,62,3
-17,62,3
-16,62,3
-15,62,3
-15,62,3
-16,62,3
-16,62,3
-16,62,3
-16,62,3
-16,62,3
-16,62,3
-15,62,3
-16,62,3
-16,62,3
-16,62,3
-16,62,3
-15,62,3
-16,62,3
-16,62,3
-16,62,3
-16,62,3
-15,62,3
-15,62,3
-16,62,3
-16,62,3
-16,62,3
-16,62,3
-16,62,3
-16,62,3
-16,62,3
-15,62,3
-16,63,4
-16,62,3
-16,62,3
-16,62,3
-15,62,3
-16,62,3
-16,62,3
-16,62,3
-16,62,4
-16,62,3
-15,62,3
-16,62,3
-16,62,3
-16,62,3
-15,62,3
-16,62,3
-16,62,3
-15,62,3
-15,62,3
-15,62,3
-15,62,3
-15,62,3
-15,62,4
-15,62,4
-16,62,3
-16,62,3
-16,62,3
-16,62,3
-15,62,4
-15,62,3
-16,62,3
-16,62,3
-16,62,4
-15,62,3
-15,62,3
-15,62,3
-16,62,3
-16,62,3
-16,62,3
-16,62,3
-16,62,3
-16,62,3
-15,62,3
-15,62,3
-16,62,3
-15,62,3
-15,62,4
-15,62,4
-16,62,3
-16,62,3
-16,62,3
-16,62,3
-15,62,3
-15,62,3
-15,62,3
-16,62,3
-16,62,3
-16,62,3
-16,62,3
-16,62,3
-15,62,3
-16,62,3
-16,62,3
-16,62,3
-15,62,3
-15,62,3
-15,62,3
-16,62,3
-16,62,3
-16,62,3
-16,62,3
-16,62,3
-16,62,3
-16,62,3
-15,62,3
-16,62,3
-16,62,3
-16,62,3
-16,62,3
-16,62,3
-16,62,3
-16,62,3
-16,62,3
-15,62,4
-15,62,3
-15,62,3
-15,62,3
-16,62,3
-16,62,4
-16,62,4
-15,62,3
-16,62,3
-15,62,3
-15,62,3
-16,62,3
-16,62,3
-16,62,3
-15,62,3
-16,62,3
-16,62,3
-16,62,3
-15,62,3
-15,62,3
-15,62,3
-15,62,3
-16,62,3
-16,62,3
-16,62,3
-15,62,3
-15,62,3
-15,62,3
-15,62,3
-15,62,4
-16,62,3
-16,62,3
-16,62,3
-15,62,3
-15,62,3
-16,62,3
-15,62,3
-15,62,3
-15,62,3
-15,62,3
-16,62,3
-16,62,3
-16,62,3
-16,62,3
-16,62,3
-16,62,3
-15,62,3
-16,62,3
-15,62,3
-16,62,3
-16,62,4
-16,62,3
-16,62,3
-16,62,3
-16,62,3
-16,62,3
-15,62,3
-15,62,3
-16,62,4
-16,62,3
-16,62,3
-16,62,3
-16,62,3
-16,62,3
-15,62,3
-16,62,3
-16,62,4
-16,62,3
-16,62,3
-15,62,3
-15,62,3
-16,62,3
-16,62,3
-16,62,3
-15,62,3
-15,62,3
-15,62,3
-15,62,3
-17,62,3
-16,62,4
-16,62,3
-16,62,3
-15,62,3
-16,62,3
-15,62,3
-15,62,3
-16,62,3
-16,62,3
-16,62,3
-16,62,3
-16,62,3
-16,62,3
-16,62,3
-15,62,4
-15,62,3
-16,62,3
-16,62,3
-16,62,3
-16,62,3
-16,62,3
-15,62,3
-15,62,3
-15,62,3
-15,62,3
-16,62,4
-16,62,3
-16,62,3
-16,62,3
-16,62,4
-16,62,3
-15,62,3
-15,62,3
-15,62,3
-15,62,3
-15,62,4
-16,62,3
-16,62,3
-16,62,3
-16,62,3
-15,62,3
-16,62,3
-15,62,3
-16,62,3
-15,62,3
-16,62,3
-16,62,4
-16,63,4
-16,62,3
-16,62,3
-16,62,3
-16,62,3
-15,62,3
-15,62,3
-15,62,3
-16,62,3
-16,62,3
-16,62,3
-16,62,3
-16,62,3
-16,62,3
-16,62,3
-16,62,3
-16,62,3
-16,62,3
-16,62,3
-15,62,3
-16,62,3
-16,62,3
-16,62,3
-16,62,3
-16,62,3
-15,62,3
-16,62,3
-16,62,3
-16,62,3
-16,62,3
-16,62,3
-16,62,3
-16,62,3
-16,62,3
-16,62,3
-16,62,3
-16,62,3
-16,62,3
-16,62,3
-15,62,3
-16,62,3
-16,62,3
-16,62,3
-15,62,3
-15,62,3
-16,62,3
-16,62,3
-16,62,3
-17,62,3
-16,62,3
-15,62,3
-16,62,3
-16,62,3
-16,62,3
-16,63,3
-16,62,3
-16,62,3
-16,62,3
-15,62,3
-16,62,3
-16,62,3
-16,62,3
-16,62,3
-16,62,3
-16,62,4
-16,62,3
-16,62,4
-16,62,4
-16,62,3
-15,62,3
-15,62,3
-15,62,3
-16,62,3
-16,62,3
-16,62,3
-16,62,3
-16,62,3
-15,61,3
-16,62,3
-16,62,2
-16,62,3
-15,62,3
-15,62,4
-15,62,4
-16,62,4
-16,62,3
-16,62,3
-16,62,3
-15,62,3
-16,62,3
-15,62,3
-15,62,3
-15,62,3
-16,62,4
-16,62,3
-16,62,3
-16,62,3
-16,62,3
-16,62,3
-15,62,3
-15,62,3
-15,62,3
-16,62,3
-16,62,3
-16,62,4
-16,62,4
-16,62,3
-16,62,3
-15,62,3
-15,62,3
-16,62,3
-16,62,3
-16,62,3
-16,62,3
-16,62,3
-16,62,3
-16,62,3
-16,62,3
-16,62,3
-16,62,3
-16,61,3
-17,62,5
-15,62,4
-16,62,2
-16,62,3
-15,62,3
-15,62,3
-16,62,3
-16,62,4
-16,62,3
-16,62,3
-16,62,3
-16,62,3
-16,62,3
-16,62,3
-16,62,3
-16,62,3
-15,62,3
-15,62,4
-16,62,4
-16,62,3
-16,62,3
-16,62,3
-16,62,3
-15,62,3
-15,62,3
-15,62,3
-15,62,3
-15,62,3
-16,62,3
-16,62,4
-16,62,3
-16,62,3
-15,62,3
-16,62,3
-16,62,3
-16,62,4
-15,62,4
-15,62,3
-16,62,3
-16,62,3
-16,62,3
-15,62,3
-15,62,3
-15,62,3
-15,62,3
-15,62,3
-16,62,3
-15,62,3
-16,63,3
-15,62,4
-15,62,3
-16,62,3
-16,62,3
-16,62,3
-15,62,3
-15,62,3
-16,62,3
-16,62,3
-16,62,4
-16,62,3
-16,62,3
-16,62,3
-16,62,3
-16,62,3
-16,62,3
-16,62,3
-16,62,3
-16,62,3
-15,62,3
-16,62,3
-16,62,3
-16,62,3
-16,62,3
-15,62,4
-15,62,3
-15,62,4
-16,62,4
-16,62,3
-16,62,3
-15,62,3
-15,62,3
-15,62,3
-16,62,3
-16,63,3
-16,62,3
-16,62,3
-15,62,3
-16,62,3
-16,62,3
-16,62,3
-16,62,3
-16,62,3
-16,62,3
-16,62,3
-16,62,3
-16,62,3
-16,62,3
-16,62,3
-16,62,3
-16,62,3
-16,62,3
-16,62,3
-16,62,3
-16,62,3
-16,62,3
-15,62,4
-16,62,3
-16,62,3
-16,62,3
-16,62,3
-15,62,4
-16,62,3
-16,62,3
-16,62,3
-16,62,3
-16,62,3
-15,62,3
-15,62,3
-15,62,3
-15,62,3
-16,63,4
-16,62,3
-16,62,3
-16,62,3
-15,62,3
-16,62,3
-16,62,3
-16,62,3
-16,62,3
-16,62,3
-15,62,3
-16,62,4
-16,62,3
-16,62,3
-16,62,3
-16,62,3
-16,62,3
-15,62,3
-15,63,3
-15,63,4
-15,63,4
-16,62,3
-16,62,3
-16,62,3
-17,62,3
-17,62,3
-16,62,3
-16,62,3
-16,62,4
-16,62,4
-16,62,3
-16,62,4
-16,62,3
-16,62,3
-15,62,3
-15,62,3
-15,62,3
-16,62,3
-16,62,3
-16,62,3
-16,62,3
-15,62,3
-16,62,3
-16,62,3
-16,62,3
-16,62,3
-15,62,3
-16,62,3
-16,62,4
-16,62,3
-16,62,3
-16,62,3
-16,62,3
-16,62,3
-16,62,3
-16,62,3
-16,62,3
-16,62,3
-16,62,3
-15,62,3
-16,62,3
-16,62,3
-17,62,3
-16,62,3
-16,62,3
-16,62,3
-16,62,3
-16,62,3
-16,62,3
-17,62,3
-16,62,3
-15,62,3
-16,62,3
-15,62,3
-16,62,3
-16,62,3
-16,62,3
-16,62,3
-16,62,3
-16,62,3
-16,62,3
-16,62,3
-16,62,3
-16,62,3
-15,62,3
-15,62,3
-16,62,4
-16,62,4
-16,62,3
-16,62,3
-16,62,3
-15,62,3
-16,62,3
-16,62,3
-16,62,3
-16,62,4
-16,62,3
-15,62,3
-16,62,3
-16,62,3
-16,62,3
-16,62,3
-16,62,3
-16,62,4
-16,62,4
-16,62,4
-16,62,3
-16,62,3
-15,62,3
-15,62,3
-15,62,3
-15,62,3
-15,62,3
-15,62,3
-16,63,3
-16,62,3
-16,62,4
-16,62,3
-17,62,3
-16,62,3
-16,62,3
-16,62,3
-16,62,3
-16,62,3
-16,62,3
-16,62,3
-16,62,3
-15,62,3
-15,62,3
-16,62,3
-16,62,3
-16,62,3
-16,62,4
-15,62,3
-15,62,4
-16,62,3
-16,62,3
-16,62,3
-15,62,3
-16,62,3
-15,62,3
-16,62,3
-16,62,3
-16,62,3
-17,62,3
-16,62,3
-16,62,3
-15,62,3
-16,62,3
-16,62,3
-16,62,3
-16,62,3
-15,62,3
-16,62,3
-17,62,3
-17,62,3
-16,62,3
-16,62,3
-16,62,3
-16,62,3
-16,62,3
-16,62,3
-16,62,3
-16,62,3
-16,62,3
-16,62,3
-16,62,3
-16,62,3
-16,62,3
-17,62,3
-16,62,3
-16,62,3
-16,62,3
-16,62,3
-16,62,3
-16,62,3
-16,62,3
-15,62,3
-16,62,3
-16,62,4
-16,62,3
-16,62,3
-16,62,3
-16,62,3
-15,62,3
-15,62,3
-16,62,3
-16,62,3
-16,62,3
-16,62,3
-16,62,4
-15,62,4
-15,62,3
-15,62,3
-16,62,3
-16,63,3
-16,62,4
-15,62,3
-16,62,3
-16,62,3
-15,62,3
-15,62,3
-15,62,3
-15,62,3
-16,62,3
-16,62,3
-16,62,3
-16,62,4
-16,62,3
-16,62,3
-16,62,3
-16,62,3
-15,62,4
-16,62,3
-16,62,3
-16,62,3
-15,62,3
-15,62,3
-16,62,3
-16,62,3
-16,62,3
-16,62,4
-16,62,3
-16,62,3
-16,62,3
-16,62,3
-16,62,3
-16,62,3
-16,62,3
-16,63,3
-16,62,3
-15,62,4
-15,62,3
-16,62,3
-16,62,3
-15,62,3
-15,62,3
-16,62,3
-16,62,3
-16,62,3
-16,62,3
-16,62,3
-16,62,3
-15,62,3
-15,62,3
-15,62,3
-16,62,3
-16,62,3
-16,62,3
-16,62,3
-16,62,3
-16,62,3
-16,62,3
-16,62,3
-16,62,3
-15,62,3
-16,62,3
-16,62,3
-16,62,3
-16,62,3
-16,62,3
-16,62,3
-16,62,3
-16,62,3
-16,62,3
-16,62,3
-17,63,3
-17,63,3
-15,62,3
-14,61,2
-14,61,3
-16,61,3
-17,62,4
-17,62,4
-17,62,4
-17,63,4
-17,63,4
-16,62,3
-15,62,2
-15,62,2
-14,61,2
-14,62,2
-15,62,2
-17,62,3
-17,62,4
-17,63,4
-16,63,3
-16,62,2
-15,62,2
-14,62,3
-14,62,2
-15,62,2
-16,63,3
-17,63,3
-16,62,3
-16,63,3
-16,62,3
-15,61,2
-14,61,3
-14,61,3
-16,62,4
-18,62,4
-17,62,4
-17,62,3
-17,62,2
-17,62,2
-16,62,2
-16,62,3
-15,62,3
-15,63,3
-15,63,3
-15,63,3
-14,62,3
-15,62,3
-15,62,3
-16,62,3
-16,62,4
-17,62,4
-17,62,3
-16,62,3
-16,62,3
-16,62,3
-15,62,3
-15,62,3
-15,62,3
-16,62,3
-16,62,3
-16,62,3
-16,62,3
-16,63,3
-16,62,3
-15,62,3
-15,62,3
-15,62,3
-16,62,3
-17,63,3
-17,62,3
-16,62,3
-16,62,3
-15,63,3
-15,63,3
-15,62,4
-16,62,4
-16,62,4
-16,62,3
-14,61,1
-14,61,2
-15,61,2
-17,62,4
-17,63,4
-17,63,5
-17,62,4
-17,62,3
-16,62,3
-15,62,2
-15,62,2
-15,61,3
-16,62,3
-17,62,3
-17,62,3
-17,63,4
-17,62,3
-16,62,3
-14,62,3
-14,62,3
-14,62,3
-15,62,3
-15,63,3
-16,62,3
-16,62,3
-16,62,4
-17,62,3
-17,62,3
-16,62,3
-16,62,3
-15,62,3
-15,62,3
-15,62,3
-15,62,3
-16,62,3
-16,62,3
-16,62,3
-16,62,3
-16,62,3
-16,62,3
-16,62,3
-15,62,3
-15,62,3
-15,62,3
-15,62,3
-16,62,3
-16,62,3
-16,62,3
-16,62,3
-16,62,3
-16,62,3
-15,62,3
-15,62,3
-15,62,3
-16,62,3
-15,62,3
-16,62,3
-16,62,3
-16,62,3
-16,62,3
-16,62,3
-16,62,3
-16,62,4
-16,62,4
-16,62,4
-16,62,3
-16,62,3
-15,62,3
-15,62,3
-15,62,3
-15,62,3
-15,62,3
-16,62,4
-15,62,4
-16,62,3
-16,62,2
-16,63,4
-16,62,4
-15,61,3
-14,62,3
-15,62,3
-16,62,3
-16,62,4
-16,62,4
-16,62,4
-16,62,3
-16,62,3
-15,62,3
-15,62,2
-15,62,3
-15,62,4
-16,62,4
-16,63,4
-16,63,4
-16,62,3
-15,61,3
-15,62,3
-16,62,3
-16,62,4
-16,62,4
-16,62,3
-16,62,3
-16,62,3
-16,62,3
-15,62,3
-15,62,3
-16,62,3
-16,62,4
-16,62,4
-15,62,4
-16,62,3
-16,62,3
-16,62,3
-16,62,3
-16,62,3
-15,62,3
-16,62,4
-16,62,4
-16,62,4
-16,62,3
-16,62,3
-16,62,3
-16,62,3
-16,62,3
-15,62,3
-15,62,4
-15,62,4
-16,62,4
-16,62,4
-16,63,4
-17,62,3
-17,62,3
-15,62,4
-15,62,3
-15,62,3
-15,62,3
-16,62,4
-16,62,4
-16,62,4
-17,62,3
-16,62,3
-16,62,3
-16,62,3
-15,62,3
-15,62,3
-15,62,3
-15,62,3
-15,62,3
-16,62,3
-16,62,3
-16,62,3
-15,62,3
-16,62,4
-16,62,4
-16,62,4
-16,62,3
-16,62,3
-15,62,3
-15,62,3
-15,62,3
-16,63,3
-16,62,3
-16,62,4
-16,62,4
-16,62,3
-16,62,3
-16,62,3
-16,62,3
-16,62,3
-15,62,3
-15,62,3
-15,62,3
-16,62,3
-16,62,4
-16,62,3
-16,62,3
-16,62,3
-16,62,4
-16,63,4
-16,62,4
-16,62,3
-16,62,3
-15,62,3
-15,62,3
-16,62,3
-16,62,3
-16,62,3
-16,62,4
-15,62,4
-16,62,4
-16,62,3
-16,62,3
-16,62,4
-16,62,4
-16,62,3
-16,62,3
-16,62,3
-15,62,3
-16,62,3
-16,62,3
-15,62,3
-16,62,3
-16,62,3
-16,62,3
-16,62,3
-16,62,4
-15,62,4
-15,62,4
-16,62,4
-16,62,3
-16,62,4
-16,62,4
-15,62,3
-15,62,3
-15,62,3
-15,62,3
-16,63,4
-16,63,4
-15,62,4
-15,61,4
-15,61,3
-16,62,2
-17,62,3
-17,63,4
-17,62,4
-15,62,4
-15,62,4
-16,62,3
-16,62,3
-15,62,3
-15,62,3
-15,62,3
-16,62,3
-16,62,4
-16,62,4
-16,62,4
-16,62,3
-16,62,4
-16,62,3
-15,62,3
-16,62,3
-16,62,3
-16,62,3
-15,62,3
-15,62,4
-15,62,4
-16,62,3
-16,62,4
-16,62,4
-15,62,3
-15,62,3
-15,62,3
-15,62,3
-15,62,4
-15,63,4
-15,62,3
-15,62,3
-15,62,3
-15,62,3
-15,62,3
-16,62,3
-16,62,3
-16,62,3
-15,62,4
-15,62,3
-15,62,4
-16,62,3
-16,62,4
-16,62,3
-16,62,3
-16,62,3
-15,62,3
-15,62,3
-16,62,3
-15,62,3
-16,62,3
-16,62,4
-15,62,4
-16,62,3
-16,62,3
-16,62,3
-15,62,3
-15,62,3
-15,62,4
-16,62,4
-15,62,4
-16,62,3
-16,62,3
-16,62,3
-15,62,3
-15,62,3
-15,62,3
-16,62,4
-16,62,3
-16,62,3
-16,62,4
-15,62,3
-16,62,3
-16,62,3
-16,62,3
-16,62,3
-15,62,3
-16,62,3
-16,62,3
-16,62,3
-16,62,4
-16,62,3
-16,62,3
-16,62,3
-15,62,3
-15,62,3
-15,62,3
-15,62,3
-16,62,3
-16,62,3
-15,62,3
-16,62,3
-16,63,3
-16,63,3
-15,62,3
-15,62,3
-15,62,3
-15,62,3
-16,62,3
-16,62,3
-16,62,3
-16,62,3
-15,62,3
-15,62,3
-15,62,3
-15,62,3
-16,62,3
-16,62,3
-15,62,4
-16,62,3
-15,62,4
-15,62,3
-16,62,3
-16,62,3
-15,63,3
-15,62,4
-15,61,4
-16,62,3
-16,62,3
-16,62,4
-16,62,4
-16,62,3
-15,62,3
-15,62,3
-16,62,3
-16,62,3
-16,62,3
-16,62,3
-16,62,3
-16,62,4
-17,62,3
-17,63,3
-17,63,3
-16,63,3
-15,62,3
-15,61,5
-14,62,5
-15,63,4
-16,63,3
-15,62,2
-15,62,2
-15,62,2
-15,62,2
-15,62,3
-16,62,4
-17,62,4
-17,62,4
-17,62,4
-17,62,4
-17,63,3
-17,63,3
-16,63,3
-15,61,2
-15,62,3
-16,62,3
-14,61,4
-15,61,4
-15,61,3
-16,62,3
-18,62,3
-18,62,4
-18,62,4
-17,62,3
-16,62,2
-15,62,2
-16,62,3
-16,62,3
-15,63,3
-15,62,3
-15,62,3
-16,63,3
-16,62,3
-16,62,3
-16,63,2
-17,62,3
-17,62,4
-17,62,3
-15,62,3
-15,62,2
-16,61,2
-17,62,3
-17,62,3
-17,63,4
-16,62,3
-17,62,3
-16,62,3
-15,62,3
-15,62,3
-16,62,3
-16,62,3
-16,61,3
-16,61,3
-17,63,4
-17,63,4
-17,63,3
-16,62,3
-16,62,3
-16,62,3
-16,62,3
-16,62,3
-16,62,3
-17,62,3
-17,62,3
-17,62,3
-17,62,3
-16,62,3
-16,62,2
-16,62,2
-16,62,3
-16,62,3
-16,62,3
-16,62,3
-17,63,3
-18,62,3
-18,62,3
-16,62,3
-16,62,3
-16,62,2
-16,62,3
-15,62,3
-16,62,3
-17,62,3
-17,62,3
-17,62,3
-17,62,3
-16,61,3
-16,62,3
-17,63,2
-16,62,3
-16,62,3
-15,62,3
-15,62,3
-17,62,3
-17,63,3
-17,63,4
-17,62,3
-16,61,3
-17,61,2
-17,62,3
-17,62,3
-16,62,3
-16,62,3
-16,62,3
-17,62,3
-17,62,3
-17,62,3
-17,62,3
-16,62,2
-16,62,3
-16,62,3
-16,62,3
-16,62,3
-16,62,3
-17,62,3
-17,62,3
-17,62,3
-18,62,3
-17,61,3
-16,61,3
-16,62,3
-16,62,3
-16,62,3
-16,61,3
-16,62,3
-17,62,3
-18,62,3
-18,62,3
-16,62,3
-16,62,3
-15,62,3
-16,62,3
-17,62,4
-17,62,3
-17,61,3
-17,61,3
-17,62,3
-17,62,3
-17,62,3
-17,62,3
-17,61,3
-16,61,3
-16,62,3
-16,62,3
-17,63,3
-18,62,3
-18,62,4
-17,62,3
-17,62,3
-16,61,3
-16,62,2
-17,62,2
-16,62,3
-16,62,3
-16,62,3
-16,62,3
-16,61,3
-16,61,2
-16,61,2
-17,61,3
-18,61,3
-19,62,4
-18,62,4
-18,63,4
-19,62,3
-18,62,2
-18,62,2
-17,61,1
-16,62,1
-16,63,1
-15,62,2
-15,62,3
-15,63,4
-16,62,4
-18,62,4
-18,62,4
-18,61,3
-18,62,2
-18,62,2
-17,62,2
-16,61,3
-15,61,3
-15,62,3
-16,62,3
-17,62,3
-16,62,3
-17,61,3
-17,62,3
-17,62,3
-17,62,3
-17,62,3
-17,62,3
-17,63,4
-18,63,3
-16,62,2
-15,61,2
-15,62,1
-15,62,1
-16,62,2
-15,61,4
-17,63,4
-17,63,4
-16,62,3
-16,60,2
-16,60,2
-18,64,2
-15,62,1
-15,62,1
-16,61,3
-20,61,4
-21,61,4
-21,62,4
-20,61,2
-19,61,2
-17,61,2
-16,61,-1
-15,62,0
-15,61,2
-16,62,3
-16,63,4
-16,62,4
-17,62,3
-18,62,2
-19,64,2
-18,63,2
-17,62,2
-16,62,3
-17,63,4
-19,65,4
-21,65,2
-17,60,0
-15,57,0
-12,58,1
-15,62,0
-16,64,0
-17,64,2
-16,63,3
-17,63,3
-19,66,2
-17,64,4
-15,62,4
-15,61,4
-17,59,3
-18,60,3
-19,61,3
-18,62,3
-17,61,2
-15,61,2
-16,61,1
-17,62,2
-17,61,2
-17,60,2
-15,56,3
-14,56,4
-15,57,4
-16,57,2
-16,54,3
-16,55,2
-19,72,-2
-19,79,2
-19,71,1
-21,61,5
-19,62,6
-15,65,6
-13,70,4
-17,65,2
-18,63,3
-16,60,4
-15,60,4
-15,60,2
-16,61,1
-17,61,1
-17,61,1
-18,62,1
-17,61,2
-17,60,3
-17,60,3
-16,60,4
-16,60,4
-17,60,4
-17,61,5
-17,61,5
-17,62,6
-17,63,6
-17,63,6
-17,64,7
-17,62,6
-17,62,6
-16,59,5
-17,59,5
-17,60,6
-18,61,6
-18,61,5
-18,61,5
-18,61,4
-19,59,4
-19,59,5
-18,61,10
-25,63,10
-21,61,8
-20,61,6
-18,62,4
-17,62,4
-18,62,3
-18,61,3
-17,61,4
-16,61,4
-17,61,4
-17,62,4
-15,63,6
-16,63,7
-18,62,6
-17,62,5
-17,63,5
-16,63,4
-17,62,3
-17,61,4
-16,61,3
-16,61,3
-16,61,3
-17,62,3
-17,62,4
-17,62,4
-17,63,5
-16,62,5
-16,62,5
-15,63,4
-16,63,3
-15,63,3
-15,63,3
-14,62,3
-14,62,4
-14,62,3
-14,63,3
-15,62,3
-16,61,3
-15,61,3
-16,61,3
-17,62,4
-17,63,5
-18,63,5
-17,62,4
-16,61,3
-16,61,4
-17,62,5
-17,64,5
-17,63,5
-16,61,5
-15,61,3
-15,61,3
-16,62,2
-17,63,3
-17,63,3
-16,62,4
-16,62,5
-16,61,6
-16,61,5
-16,62,5
-16,63,5
-17,63,5
-17,62,6
-17,62,6
-17,61,5
-17,61,5
-17,61,4
-17,61,4
-17,62,4
-16,62,5
-15,62,5
-15,62,5
-16,62,6
-16,61,6
-17,60,6
-17,61,7
-18,61,6
-19,61,6
-19,61,6
-18,61,6
-18,62,6
-17,61,6
-17,61,6
-16,61,6
-16,62,5
-16,62,6
-16,62,6
-16,62,6
-16,62,5
-17,62,6
-17,61,6
-17,61,6
-16,61,6
-17,61,5
-17,61,6
-18,61,6
-18,62,5
-17,62,6
-17,62,6
-16,61,6
-16,61,6
-16,61,5
-17,63,6
-17,63,6
-18,63,5
-17,62,6
-16,61,6
-16,61,6
-17,61,6
-18,62,6
-18,62,5
-17,62,5
-16,61,5
-16,61,6
-16,62,6
-16,62,6
-17,62,6
-16,62,6
-17,62,6
-17,62,5
-17,62,6
-17,61,6
-17,61,6
-17,62,6
-17,62,5
-17,62,6
-16,61,6
-16,61,6
-16,61,6
-17,62,5
-17,62,5
-17,62,6
-16,61,6
-16,62,6
-16,62,6
-17,62,6
-17,62,6
-17,61,6
-16,61,6
-17,61,6
-17,62,6
-17,62,6
-17,62,6
-16,61,6
-16,61,5
-16,62,5
-16,61,6
-16,61,6
-17,61,6
-17,62,6
-17,62,6
-17,62,6
-17,62,6
-17,61,6
-16,61,6
-16,61,6
-16,62,6
-17,62,6
-17,61,6
-17,61,6
-17,62,6
-17,61,5
-17,62,7
-17,61,6
-17,61,6
-17,62,6
-16,61,6
-17,61,6
-17,62,6
-17,62,6
-17,61,6
-16,61,6
-17,61,6
-17,61,6
-17,62,6
-17,62,6
-17,62,6
-17,62,6
-17,61,6
-17,61,6
-17,61,6
-16,62,6
-17,61,6
-16,61,6
-17,61,6
-16,61,6
-17,61,6
-17,62,6
-17,62,6
-17,62,6
-17,62,6
-17,61,6
-16,62,6
-16,61,6
-17,62,6
-17,61,6
-17,61,6
-17,61,6
-17,62,6
-17,62,6
-17,61,6
-17,61,6
-17,61,6
-16,61,6
-16,61,6
-17,62,6
-17,62,6
-17,61,6
-17,61,6
-17,61,6
-17,62,6
-17,62,6
-17,61,6
-17,62,6
-17,61,6
-17,62,6
-17,61,6
-17,62,6
-17,62,6
-17,61,6
-17,61,6
-17,61,7
-17,61,6
-17,62,5
-17,62,6
-17,62,5
-16,62,6
-16,62,6
-16,62,6
-17,62,6
-17,61,6
-17,61,6
-18,61,6
-18,61,6
-18,61,6
-17,61,6
-17,62,6
-17,62,6
-16,62,6
-16,62,6
-16,62,6
-17,62,6
-17,62,6
-17,61,6
-16,61,6
-17,62,6
-17,62,6
-17,61,5
-16,61,6
-16,61,6
-16,62,6
-16,61,6
-16,62,6
-16,62,6
-16,62,6
-16,62,6
-17,61,6
-16,61,6
-16,61,6
-17,61,6
-17,62,6
-16,62,6
-16,62,6
-16,61,6
-16,61,6
-16,61,6
-16,61,6
-16,62,6
-17,61,6
-17,61,6
-16,61,6
-16,62,6
-17,62,6
-17,62,6
-16,62,6
-16,62,6
-17,61,6
-17,62,6
-17,62,6
-17,62,6
-17,62,6
-17,62,6
-16,62,6
-17,62,6
-17,62,6
-16,61,6
-16,61,6
-16,61,6
-17,62,6
-17,62,6
-17,62,6
-16,61,6
-16,61,6
-17,62,6
-17,62,6
-16,62,5
-16,62,6
-17,61,6
-17,61,6
-17,61,6
-17,62,6
-17,62,6
-17,62,6
-17,61,6
-17,62,6
-17,62,6
-17,62,6
-17,62,6
-16,61,6
-16,61,6
-17,62,6
-17,62,6
-17,62,6
-16,61,6
-17,61,6
-17,62,6
-17,62,6
-17,62,6
-17,62,6
-17,62,6
-17,61,6
-17,62,6
-17,62,6
-17,61,6
-17,61,6
-16,61,6
-17,61,6
-17,61,6
-17,61,5
-18,62,5
-18,62,6
-17,62,5
-16,61,6
-16,61,6
-17,61,6
-18,61,5
-18,61,6
-17,61,6
-17,62,6
-17,62,5
-17,62,6
-17,61,6
-17,62,6
-17,62,6
-17,61,6
-17,62,6
-17,61,6
-17,61,5
-17,61,5
-17,61,6
-17,62,6
-17,61,6
-17,61,6
-17,61,6
-17,62,6
-17,62,6
-17,62,6
-17,62,6
-17,61,6
-17,62,6
-17,62,6
-17,62,6
-18,62,6
-17,62,6
-17,61,6
-16,62,6
-17,62,6
-17,62,6
-17,62,6
-17,62,6
-17,61,6
-17,61,6
-17,62,6
-17,62,6
-17,62,6
-17,62,6
-17,62,6
-17,62,6
-17,62,6
-17,62,6
-17,62,6
-16,62,6
-16,62,6
-16,61,6
-16,61,6
-16,62,6
-17,62,6
-17,61,6
-17,61,6
-17,61,6
-17,61,6
-17,62,6
-16,61,6
-16,62,6
-17,61,6
-17,62,6
-17,62,6
-17,61,6
-17,62,6
-17,61,6
-17,61,6
-17,62,6
-17,61,6
-17,62,6
-17,61,6
-17,62,6
-17,61,6
-17,60,6
-17,61,5
-17,63,6
-17,63,6
-17,62,6
-16,61,6
-16,61,6
-17,61,6
-18,62,5
-17,61,5
-17,62,6
-16,61,6
-16,61,6
-16,62,6
-17,61,6
-17,62,6
-17,62,6
-17,62,6
-17,61,6
-17,61,6
-17,62,6
-17,62,6
-17,61,6
-17,61,6
-16,62,6
-16,62,6
-16,61,6
-17,62,6
-17,62,6
-17,62,6
-17,61,6
-17,61,6
-17,62,6
-17,62,6
-17,62,6
-16,61,6
-16,61,6
-16,61,6
-17,62,6
-17,62,6
-18,61,6
-17,62,6
-17,61,6
-17,61,6
-17,62,6
-17,61,6
-17,61,6
-17,62,6
-17,61,6
-17,61,6
-17,62,6
-17,62,6
-17,62,6
-17,61,6
-17,62,6
-17,62,6
-16,61,6
-16,61,6
-17,61,6
-17,62,6
-18,62,6
-17,61,6
-17,62,6
-17,62,6
-16,62,6
-16,61,6
-17,62,6
-17,62,6
-17,62,6
-17,61,6
-17,61,6
-17,61,6
-17,61,6
-17,62,6
-17,62,6
-17,62,6
-17,61,6
-16,62,6
-17,62,6
-17,62,6
-16,61,6
-16,61,6
-17,61,6
-17,62,6
-17,62,6
-17,61,6
-16,61,6
-16,61,6
-17,61,6
-17,62,6
-17,62,6
-17,61,6
-17,61,6
-17,61,6
-17,62,6
-17,61,6
-17,61,6
-17,62,6
-17,62,6
-17,62,6
-17,61,6
-16,61,6
-17,62,6
-17,62,6
-17,61,6
-17,62,6
-17,61,6
-17,62,6
-17,62,6
-17,62,6
-17,61,6
-17,61,6
-17,61,6
-17,61,6
-17,61,6
-17,61,6
-17,62,6
-17,62,6
-17,62,6
-17,62,6
-16,61,6
-17,61,6
-17,61,6
-18,62,6
-17,62,6
-16,61,6
-16,62,5
-16,62,6
-17,62,6
-17,62,6
-17,61,6
-17,61,6
-17,61,6
-17,62,6
-17,62,6
-17,61,6
-17,62,6
-17,62,6
-17,62,6
-16,62,6
-16,61,6
-17,62,6
-17,62,6
-18,62,6
-17,62,6
-16,61,6
-16,61,6
-17,61,6
-17,62,6
-17,62,6
-17,61,6
-17,61,6
-17,61,6
-17,62,6
-17,62,6
-17,61,6
-17,62,6
-16,61,6
-17,62,6
-17,62,6
-16,61,6
-16,61,6
-17,62,6
-17,62,6
-17,62,6
-16,61,6
-16,61,6
-16,61,6
-17,61,6
-17,61,6
-17,61,6
-17,61,6
-17,61,6
-17,61,6
-17,61,6
-17,62,6
-17,62,6
-17,62,6
-17,62,6
-16,61,6
-16,61,6
-17,62,6
-17,62,6
-17,62,6
-17,61,6
-16,61,6
-17,61,6
-17,62,6
-17,61,6
-17,61,6
-17,61,6
-17,61,6
-17,62,6
-17,62,6
-17,62,6
-17,62,6
-17,62,6
-17,61,6
-16,61,6
-17,61,6
-17,62,6
-17,62,6
-17,62,6
-17,61,6
-16,62,6
-17,62,6
-17,61,6
-17,61,6
-17,62,6
-17,62,6
-17,61,6
-17,62,6
-17,61,6
-17,62,6
-17,61,6
-17,62,6
-17,61,6
-16,61,6
-17,62,6
-17,62,6
-17,61,6
-16,61,6
-16,61,6
-16,61,6
-16,62,6
-17,62,6
-17,62,6
-17,61,6
-17,62,6
-17,61,6
-17,61,6
-17,61,6
-17,61,6
-17,62,6
-17,62,6
-17,61,6
-16,61,6
-16,61,6
-17,61,6
-17,61,6
-17,62,6
-17,61,6
-17,61,6
-17,61,6
-17,62,6
-17,62,6
-17,61,6
-17,62,6
-17,62,6
-17,62,5
-17,61,6
-17,61,6
-17,61,6
-18,61,6
-18,62,6
-17,61,6
-17,61,6
-17,61,6
-17,62,6
-17,61,6
-17,62,6
-17,62,6
-17,61,6
-16,61,6
-16,61,6
-17,62,6
-17,62,6
-17,61,6
-17,61,6
-17,62,6
-17,61,6
-17,62,6
-17,61,6
-17,61,6
-16,62,6
-17,62,6
-17,62,6
-16,61,6
-17,61,6
-17,61,6
-17,62,6
-17,62,6
-17,61,6
-16,62,7
-16,62,6
-16,61,6
-17,61,6
-17,62,6
-17,61,6
-17,61,6
-17,62,6
-17,62,7
-18,62,7
-17,61,7
-16,60,6
-16,61,5
-16,61,5
-17,62,5
-16,62,6
-15,62,6
-17,63,6
-17,61,7
-17,61,7
-16,61,7
-17,62,6
-18,62,6
-19,61,6
-18,61,6
-18,61,6
-18,62,7
-17,62,7
-16,61,6
-15,61,6
-16,61,5
-16,62,6
-17,61,6
-17,61,6
-17,60,6
-17,61,5
-18,62,6
-18,62,6
-17,63,6
-16,63,7
-16,63,7
-17,62,7
-17,61,6
-17,61,6
-18,61,6
-18,61,6
-19,61,6
-18,61,6
-17,61,6
-17,61,6
-17,62,6
-17,62,6
-17,62,6
-16,61,6
-16,61,6
-17,61,5
-17,61,6
-18,61,6
-17,61,6
-18,61,7
-18,61,7
-18,61,6
-18,62,6
-18,62,6
-17,62,6
-17,62,6
-17,61,6
-16,61,6
-16,61,6
-17,61,6
-18,62,7
-19,62,7
-19,61,7
-17,61,6
-16,61,5
-16,62,5
-17,63,5
-17,63,6
-16,62,7
-17,61,7
-18,61,7
-18,61,7
-18,61,5
-18,61,5
-17,61,5
-17,61,5
-16,62,6
-16,62,7
-16,62,7
-16,62,6
-16,61,6
-16,61,6
-16,61,6
-16,61,6
-17,62,6
-18,62,7
-18,62,7
-18,62,7
-17,61,7
-17,61,6
-17,61,5
-16,62,5
-16,62,6
-16,62,7
-16,62,7
-17,62,7
-17,62,6
-17,61,6
-17,61,6
-17,61,6
-17,61,6
-18,61,6
-17,61,7
-17,61,7
-17,61,7
-17,62,6
-17,61,6
-16,61,6
-17,61,6
-17,61,6
-17,61,6
-16,61,6
-16,61,6
-16,62,6
-18,62,6
-18,62,7
-18,61,7
-19,60,7
-20,61,6
-21,62,5
-19,62,5
-17,61,5
-15,60,6
-15,61,7
-16,62,7
-17,63,5
-15,62,5
-15,61,5
-17,59,5
-19,61,6
-20,62,6
-21,63,6
-21,61,7
-20,60,7
-19,60,6
-18,61,5
-17,62,5
-16,63,5
-16,62,6
-17,61,6
-16,62,5
-14,61,4
-14,61,4
-17,61,4
-18,61,7
-20,61,7
-20,62,8
-20,61,7
-19,61,6
-18,60,6
-17,61,5
-16,62,5
-16,63,5
-16,62,4
-15,62,4
-15,62,5
-16,63,6
-17,63,6
-18,62,7
-18,61,6
-18,61,6
-19,61,5
-19,61,5
-19,62,5
-18,62,5
-17,61,5
-16,61,5
-16,61,5
-16,61,5
-16,61,5
-16,62,5
-16,62,5
-17,62,5
-17,62,5
-17,63,4
-17,63,6
-16,62,8
-17,61,7
-16,62,6
-16,62,5
-16,62,4
-16,61,3
-17,61,4
-16,61,5
-17,62,6
-16,63,7
-16,62,7
-15,62,7
-15,62,6
-15,62,5
-16,62,5
-16,61,5
-16,61,5
-16,61,5
-15,62,6
-15,62,6
-15,62,6
-15,62,6
-16,62,6
-15,62,6
-15,61,6
-15,61,6
-15,61,5
-15,63,4
-14,63,4
-14,62,6
-14,60,6
-14,61,7
-15,62,6
-15,62,5
-16,62,5
-16,62,6
-17,61,6
-17,61,6
-17,62,6
-17,62,6
-17,62,6
-17,61,6
-16,61,6
-15,62,5
-16,62,5
-16,62,5
-16,63,5
-15,62,5
-15,62,5
-15,62,5
-16,62,5
-17,62,5
-17,62,6
-18,61,6
-18,61,6
-17,62,5
-17,62,5
-16,63,6
-16,63,5
-15,62,5
-15,62,5
-14,62,5
-16,62,5
-16,62,5
-17,62,5
-17,62,6
-17,62,6
-16,61,6
-16,62,5
-16,62,5
-16,62,5
-16,62,5
-15,62,6
-16,62,5
-16,62,5
-16,62,5
-16,62,5
-16,61,6
-16,61,6
-16,60,6
-15,61,5
-17,62,5
-17,63,6
-17,64,6
-17,63,6
-15,62,6
-15,61,5
-14,61,5
-15,62,5
-16,62,5
-16,62,6
-16,62,6
-17,62,6
-17,62,6
-16,62,6
-16,61,5
-15,61,5
-15,61,5
-16,62,5
-17,62,5
-17,62,5
-16,62,5
-16,62,6
-16,62,6
-16,62,5
-16,62,5
-16,62,6
-16,62,5
-16,62,6
-16,62,6
-16,62,6
-16,62,5
-16,62,5
-16,62,5
-16,62,5
-16,62,5
-16,61,6
-16,61,5
-17,62,5
-17,62,5
-16,62,5
-16,61,5
-16,61,5
-16,61,5
-16,62,6
-16,62,6
-16,62,5
-16,62,5
-16,62,5
-16,62,5
-16,62,5
-16,62,5
-16,62,5
-16,62,6
-17,62,6
-16,61,6
-16,62,5
-17,62,5
-17,62,5
-16,62,6
-16,62,5
-16,61,6
-16,62,5
-16,62,5
-16,62,5
-16,62,5
-16,62,5
-16,62,5
-16,62,5
-16,62,5
-17,62,5
-16,62,5
-17,62,5
-16,62,6
-16,61,6
-16,61,6
-16,62,5
-17,62,5
-17,62,5
-16,62,6
-16,62,6
-16,62,5
-16,62,5
-16,62,5
-17,62,5
-17,62,5
-16,62,5
-16,62,5
-16,62,5
-16,62,6
-16,62,5
-17,62,5
-17,62,5
-16,61,6
-16,61,5
-16,62,5
-17,62,5
-17,62,5
-16,62,6
-16,62,6
-16,62,5
-16,61,5
-16,62,5
-16,62,5
-16,62,5
-16,62,5
-16,62,6
-16,62,5
-17,62,5
-17,62,5
-16,61,5
-16,62,6
-16,61,6
-16,62,6
-16,62,5
-17,62,5
-17,62,5
-16,62,5
-16,62,5
-16,62,5
-16,62,5
-16,62,6
-16,62,6
-16,62,5
-16,62,5
-16,62,5
-16,62,6
-16,62,6
-16,62,6
-16,62,6
-16,62,6
-16,62,6
-16,62,5
-17,62,5
-17,62,5
-16,62,5
-16,62,6
-16,61,5
-16,62,5
-16,62,5
-16,62,6
-16,61,5
-16,61,5
-16,62,5
-16,61,5
-16,62,6
-16,62,6
-17,62,6
-16,62,6
-16,62,6
-16,62,5
-16,62,5
-17,62,5
-17,62,5
-16,62,6
-16,62,6
-16,62,6
-16,62,5
-16,62,5
-17,62,5
-17,62,5
-16,62,6
-16,62,5
-16,62,5
-16,62,5
-17,62,5
-16,62,6
-16,62,6
-16,62,5
-16,62,5
-17,62,5
-16,62,6
-16,62,6
-16,62,6
-16,62,5
-16,62,5
-16,62,6
-17,62,5
-17,62,5
-16,62,6
-16,61,6
-16,62,5
-16,62,5
-16,62,5
-16,62,6
-16,62,5
-16,62,6
-16,62,5
-17,62,5
-16,62,6
-16,61,6
-16,61,5
-16,62,5
-16,62,5
-16,62,5
-16,62,6
-16,62,6
-16,62,6
-16,61,5
-16,62,5
-16,61,5
-16,62,6
-16,62,6
-16,62,6
-16,62,6
-17,62,6
-17,62,5
-16,62,6
-16,61,6
-16,62,6
-16,62,6
-16,62,5
-17,62,6
-17,62,5
-16,62,5
-16,62,6
-16,62,6
-17,62,6
-17,61,6
-16,62,6
-16,61,6
-16,62,5
-16,62,5
-17,62,5
-17,62,5
-17,62,5
-16,61,6
-16,62,5
-16,62,5
-16,62,5
-17,62,5
-17,61,5
-16,62,6
-16,62,6
-16,62,5
-16,62,5
-17,62,5
-16,61,6
-16,62,6
-16,61,6
-16,61,6
-17,62,6
-17,62,6
-17,62,6
-16,62,6
-16,62,5
-16,62,6
-16,62,6
-17,62,6
-17,62,5
-17,62,6
-16,62,6
-16,61,6
-16,62,6
-16,62,5
-17,62,6
-16,61,5
-16,62,6
-16,61,6
-16,62,5
-17,62,5
-17,62,5
-17,62,6
-16,62,6
-16,62,6
-16,62,6
-16,62,5
-16,62,6
-17,62,6
-16,62,6
-16,62,6
-16,62,6
-16,62,6
-16,62,6
-17,62,6
-17,62,6
-16,61,5
-16,62,6
-16,62,6
-15,62,6
-16,62,6
-17,62,6
-17,62,6
-17,62,6
-17,62,6
-16,62,5
-16,61,5
-16,62,6
-16,62,6
-16,62,6
-16,62,6
-16,61,6
-16,62,6
-17,62,6
-16,62,6
-16,62,6
-16,62,5
-16,62,6
-15,62,6
-15,61,6
-16,62,6
-17,62,6
-17,62,6
-17,62,6
-16,62,6
-16,62,6
-16,62,6
-16,62,6
-17,62,6
-16,62,6
-16,62,6
-16,62,6
-16,62,6
-16,62,6
-16,62,6
-17,62,5
-16,62,6
-16,61,6
-16,61,6
-15,62,6
-16,61,6
-17,62,6
-17,62,6
-17,62,6
-16,62,6
-16,62,6
-16,62,6
-16,62,6
-16,62,6
-17,62,6
-16,62,6
-16,61,6
-16,61,6
-16,62,6
-16,62,6
-16,62,6
-16,62,6
-16,61,6
-16,62,6
-16,62,6
-16,62,6
-16,61,6
-16,62,6
-17,62,6
-17,62,6
-16,62,6
-16,62,6
-16,61,6
-16,62,6
-16,62,6
-17,62,6
-16,62,6
-16,61,6
-16,62,6
-16,62,6
-16,62,6
-16,62,6
-16,62,6
-16,62,6
-16,62,6
-16,62,6
-16,62,6
-16,62,6
-16,62,6
-16,62,6
-17,62,5
-17,62,5
-16,62,6
-16,61,6
-16,62,6
-16,62,6
-16,62,5
-17,62,6
-16,62,6
-17,62,6
-17,62,6
-17,62,6
-17,62,6
-16,62,6
-16,62,6
-16,62,6
-16,61,6
-16,62,6
-16,62,6
-16,62,6
-17,61,5
-17,61,6
-17,62,6
-16,62,6
-16,62,6
-15,62,6
-16,62,6
-16,62,6
-17,62,6
-17,62,6
-16,61,6
-16,62,6
-16,62,6
-16,62,6
-16,62,6
-16,62,6
-16,62,6
-16,62,6
-16,62,6
-16,62,6
-16,61,6
-16,62,6
-17,62,6
-17,62,6
-16,62,6
-16,62,6
-16,62,6
-16,62,6
-17,62,6
-17,62,6
-16,61,6
-16,62,6
-16,62,6
-16,62,6
-16,62,6
-16,62,6
-17,62,6
-16,62,5
-16,62,6
-16,62,6
-15,62,6
-16,62,6
-17,62,6
-17,62,5
-17,61,6
-16,62,6
-16,62,6
-16,62,6
-16,62,6
-17,62,6
-17,62,5
-16,62,6
-16,62,6
-16,62,6
-17,62,6
-17,62,6
-17,61,6
-17,62,5
-17,62,6
-16,61,5
-16,61,6
-16,62,6
-17,62,6
-17,62,6
-17,62,5
-16,62,6
-16,62,6
-16,62,6
-16,62,6
-17,62,6
-16,62,6
-16,61,6
-16,62,5
-16,61,6
-16,62,6
-16,62,6
-16,62,6
-16,62,6
-16,62,6
-16,62,6
-16,62,6
-16,62,6
-16,62,6
-17,62,5
-17,62,6
-17,62,6
-16,62,6
-16,62,6
-16,62,6
-17,62,5
-17,62,6
-16,62,6
-16,61,6
-16,62,6
-16,62,6
-17,62,6
-17,61,6
-17,62,6
-16,61,6
-16,61,6
-16,61,6
-17,62,6
-17,62,6
-17,62,5
-16,62,5
-16,62,5
-16,62,6
-16,62,6
-17,62,6
-17,62,6
-16,61,6
-16,62,6
-16,62,6
-16,61,6
-17,62,6
-16,62,6
-16,62,6
-16,62,6
-16,61,6
-17,61,6
-17,62,5
-17,62,5
-16,62,5
-15,61,6
-15,62,6
-16,62,6
-16,62,6
-17,62,6
-17,62,6
-17,61,6
-16,62,5
-16,61,6
-16,62,6
-16,62,6
-16,62,6
-16,62,6
-16,62,6
-16,61,5
-17,62,6
-17,62,6
-16,61,6
-16,62,6
-16,61,6
-16,62,6
-16,62,5
-16,62,6
-17,62,6
-17,62,5
-16,61,6
-16,62,6
-16,62,6
-16,62,6
-17,62,6
-17,62,6
-17,62,6
-16,61,6
-16,62,6
-17,62,6
-17,62,6
-16,62,6
-16,62,6
-16,62,6
-16,62,6
-16,62,6
-17,62,6
-17,62,6
-16,62,6
-16,62,6
-16,62,6
-16,62,6
-16,62,6
-16,62,6
-16,62,6
-16,62,6
-16,61,6
-16,62,6
-17,62,6
-17,62,5
-16,62,5
-16,61,6
-16,62,6
-16,62,6
-16,61,6
-16,61,6
-16,62,6
-16,62,6
-16,62,6
-16,62,6
-16,62,6
-16,62,6
-17,62,6
-17,62,6
-16,61,6
-16,61,6
-16,62,5
-17,62,6
-17,62,6
-17,62,6
-16,61,6
-16,62,6
-16,62,6
-17,61,6
-17,62,6
-17,62,6
-16,62,6
-16,61,6
-16,61,6
-16,62,6
-17,62,6
-17,62,6
-16,62,6
-16,61,6
-16,61,6
-17,62,5
-18,62,6
-17,62,6
-16,61,6
-16,61,5
-16,61,5
-17,62,5
-17,62,5
-17,62,6
-17,62,6
-17,62,6
-16,62,6
-17,62,5
-17,62,5
-17,61,5
-16,62,6
-16,62,6
-16,62,6
-17,62,6
-17,62,6
-17,62,5
-16,62,6
-16,61,5
-16,61,6
-16,62,6
-17,62,6
-17,61,6
-17,62,6
-17,61,6
-17,61,5
-16,61,6
-17,62,6
-17,62,6
-17,62,6
-16,61,6
-16,61,6
-16,61,6
-17,62,6
-17,62,6
-17,61,6
-16,62,6
-16,62,5
-16,62,6
-16,62,6
-17,62,6
-17,62,6
-17,62,6
-16,62,6
-16,61,6
-16,61,6
-16,62,6
-16,62,6
-16,62,6
-16,62,6
-16,61,5
-16,62,6
-16,62,6
-16,62,6
-16,62,6
-17,62,6
-17,62,6
-16,62,6
-16,61,6
-16,62,6
-16,62,6
-17,62,6
-17,61,6
-17,61,6
-16,61,6
-16,62,5
-16,62,5
-16,62,6
-16,62,6
-16,61,6
-17,62,6
-17,62,6
-17,62,6
-16,62,6
-16,62,5
-16,62,6
-17,62,6
-17,62,6
-16,62,6
-16,61,6
-16,61,6
-16,62,6
-17,61,6
-16,61,5
-16,62,5
-17,63,6
-18,62,7
-17,61,7
-15,59,6
-15,60,4
-17,62,4
-18,64,5
-17,63,6
-15,62,7
-14,61,7
-15,61,6
-17,62,6
-18,62,5
-17,61,5
-16,61,5
-15,61,6
-16,62,6
-16,62,6
-16,62,6
-16,61,5
-16,62,5
-17,62,5
-16,61,5
-16,61,6
-17,61,6
-17,62,6
-17,62,6
-16,62,5
-16,62,5
-16,62,5
-16,62,6
-16,61,6
-17,61,6
-17,62,6
-18,62,6
-17,62,6
-16,61,6
-16,61,6
-16,62,5
-17,62,6
-17,62,6
-17,61,6
-16,61,6
-16,62,6
-16,62,5
-16,61,6
-16,61,6
-16,61,6
-16,62,6
-16,62,6
-17,62,6
-16,62,6
-16,61,6
-16,62,5
-16,62,6
-16,62,6
-16,62,6
-17,62,6
-17,62,6
-16,62,6
-16,61,6
-16,62,6
-16,62,6
-17,62,6
-16,62,6
-16,61,6
-16,61,6
-16,61,6
-16,62,6
-16,62,6
-16,62,6
-16,61,6
-16,62,6
-17,62,6
-17,62,5
-17,62,6
-16,61,6
-16,61,6
-16,62,6
-17,62,5
-17,62,5
-16,62,6
-16,62,6
-16,62,6
-16,61,6
-17,62,6
-17,62,6
-17,62,6
-16,61,6
-16,62,6
-16,61,6
-17,62,6
-17,62,6
-17,62,6
-16,62,6
-17,62,6
-16,62,6
-16,61,6
-16,61,6
-17,62,6
-17,62,6
-17,62,6
-16,62,6
-16,61,6
-16,62,6
-16,62,6
-17,62,6
-17,62,6
-17,62,6
-16,62,6
-16,62,6
-17,62,6
-16,61,6
-16,61,6
-16,62,6
-17,62,6
-16,62,6
-16,62,6
-16,61,6
-17,61,6
-17,62,6
-18,62,5
-16,61,6
-16,61,6
-16,62,6
-16,62,6
-16,61,6
-17,62,6
-17,62,6
-17,62,6
-16,61,6
-16,61,6
-17,62,6
-17,62,6
-17,62,6
-16,61,6
-16,62,6
-17,62,6
-16,62,6
-16,62,6
-16,62,6
-17,62,6
-17,62,6
-17,61,6
-16,62,6
-16,61,6
-16,62,6
-16,62,6
-16,61,6
-17,62,6
-16,61,6
-16,61,6
-16,62,6
-16,62,6
-17,62,6
-16,62,6
-16,62,6
-16,62,6
-16,62,6
-16,62,6
-16,62,6
-16,62,6
-17,62,6
-16,62,6
-16,62,6
-16,61,6
-16,61,6
-16,62,5
-17,62,6
-17,62,6
-16,61,6
-16,62,5
-16,62,6
-16,62,6
-16,62,6
-16,62,6
-16,62,6
-17,62,6
-16,62,6
-16,61,6
-16,62,6
-17,62,6
-17,62,6
-16,62,6
-16,62,6
-16,62,6
-16,62,6
-16,62,6
-17,62,6
-17,62,6
-16,61,6
-16,61,6
-16,62,6
-17,62,6
-17,62,6
-16,61,6
-17,62,6
-16,61,6
-16,62,6
-16,61,6
-17,62,6
-17,62,6
-17,62,6
-16,61,6
-16,62,6
-16,62,6
-16,62,6
-17,62,6
-17,62,6
-17,62,6
-16,62,6
-16,62,6
-16,62,6
-17,62,6
-17,62,6
-17,62,6
-16,61,6
-16,62,6
-16,62,6
-17,62,6
-17,62,6
-17,62,6
-16,61,6
-16,62,6
-16,62,6
-17,62,6
-17,62,6
-17,62,6
-16,61,6
-16,61,6
-16,61,6
-16,61,6
-17,62,5
-17,62,6
-16,62,6
-16,62,6
-16,61,6
-16,61,6
-16,61,6
-17,62,5
-16,62,6
-16,62,6
-16,62,6
-16,62,6
-16,62,6
-16,62,6
-16,62,6
-16,62,6
-16,62,6
-16,62,6
-16,61,6
-16,61,5
-16,62,6
-16,62,5
-16,62,6
-17,62,6
-16,61,6
-16,62,6
-17,61,6
-17,62,5
-17,62,6
-16,62,6
-16,61,6
-16,62,6
-16,62,6
-16,62,6
-17,62,5
-16,62,6
-16,62,6
-17,62,6
-17,62,6
-16,62,6
-17,62,6
-16,62,6
-16,62,6
-16,62,6
-16,61,6
-17,62,6
-17,62,6
-17,62,6
-17,62,6
-16,62,6
-16,62,6
-16,62,5
-17,61,6
-17,62,6
-17,61,6
-16,62,6
-16,61,6
-16,61,6
-17,62,6
-16,62,6
-17,62,6
-16,62,6
-16,61,6
-15,61,6
-16,61,6
-17,62,6
-17,62,6
-16,62,6
-16,61,6
-16,62,6
-16,62,6
-17,62,6
-17,62,6
-16,62,6
-17,61,6
-16,62,6
-16,62,6
-16,62,6
-17,62,6
-17,62,6
-16,61,6
-16,62,6
-16,62,6
-16,61,6
-17,62,6
-17,62,6
-17,61,6
-16,62,6
-16,61,6
-16,62,6
-16,62,6
-16,62,6
-17,62,6
-16,61,6
-16,62,6
-16,62,6
-16,62,6
-16,62,6
-16,62,6
-16,62,6
-16,62,6
-16,62,6
-16,62,6
-16,62,6
-16,62,6
-17,61,6
-17,62,6
-16,62,6
-16,62,6
-16,61,6
-16,62,6
-16,61,6
-16,62,6
-16,62,6
-16,62,6
-16,61,6
-16,62,6
-16,61,6
-17,62,6
-17,62,6
-16,62,6
-16,62,6
-16,61,6
-16,62,6
-17,62,6
-17,62,6
-17,62,6
-17,62,6
-17,62,6
-16,62,6
-16,62,6
-17,62,6
-17,62,6
-16,62,6
-16,61,6
-16,62,6
-16,62,6
-16,62,6
-17,62,6
-16,62,6
-16,62,6
-16,61,6
-16,61,6
-17,62,6
-17,62,6
-17,62,6
-16,62,6
-16,62,6
-16,62,6
-16,62,6
-17,62,6
-17,62,6
-16,61,6
-16,62,6
-16,62,6
-16,62,6
-16,62,6
-17,62,6
-17,62,6
-16,62,6
-16,62,6
-16,61,6
-17,62,6
-17,62,6
-17,62,6
-16,62,6
-16,62,6
-16,61,6
-16,62,6
-16,61,5
-17,62,6
-17,62,6
-16,62,6
-16,61,6
-16,61,6
-16,62,6
-17,62,6
-17,61,6
-16,61,6
-16,62,6
-16,61,6
-17,62,6
-17,62,6
-17,62,6
-16,62,6
-16,62,6
-16,62,6
-16,62,6
-17,61,6
-17,62,6
-16,62,6
-16,62,6
-16,62,6
-17,62,6
-16,61,6
-17,61,6
-17,62,6
-17,62,6
-16,62,6
-16,61,6
-16,61,6
-16,61,6
-17,62,6
-17,62,6
-16,62,6
-16,61,6
-16,62,6
-16,62,6
-16,62,6
-17,62,6
-16,62,6
-17,62,6
-16,62,6
-16,62,6
-16,62,6
-16,62,6
-16,62,6
-16,62,6
-16,61,6
-16,62,6
-16,61,6
-16,61,6
-16,62,6
-17,62,6
-17,62,6
-16,62,6
-16,61,6
-16,62,6
-16,62,6
-17,62,6
-17,62,6
-16,61,6
-16,61,6
-16,62,6
-16,62,6
-16,62,6
-16,62,6
-16,62,6
-16,62,6
-16,62,6
-16,62,6
-15,61,6
-16,62,6
-17,62,5
-17,62,6
-17,62,5
-17,62,6
-16,62,6
-16,62,6
-16,62,6
-16,62,6
-16,62,6
-16,61,6
-16,61,6
-16,61,6
-17,62,6
-17,62,6
-17,62,6
-16,62,6
-16,62,6
-16,62,5
-16,62,6
-16,61,6
-16,62,6
-17,62,6
-18,62,6
-17,61,6
-17,61,6
-16,61,6
-16,62,5
-16,62,6
-17,62,6
-17,62,6
-16,61,6
-16,61,6
-16,62,5
-16,62,6
-17,62,6
-17,62,6
-16,62,6
-16,61,6
-16,62,6
-16,62,5
-17,62,6
-16,62,6
-16,61,6
-16,61,6
-17,62,5
-17,61,5
-16,62,6
-16,61,6
-16,62,6
-16,62,6
-17,62,5
-17,62,6
-17,62,5
-17,61,5
-16,62,6
-16,62,6
-17,62,6
-16,62,6
-17,61,6
-17,61,6
-16,62,6
-17,62,6
-17,62,6
-17,62,6
-17,62,6
-16,61,6
-16,61,6
-16,62,6
-17,62,6
-17,62,5
-17,62,6
-16,62,6
-16,61,6
-16,62,6
-16,62,6
-17,62,6
-17,62,6
-17,61,6
-16,61,6
-16,62,6
-16,62,6
-17,62,6
-17,62,6
-16,62,6
-16,62,6
-16,61,6
-16,62,6
-16,62,6
-17,62,6
-17,62,6
-16,62,6
-16,61,6
-16,62,6
-17,62,6
-17,62,5
-16,62,6
-16,62,6
-16,61,6
-16,62,6
-16,62,6
-16,62,6
-17,62,6
-16,62,6
-16,62,6
-16,62,6
-16,62,6
-16,62,6
-16,62,6
-16,62,6
-16,62,6
-16,62,6
-16,62,6
-16,61,6
-17,62,6
-17,62,6
-16,61,6
-16,62,6
-17,62,5
-17,62,6
-16,62,6
-16,61,6
-16,62,6
-17,62,6
-17,62,6
-17,62,6
-17,61,6
-17,62,6
-17,61,6
-17,62,6
-16,62,6
-16,62,6
-16,61,6
-16,62,6
-16,62,5
-16,62,6
-16,62,6
-16,61,6
-16,62,6
-16,62,6
-17,62,6
-17,62,6
-17,62,6
-16,61,6
-16,62,6
-16,62,6
-17,62,6
-17,62,6
-16,62,6
-16,62,6
-16,62,6
-17,62,5
-17,62,6
-17,62,6
-16,62,6
-16,62,6
-16,62,6
-16,62,6
-16,62,6
-16,61,6
-17,62,6
-17,62,6
-17,62,6
-16,62,6
-16,62,6
-16,61,5
-16,61,6
-17,62,6
-17,62,6
-17,61,6
-16,62,6
-16,62,6
-17,61,6
-17,62,6
-17,62,6
-17,62,6
-16,61,6
-16,62,6
-16,62,6
-16,61,6
-17,61,6
-17,62,6
-17,62,6
-17,62,6
-16,61,6
-16,61,6
-16,62,6
-17,61,6
-17,62,6
-17,62,6
-16,62,6
-16,62,6
-17,62,6
-17,62,6
-17,62,6
-17,62,6
-17,62,6
-16,62,6
-16,62,6
-16,61,6
-17,62,5
-17,62,6
-17,62,6
-16,61,6
-16,61,6
-16,62,6
-16,62,6
-17,62,6
-17,62,6
-17,62,6
-16,61,6
-16,61,6
-16,62,6
-16,62,6
-17,61,6
-16,62,6
-16,61,6
-16,62,6
-16,62,6
-16,61,6
-17,62,6
-17,62,6
-17,62,6
-16,62,6
-16,62,6
-16,61,6
-16,62,6
-16,62,6
-16,62,6
-17,62,6
-16,62,6
-16,62,6
-17,62,6
-17,61,6
-16,62,6
-16,62,5
-16,62,6
-16,62,6
-16,61,6
-16,61,5
-17,62,6
-17,62,5
-17,62,6
-16,62,6
-16,62,6
-16,61,6
-16,62,6
-17,62,6
-17,62,6
-17,62,6
-16,62,6
-16,62,6
-16,62,6
-16,62,5
-17,62,6
-17,62,6
-17,62,6
-16,61,6
-16,61,6
-17,62,6
-17,62,6
-17,62,6
-16,61,6
-16,62,6
-16,61,6
-16,62,5
-17,62,5
-17,62,6
-16,62,6
-16,62,6
-16,62,6
-17,62,6
-17,62,6
-17,61,6
-16,61,5
-16,61,6
-15,61,5
-16,62,5
-17,62,6
-17,62,6
-17,61,6
-17,61,6
-17,62,6
-17,62,5
-17,62,5
-17,61,6
-17,62,6
-16,62,6
-16,61,6
-16,62,5
-16,61,6
-17,62,6
-17,61,6
-17,62,6
-17,62,6
-16,62,6
-17,62,6
-17,62,6
-17,62,5
-16,62,5
-16,61,6
-16,61,6
-16,62,6
-17,62,6
-17,62,6
-17,62,6
-16,61,6
-16,61,6
-16,61,6
-16,62,6
-16,62,6
-16,62,6
-16,62,6
-16,62,6
-16,61,6
-16,62,5
-17,62,6
-17,62,6
-16,62,6
-16,61,6
-16,62,6
-16,62,6
-16,62,5
-17,62,5
-16,61,6
-16,62,6
-16,62,6
-17,62,6
-16,61,6
-16,62,6
-17,62,5
-17,62,6
-16,61,6
-16,62,6
-17,62,6
-17,62,6
-17,62,6
-17,62,6
-16,61,6
-16,61,6
-16,62,6
-16,62,5
-17,62,6
-17,62,6
-16,62,6
-16,61,6
-16,61,6
-17,62,5
-16,62,6
-17,62,6
-16,62,6
-16,62,6
-16,62,6
-17,62,6
-17,62,6
-17,62,6
-16,62,6
-16,61,6
-16,61,6
-16,62,6
-17,62,6
-17,62,6
-17,62,6
-16,61,6
-16,62,6
-16,62,6
-16,61,6
-17,62,6
-17,62,6
-16,62,6
-16,62,6
-16,61,6
-17,62,6
-17,62,5
-17,62,6
-16,62,6
-16,62,6
-16,62,6
-16,62,6
-17,62,5
-17,62,6
-17,62,6
-17,62,6
-16,61,6
-17,62,6
-17,62,5
-17,62,6
-17,61,6
-16,62,6
-16,62,6
-16,61,6
-17,62,6
-17,62,6
-17,61,5
-16,62,6
-16,62,6
-16,62,6
-17,62,5
-17,62,6
-17,62,6
-17,62,6
-16,61,6
-16,62,6
-17,62,6
-17,62,6
-17,62,6
-17,62,6
-16,62,6
-16,62,6
-16,62,6
-16,61,6
-17,62,6
-17,62,6
-17,62,6
-16,62,6
-16,62,6
-16,62,6
-16,62,6
-17,61,6
-17,62,6
-16,62,6
-16,62,6
-16,61,6
-16,62,6
-16,62,6
-17,62,6
-16,62,6
-16,62,6
-16,62,6
-16,61,6
-16,62,6
-17,62,6
-17,62,6
-17,62,6
-16,62,6
-16,62,6
-16,62,5
-16,62,6
-17,62,6
-17,62,6
-16,61,6
-16,61,6
-16,62,6
-17,62,6
-17,62,5
-16,62,6
-17,61,6
-16,62,6
-16,61,6
-16,61,6
-17,62,6
-17,62,6
-17,62,6
-16,62,6
-16,61,6
-16,62,6
-16,62,6
-17,62,6
-17,62,6
-16,62,6
-16,62,6
-16,62,6
-16,62,6
-16,61,6
-17,62,6
-17,61,6
-16,61,6
-16,62,6
-16,61,6
-16,62,6
-17,62,6
-17,62,6
-16,62,6
-16,61,6
-16,62,6
-16,62,6
-17,61,6
-17,62,6
-17,61,6
-16,61,6
-17,62,6
-16,62,6
-17,62,6
-17,62,6
-17,62,6
-17,62,6
-17,61,6
-16,61,6
-17,61,6
-17,62,5
-17,62,5
-16,61,4
-16,61,5
-16,61,6
-16,62,7
-17,61,5
-15,61,6
-17,61,4
-18,61,5
-18,61,5
-18,63,5
-18,63,5
-17,62,5
-15,62,5
-15,61,6
-17,61,5
-18,61,6
-18,61,5
-19,61,4
-19,61,5
-20,61,5
-20,61,5
-18,61,6
-18,61,5
-17,62,5
-17,62,5
-16,61,5
-16,61,5
-16,61,5
-17,61,5
-17,61,5
-18,61,5
-18,62,5
-18,62,5
-18,61,5
-17,61,5
-17,61,5
-17,61,5
-17,62,5
-17,62,5
-17,62,5
-17,61,5
-17,61,5
-18,61,5
-18,62,5
-18,62,5
-18,61,5
-18,61,5
-17,61,5
-17,61,5
-17,61,5
-17,61,5
-18,62,6
-18,61,5
-18,61,6
-18,61,5
-18,61,5
-18,61,5
-18,62,5
-18,62,6
-17,62,6
-17,61,6
-16,62,6
-17,62,5
-17,62,5
-17,62,5
-17,61,6
-18,61,5
-17,62,6
-15,62,4
-15,61,4
-16,61,5
-18,62,6
-18,61,7
-17,61,7
-17,60,6
-19,61,5
-18,62,4
-17,61,3
-17,61,5
-17,61,6
-18,62,6
-17,61,6
-16,61,6
-17,62,5
-17,62,5
-16,61,5
-16,61,5
-18,62,5
-18,62,6
-18,62,5
-17,62,6
-16,62,6
-16,61,5
-16,62,5
-17,62,5
-19,62,5
-19,62,5
-16,61,5
-16,61,5
-16,61,5
-17,62,6
-17,62,6
-17,62,6
-16,61,6
-15,61,5
-16,61,5
-18,61,4
-18,62,5
-18,62,5
-17,62,6
-18,62,6
-18,62,6
-18,62,5
-18,61,5
-17,61,5
-15,60,4
-16,61,4
-16,62,5
-17,63,5
-16,63,6
-16,62,6
-15,62,5
-16,61,5
-17,61,5
-19,62,6
-20,62,7
-19,62,7
-18,62,6
-16,61,4
-16,61,4
-14,61,3
-13,61,3
-13,61,4
-14,62,6
-16,63,7
-17,62,7
-18,61,5
-18,61,4
-18,61,5
-18,61,5
-18,61,5
-17,61,5
-17,62,5
-17,62,6
-17,62,6
-16,62,5
-16,62,5
-16,62,5
-15,62,5
-15,62,5
-15,62,6
-16,62,6
-17,62,6
-17,62,6
-18,61,5
-17,61,4
-17,61,5
-17,61,5
-17,62,5
-16,62,5
-16,62,6
-16,62,5
-16,61,5
-17,62,5
-17,62,5
-17,62,5
-17,62,6
-16,61,6
-16,61,5
-17,62,5
-17,62,5
-17,62,5
-16,61,5
-16,62,5
-16,62,5
-16,62,5
-16,62,5
-16,62,5
-16,62,6
-16,61,5
-17,61,5
-17,62,5
-17,62,5
-17,61,5
-17,61,5
-16,62,6
-16,61,5
-17,62,5
-17,62,5
-17,62,5
-16,62,5
-16,61,5
-16,62,5
-17,62,5
-17,62,5
-17,62,5
-17,61,5
-17,62,5
-16,62,5
-16,62,5
-17,62,5
-17,62,5
-17,62,5
-17,62,6
-16,62,6
-17,61,5
-17,62,5
-17,62,5
-17,62,5
-16,62,5
-16,62,5
-16,62,5
-16,62,5
-17,62,5
-17,62,5
-16,62,6
-16,62,5
-17,62,5
-17,62,6
-17,62,6
-17,62,5
-17,62,5
-16,62,6
-16,62,6
-16,62,6
-17,62,5
-17,62,6
-17,62,5
-16,62,5
-16,61,6
-16,62,6
-16,62,5
-17,62,6
-17,62,5
-16,61,5
-16,61,5
-16,62,5
-16,62,6
-16,62,6
-17,62,6
-17,61,6
-16,62,5
-16,61,6
-16,61,6
-16,62,6
-17,62,5
-17,62,6
-16,62,6
-16,61,6
-16,61,5
-16,61,5
-16,62,5
-16,62,5
-17,62,6
-16,62,6
-16,62,5
-16,61,5
-16,62,5
-16,62,6
-16,62,6
-17,62,5
-17,62,6
-16,62,6
-16,62,6
-17,62,5
-17,62,5
-17,62,5
-16,61,6
-16,61,6
-16,62,5
-16,62,5
-17,62,6
-17,62,6
-16,61,5
-16,61,5
-17,62,5
-17,62,5
-17,62,6
-16,62,5
-17,62,6
-16,62,6
-16,61,6
-16,62,5
-17,62,6
-17,62,5
-17,61,5
-16,61,6
-16,62,5
-16,62,6
-16,62,5
-16,61,5
-17,61,5
-16,62,6
-17,62,6
-17,62,6
-17,62,6
-17,62,5
-17,62,5
-17,62,6
-16,62,6
-16,61,6
-16,62,6
-17,62,5
-17,62,6
-16,62,6
-16,61,5
-16,61,5
-16,62,5
-16,61,6
-16,61,6
-16,61,6
-17,62,5
-17,62,5
-16,62,6
-17,62,6
-17,62,5
-17,62,6
-16,62,6
-16,61,6
-17,62,5
-17,62,5
-17,62,5
-17,61,5
-16,62,5
-16,62,5
-17,62,6
-16,62,5
-17,62,5
-17,62,5
-17,62,6
-17,61,5
-16,62,6
-16,62,5
-17,62,6
-17,62,5
-17,62,6
-17,62,6
-16,61,6
-17,62,5
-17,62,5
-17,62,5
-17,61,6
-16,61,5
-16,61,5
-16,62,5
-17,62,5
-16,61,5
-16,62,6
-16,61,5
-16,62,5
-16,61,6
-16,62,6
-16,62,5
-17,62,5
-16,62,6
-16,61,6
-16,61,5
-17,62,5
-17,62,5
-17,62,5
-16,61,6
-16,61,5
-16,62,5
-16,62,5
-17,62,6
-16,62,5
-16,62,5
-16,62,5
-16,62,5
-16,63,5
-16,62,5
-16,62,6
-16,61,6
-16,61,6
-16,61,5
-17,61,5
-17,61,5
-17,62,5
-16,62,6
-16,62,5
-16,62,5
-16,62,5
-16,62,5
-17,62,5
-16,62,5
-16,61,5
-16,61,5
-17,62,5
-17,62,5
-17,62,5
-16,62,6
-16,62,6
-16,61,5
-17,62,5
-17,62,5
-16,62,6
-16,61,6
-16,62,5
-16,62,5
-16,62,5
-17,62,5
-17,62,5
-16,62,5
-16,62,6
-16,61,5
-16,62,5
-17,62,5
-16,62,6
-16,61,5
-16,61,6
-16,62,5
-17,62,5
-17,62,6
-16,62,6
-16,62,5
-16,62,6
-17,62,5
-17,62,5
-17,62,5
-17,62,6
-16,62,6
-16,62,5
-16,62,5
-16,62,5
-16,61,6
-16,62,5
-16,62,6
-16,62,6
-16,61,6
-17,62,5
-17,62,5
-16,62,5
-16,62,5
-16,61,5
-16,62,5
-16,62,5
-16,62,5
-16,62,6
-16,61,5
-16,61,5
-16,62,5
-16,62,5
-16,62,5
-16,62,6
-16,61,6
-16,62,6
-16,62,5
-16,62,5
-16,62,5
-16,61,5
-16,62,5
-16,62,6
-16,62,5
-16,62,5
-16,62,5
-16,62,5
-16,62,5
-16,62,5
-16,62,5
-16,62,5
-16,62,6
-16,62,6
-16,62,6
-16,62,5
-17,62,5
-17,62,5
-16,62,6
-16,62,6
-16,62,6
-16,62,5
-16,62,5
-17,62,5
-16,62,5
-16,62,5
-16,62,6
-16,62,5
-16,62,5
-16,62,5
-16,62,6
-16,61,6
-16,62,5
-17,62,6
-17,62,5
-17,62,5
-16,62,5
-16,61,6
-16,62,6
-16,62,5
-17,62,5
-17,62,5
-16,62,6
-16,61,6
-16,62,6
-16,62,5
-16,62,5
-16,62,5
-16,61,5
-16,62,6
-16,62,5
-17,62,5
-17,62,5
-16,62,6
-16,62,5
-16,62,5
-16,62,5
-16,62,5
-17,62,5
-16,62,5
-16,62,6
-17,62,5
-17,62,5
-16,62,5
-16,62,6
-16,62,5
-16,62,6
-15,61,6
-16,62,5
-17,62,5
-17,62,5
-17,62,5
-17,61,5
-16,62,6
-16,62,6
-16,62,5
-17,62,6
-16,62,6
-16,62,6
-16,61,6
-16,62,6
-17,62,6
-17,62,6
-17,62,6
-16,61,6
-16,62,6
-16,62,5
-16,62,5
-16,62,6
-16,62,6
-16,62,5
-17,62,6
-17,62,6
-17,61,6
-16,62,6
-16,62,5
-16,62,5
-16,62,5
-17,62,5
-17,62,6
-17,62,6
-16,61,6
-16,62,6
-16,62,6
-16,62,6
-16,62,6
-17,62,6
-16,62,6
-16,62,6
-16,62,6
-16,62,5
-16,62,5
-17,62,5
-16,62,6
-16,61,6
-16,62,5
-17,62,6
-17,62,5
-16,62,6
-16,61,6
-16,62,5
-16,62,6
-16,62,5
-17,62,6
-17,62,6
-16,62,6
-16,62,6
-16,62,5
-16,62,6
-16,62,6
-16,62,5
-16,62,6
-16,61,6
-16,61,6
-16,62,6
-17,62,5
-17,62,6
-17,62,6
-16,61,6
-16,61,6
-16,62,5
-17,62,5
-16,62,5
-16,61,6
-16,62,6
-16,62,6
-17,62,6
-17,62,6
-17,61,6
-16,61,5
-16,62,5
-16,62,5
-16,62,6
-16,62,6
-16,62,6
-17,62,5
-17,62,5
-17,62,5
-17,62,5
-16,62,6
-16,61,6
-16,62,6
-16,62,6
-17,62,5
-16,62,5
-16,62,6
-16,62,6
-16,62,5
-16,62,5
-17,62,6
-17,62,5
-16,61,6
-16,62,6
-16,62,6
-16,62,6
-16,62,6
-17,62,6
-17,62,5
-16,61,6
-16,62,5
-16,62,6
-16,62,6
-16,62,6
-16,62,5
-17,62,6
-17,62,6
-17,62,6
-16,61,5
-16,61,5
-16,62,6
-17,62,5
-17,62,6
-16,62,6
-16,62,6
-16,62,5
-16,62,6
-17,62,6
-17,62,6
-17,62,6
-16,61,5
-16,62,6
-16,62,6
-16,62,6
-16,62,6
-17,62,6
-17,62,6
-16,62,6
-16,62,6
-16,62,6
-16,62,6
-16,62,5
-17,62,6
-16,62,6
-16,62,6
-16,62,5
-16,62,6
-16,61,6
-16,61,6
-16,62,6
-16,62,5
-16,62,6
-16,62,6
-16,61,6
-16,62,5
-16,62,6
-17,62,5
-16,62,6
-16,62,5
-16,61,6
-16,62,5
-16,62,5
-16,62,6
-16,62,5
-16,62,6
-16,62,5
-16,62,5
-16,62,5
-16,62,6
-17,62,5
-16,62,6
-16,62,6
-16,61,6
-16,62,6
-17,62,5
-17,62,6
-16,62,5
-16,62,6
-17,62,6
-18,61,5
-16,61,5
-17,62,5
-16,62,6
-16,62,6
-16,62,6
-16,62,6
-17,61,5
-17,62,6
-17,62,5
-17,62,6
-16,62,6
-16,61,6
-16,62,5
-17,62,5
-17,62,5
-16,61,6
-16,62,6
-16,61,6
-16,62,6
-16,62,5
-17,62,5
-17,61,6
-16,61,6
-16,62,6
-16,62,6
-16,62,5
-16,62,6
-17,62,6
-17,61,6
-16,61,6
-16,62,5
-16,62,5
-17,62,5
-16,62,6
-16,62,6
-16,62,6
-17,62,6
-17,62,5
-17,62,6
-16,62,5
-16,62,6
-16,62,5
-16,62,6
-16,62,5
-17,62,5
-17,62,5
-17,61,6
-16,62,5
-16,62,6
-17,62,5
-17,62,5
-16,62,6
-16,62,6
-16,62,6
-16,62,5
-16,62,6
-17,62,6
-17,62,6
-17,62,6
-16,62,6
-16,62,6
-16,62,6
-17,62,6
-17,61,6
-16,62,6
-16,62,6
-16,62,6
-16,62,6
-17,62,6
-17,62,5
-16,62,6
-16,62,6
-16,61,6
-16,62,6
-16,62,6
-17,62,6
-16,62,6
-16,61,6
-16,61,6
-16,62,5
-16,62,6
-16,62,5
-16,62,6
-16,62,6
-16,62,6
-16,61,6
-16,62,5
-17,62,5
-16,62,6
-16,61,6
-16,61,6
-16,62,6
-16,62,5
-17,62,6
-17,62,6
-16,62,6
-16,61,6
-16,62,6
-16,62,6
-16,62,6
-17,62,5
-17,62,6
-17,62,6
-16,62,5
-16,62,5
-17,62,5
-17,62,6
-16,62,6
-16,61,6
-16,62,6
-16,62,5
-16,62,5
-17,62,6
-16,61,6
-16,62,6
-16,61,5
-16,62,5
-17,62,6
-17,62,6
-16,61,6
-16,62,6
-16,61,6
-17,62,5
-17,62,5
-17,62,6
-16,62,6
-16,61,6
-16,62,6
-16,62,6
-17,62,5
-17,62,6
-17,62,5
-16,62,6
-16,62,6
-16,62,6
-16,62,6
-17,62,6
-16,62,6
-16,61,6
-15,61,6
-16,61,5
-17,62,5
-17,62,5
-16,62,6
-16,61,6
-16,61,6
-16,62,6
-17,62,6
-17,62,5
-17,61,5
-17,62,6
-16,62,6
-16,62,6
-16,62,6
-17,62,5
-17,62,5
-16,62,6
-16,61,6
-17,61,6
-17,62,6
-17,62,5
-17,62,6
-16,62,6
-16,61,6
-16,62,6
-16,62,5
-17,62,6
-17,62,6
-17,62,6
-16,62,6
-16,62,6
-16,62,6
-17,62,6
-16,62,6
-17,62,6
-16,62,5
-16,61,6
-15,61,6
-16,62,5
-17,62,5
-17,62,6
-16,62,6
-16,61,6
-16,62,6
-16,62,5
-16,62,6
-17,62,6
-16,61,6
-16,62,6
-16,62,6
-16,62,6
-16,61,6
-16,61,5
-16,62,5
-16,62,6
-16,62,6
-16,62,6
-16,61,6
-17,62,5
-17,62,5
-17,62,6
-16,62,5
-16,62,6
-16,62,6
-16,61,6
-16,61,5
-17,61,5
-17,62,5
-17,62,6
-16,62,6
-16,62,6
-16,62,6
-16,62,6
-17,62,5
-17,62,6
-16,62,6
-16,62,6
-17,62,5
-17,62,5
-17,62,6
-16,62,6
-16,62,6
-16,62,6
-16,62,6
-16,61,5
-16,61,5
-17,62,6
-17,62,5
-16,61,6
-16,62,6
-16,61,6
-17,62,5
-17,62,5
-16,62,6
-16,62,6
-16,61,6
-16,61,5
-17,62,5
-17,62,5
-16,61,6
-16,62,6
-16,62,6
-16,62,5
-16,62,6
-16,62,5
-16,61,6
-16,62,6
-16,62,6
-16,62,6
-16,62,6
-17,62,5
-17,62,5
-17,62,6
-16,62,6
-16,62,6
-16,62,6
-17,62,6
-17,62,5
-17,62,5
-16,62,6
-16,62,6
-16,62,6
-16,62,5
-17,62,6
-17,62,6
-17,62,6
-16,62,5
-16,62,6
-16,62,6
-16,62,6
-17,62,5
-16,62,6
-16,62,6
-16,62,6
-16,61,6
-16,62,6
-17,62,5
-17,62,5
-16,62,5
-16,62,6
-16,62,6
-16,62,6
-16,62,6
-16,62,6
-16,62,6
-16,62,6
-16,62,6
-16,62,5
-16,61,6
-16,62,6
-16,62,6
-16,62,6
-16,62,6
-16,61,6
-16,62,6
-17,62,5
-17,62,6
-17,62,5
-16,62,6
-16,62,6
-16,62,6
-16,62,5
-17,62,6
-16,62,5
-16,62,6
-16,62,5
-16,62,6
-16,62,6
-16,62,6
-16,62,6
-16,62,6
-16,61,6
-15,62,6
-16,62,5
-17,62,5
-17,62,6
-16,62,6
-16,62,6
-16,62,6
-16,62,6
-17,62,6
-17,62,5
-17,61,6
-16,61,6
-16,62,6
-16,61,5
-16,62,6
-16,62,6
-17,62,6
-16,62,6
-16,62,6
-16,61,6
-16,61,5
-17,62,5
-17,62,6
-16,62,5
-15,62,6
-16,61,6
-16,62,6
-17,62,6
-17,62,6
-17,62,5
-16,62,6
-16,61,6
-16,61,6
-16,62,5
-16,62,6
-17,62,5
-16,61,6
-16,61,5
-17,62,5
-17,62,6
-17,62,5
-16,62,6
-16,61,6
-16,62,6
-16,62,6
-17,62,6
-17,62,6
-17,62,6
-16,62,6
-16,62,6
-16,62,6
-17,62,6
-17,62,6
-17,62,6
-16,62,6
-16,62,6
-16,61,6
-17,62,5
-17,62,6
-17,62,5
-16,61,6
-16,62,6
-16,62,6
-17,62,6
-17,62,5
-17,61,6
-16,62,5
-16,62,6
-16,62,6
-16,61,5
-16,62,6
-16,62,5
-16,62,6
-16,62,6
-16,62,6
-16,62,6
-17,62,5
-17,62,5
-16,62,5
-16,62,6
-16,62,6
-16,62,6
-16,62,5
-16,62,6
-16,62,5
-16,62,5
-16,62,5
-16,61,6
-16,62,6
-16,62,6
-16,62,6
-16,62,6
-16,61,6
-16,62,6
-16,62,5
-17,62,6
-17,62,5
-17,62,6
-16,62,5
-16,62,6
-16,62,5
-17,62,5
-17,62,6
-16,61,6
-16,61,6
-16,61,6
-16,61,5
-17,62,5
-17,62,6
-17,62,6
-16,61,6
-16,61,6
-17,62,6
-17,62,6
-17,62,6
-16,62,6
-16,62,6
-16,62,5
-17,62,6
-17,62,6
-17,62,6
-17,62,5
-16,62,6
-16,62,6
-16,62,6
-17,62,6
-17,62,6
-16,62,6
-16,61,6
-16,62,6
-17,62,6
-17,62,5
-17,62,6
-16,62,6
-16,62,5
-16,62,6
-16,62,6
-17,62,6
-17,62,6
-17,61,5
-16,61,6
-16,62,6
-16,62,6
-17,62,5
-17,62,6
-17,62,6
-16,61,5
-16,61,6
-17,62,6
-17,62,6
-17,62,5
-16,61,6
-16,62,6
-16,62,6
-16,62,6
-17,62,6
-17,62,6
-16,62,6
-16,62,5
-16,62,6
-16,62,5
-16,62,5
-16,62,6
-16,62,6
-16,62,6
-16,62,6
-16,61,6
-17,62,5
-17,62,5
-16,62,6
-16,62,6
-16,62,6
-16,62,6
-16,62,6
-16,62,5
-16,62,6
-16,62,6
-16,62,6
-16,62,6
-16,62,5
-16,62,5
-16,62,6
-16,61,6
-16,62,6
-17,62,5
-17,62,6
-17,62,6
-16,62,6
-16,62,6
-16,62,6
-16,62,6
-17,62,5
-17,62,6
-17,62,6
-16,62,6
-16,62,5
-16,62,6
-16,62,5
-17,62,5
-16,61,6
-16,62,6
-16,62,6
-17,62,6
-17,62,5
-17,62,6
-16,62,6
-16,61,6
-16,62,6
-17,62,6
-17,62,6
