1568072621.000000, 1568072621.000000, 1568072621.000000
32.000000, 32.000000, 32.000000
-30,-1,56
-30,-1,55
-30,-2,55
-31,-2,55
-31,-2,55
-30,-2,55
-30,-2,55
-30,-1,55
-31,-1,55
-30,-1,56
-30,-1,56
-30,-1,55
-30,-1,56
-29,-2,56
-31,-2,55
-30,-2,55
-32,-2,54
-32,-2,54
-32,-2,54
-32,-2,55
-31,-2,54
-31,-1,55
-30,-1,56
-30,-1,55
-30,-2,56
-29,-2,56
-29,-2,56
-30,-2,56
-29,-1,56
-29,-1,56
-29,-1,56
-30,-1,56
-29,-1,56
-29,-1,56
-29,-1,56
-29,-1,56
-29,-2,56
-29,-2,56
-29,-1,56
-29,-1,56
-29,-1,56
-29,-1,56
-29,-1,56
-29,-1,56
-28,-2,56
-29,-1,56
-28,-2,56
-29,-1,57
-29,-1,56
-28,-1,56
-28,-1,56
-29,-2,56
-29,-1,56
-29,-1,56
-29,-1,56
-29,-1,56
-29,-1,56
-28,-1,57
-29,-1,56
-29,-1,56
-27,-1,57
-29,-1,56
-29,-2,57
-29,-2,56
-30,-1,56
-29,-1,56
-27,-1,57
-29,-1,56
-30,-2,56
-28,-2,57
-28,-2,56
-29,-2,56
-29,-2,56
-29,-2,56
-29,-2,56
-29,-2,56
-29,-2,56
-29,-2,56
-29,-2,56
-29,-2,56
-29,-2,56
-29,-2,56
-29,-2,56
-29,-2,56
-29,-2,56
-29,-2,56
-30,-2,57
-29,-2,56
-30,-2,56
-29,-2,56
-29,-2,56
-29,-2,56
-29,-2,56
-29,-2,56
-29,-2,56
-29,-2,56
-29,-2,55
-29,-2,56
-29,-2,56
-29,-2,56
-29,-2,56
-29,-1,56
-29,-2,56
-29,-2,56
-29,-2,56
-28,-2,57
-29,-2,57
-29,-2,56
-29,-2,56
-29,-1,56
-29,-2,57
-29,-2,56
-28,-2,57
-28,-2,57
-29,-1,56
-29,-1,56
-28,-1,57
-28,-1,57
-28,-1,57
-29,-2,56
-28,-2,56
-29,-2,56
-27,-1,57
-27,-1,57
-27,-1,58
-28,-1,57
-27,-1,57
-28,-1,57
-29,-1,56
-29,-1,56
-29,-1,57
-29,-1,56
-29,-1,56
-29,-2,57
-29,-2,56
-28,-2,57
-28,-2,56
-29,-2,56
-28,-2,56
-28,-2,57
-29,-1,56
-29,-1,56
-27,-1,57
-28,-2,57
-28,-2,56
-28,-2,57
-28,-2,57
-28,-1,57
-28,-1,57
-29,-2,56
-30,-2,55
-29,-2,56
-29,-2,56
-30,-2,56
-29,-2,56
-28,-2,56
-29,-2,56
-29,-2,56
-29,-2,56
-29,-1,56
-29,-2,56
-29,-2,56
-29,-2,57
-29,-2,56
-28,-2,56
-28,-2,57
-29,-2,56
-29,-2,56
-29,-2,56
-29,-2,56
-29,-2,56
-29,-2,56
-28,-2,57
-29,-2,56
-28,-2,56
-28,-2,57
-29,-2,56
-28,-2,57
-28,-2,56
-28,-2,57
-28,-1,57
-28,-2,57
-28,-2,56
-28,-2,57
-28,-2,57
-28,-2,56
-29,-2,56
-28,-2,57
-27,-2,57
-27,-1,57
-26,-1,58
-27,-1,58
-28,-2,57
-28,-2,57
-27,-2,57
-27,-1,57
-27,-1,57
-27,-2,57
-28,-2,57
-28,-2,57
-28,-2,57
-27,-1,57
-27,-1,57
-27,-2,58
-27,-2,57
-28,-1,57
-27,-1,56
-27,-1,57
-28,-2,57
-29,-1,57
-28,-1,57
-28,-1,57
-28,-1,57
-28,-2,56
-29,-2,56
-28,-2,57
-28,-2,57
-29,-2,56
-29,-1,56
-28,-1,56
-28,-2,56
-28,-1,56
-28,-2,57
-28,-2,57
-28,-2,57
-29,-2,56
-29,-1,56
-28,-2,56
-29,-2,56
-29,-2,57
-34,-7,55
-31,-1,55
-34,-10,52
-25,-2,57
-28,1,58
-28,0,57
-24,0,58
-19,-1,61
-15,-1,61
-14,-2,62
-12,-3,61
-11,-1,62
-7,0,63
-8,-1,63
-7,-1,63
-7,-1,63
-8,-2,63
-7,-1,62
-7,-1,63
-7,-1,63
-8,-1,63
-8,-1,63
-9,-2,62
-12,-2,61
-10,-1,63
-10,-1,62
-11,-2,62
-9,-1,62
-9,-2,63
-8,-3,62
-9,-1,62
-10,-2,62
-11,-2,62
-11,-1,62
-10,-1,62
-10,-1,63
-11,-2,62
-10,0,62
-9,-1,62
-12,-1,62
-11,0,62
-9,0,62
-10,-1,62
-10,0,62
-10,1,62
-17,-2,61
-13,1,61
-3,0,64
-12,-1,62
-10,4,63
-11,1,63
-16,2,62
-16,6,62
-9,-1,64
-6,0,65
-6,1,66
-19,8,67
-18,10,65
-18,-21,49
-19,3,55
-16,0,61
-14,-1,61
-17,-1,61
-20,-2,60
-21,-1,60
-19,-1,60
-18,-1,60
-18,-1,60
-19,-1,61
-20,-2,60
-20,-1,60
-19,-2,60
-20,-2,60
-21,-2,60
-20,-1,60
-22,-2,59
-22,-2,59
-24,-1,59
-24,-1,59
-25,-1,58
-27,-1,57
-28,-2,56
-27,-1,57
-25,-1,58
-26,-1,58
-27,-1,58
-26,-1,58
-27,-2,57
-28,-2,57
-26,-1,58
-26,-1,58
-27,-1,57
-27,-1,57
-26,-1,58
-26,-1,58
-27,-1,57
-26,-1,58
-25,-1,58
-26,-1,58
-27,-1,58
-26,-1,58
-26,-1,58
-26,-2,58
-26,-2,57
-26,-1,58
-25,-1,58
-26,-1,58
-26,-1,58
-25,-1,58
-26,-1,57
-25,-1,58
-25,-2,58
-27,-2,57
-26,-1,58
-25,-1,58
-26,-1,58
-26,-2,58
-26,-2,58
-26,-1,58
-25,-1,58
-26,-1,58
-26,-2,58
-26,-2,58
-26,-2,58
-26,-2,58
-25,-1,58
-25,-1,58
-26,-1,58
-26,-1,58
-26,-2,58
-26,-1,58
-26,-1,58
-25,-2,58
-26,-2,57
-26,-2,58
-26,-2,58
-25,-1,59
-24,-1,58
-25,0,59
-26,-1,58
-25,-1,58
-24,-1,59
-25,-1,58
-25,-1,59
-25,-1,58
-27,-1,56
-26,-1,58
-26,-1,58
-26,-1,58
-26,-1,58
-25,-1,59
-27,-1,58
-26,-1,58
-26,-1,58
-26,-1,58
-25,-1,58
-26,-1,58
-27,-1,57
-27,-2,57
-27,-1,58
-25,-1,58
-27,-1,58
-27,-2,57
-26,-1,58
-26,-2,58
-27,-2,57
-28,-3,56
-29,-3,56
-28,-3,57
-28,-2,56
-28,-1,57
-29,-1,56
-29,-1,56
-28,0,57
-26,-1,58
-27,-2,57
-27,-1,57
-26,-2,58
-26,-2,58
-27,-2,58
-27,-1,58
-27,-1,57
-28,-1,57
-28,-1,57
-27,-1,58
-27,-2,58
-27,-2,58
-27,-1,57
-27,-1,57
-27,0,57
-30,-1,55
-31,-2,55
-29,-2,56
-29,-1,56
-29,-2,56
-28,-1,57
-29,-1,56
-29,-2,56
-29,-2,56
-29,-1,57
-28,-1,56
-28,-2,56
-29,-1,56
-29,-2,56
-29,-1,57
-28,-1,56
-29,-1,56
-29,-2,56
-28,-2,56
-28,-2,56
-29,-1,56
-27,-1,58
-27,-2,57
-28,-1,57
-28,-1,57
-27,-1,57
-29,-1,56
-29,-1,56
-27,-2,58
-27,-1,57
-28,-1,56
-28,-1,57
-27,-1,57
-28,-1,57
-27,-1,57
-27,-1,57
-27,-1,57
-27,-1,57
-27,-2,57
-27,-2,57
-27,-1,57
-27,-1,57
-27,-1,57
-27,-1,57
-27,-1,57
-27,-2,57
-27,-2,57
-29,-1,56
-29,-1,56
-26,-1,58
-27,-1,57
-28,-1,57
-28,-1,57
-28,-1,57
-28,-1,57
-28,-1,57
-28,-1,56
-28,-1,56
-27,-1,57
-27,0,58
-27,0,58
-27,-1,58
-27,-1,57
-27,-1,57
-26,-1,58
-27,-1,57
-27,-1,57
-27,0,57
-26,-1,57
-26,-1,58
-27,-1,57
-27,-1,57
-27,-1,57
-28,-1,57
-27,-1,57
-27,-1,57
-28,-1,57
-28,-1,57
-28,-1,57
-27,-1,57
-27,-1,57
-27,-1,57
-27,-1,57
-27,-1,58
-26,-1,58
-27,-1,57
-27,-1,57
-27,-1,57
-26,-1,58
-27,-1,58
-27,-2,57
-27,-2,57
-28,-1,57
-28,-1,56
-27,-1,57
-27,-1,57
-28,-1,57
-27,-1,57
-27,-1,57
-27,-2,57
-27,-1,57
-27,-1,58
-28,-1,57
-29,-1,56
-28,-1,57
-26,-2,58
-27,-2,57
-28,-1,56
-27,-2,57
-27,-1,57
-27,-1,58
-27,-1,58
-28,-2,57
-27,-2,57
-27,-2,57
-27,-1,57
-27,-1,57
-27,-1,57
-27,-2,57
-27,-1,57
-27,-1,57
-27,-1,57
-27,-1,57
-27,0,57
-26,0,56
-29,-2,56
-26,-2,58
-23,-1,59
-23,0,60
-26,1,58
-27,0,57
-27,0,58
-27,-1,58
-26,0,58
-26,0,58
-27,-1,57
-25,-1,58
-27,-2,57
-28,-1,57
-27,-1,57
-27,-1,57
-28,-1,57
-28,-1,57
-28,0,57
-28,-1,57
-28,-1,57
-27,-1,57
-27,-1,57
-27,-1,57
-27,-2,57
-28,-2,56
-29,-2,56
-29,-2,56
-28,-2,57
-28,-2,57
-29,-1,56
-27,-1,57
-27,-1,57
-29,-2,57
-30,-2,56
-29,-2,56
-27,-1,57
-28,-2,57
-28,-2,57
-29,-1,57
-29,-1,57
-28,-2,57
-27,-2,57
-29,-2,57
-29,-2,56
-29,-2,56
-28,-2,56
-28,-2,56
-27,-1,57
-28,-2,56
-28,-2,56
-29,-2,57
-29,-2,56
-29,-2,56
-28,-2,56
-28,-2,57
-28,-2,56
-29,-2,57
-29,-2,56
-28,-2,56
-27,-2,57
-28,-2,57
-29,-2,56
-28,-2,56
-28,-1,57
-28,-2,57
-29,-2,56
-28,-2,56
-28,-2,57
-28,-2,56
-28,-2,57
-28,-2,57
-28,-2,56
-28,-2,56
-28,-2,57
-28,-2,56
-29,-2,56
-28,-2,56
-27,-2,57
-27,-2,57
-29,-2,56
-28,-2,56
-27,-2,57
-27,-2,57
-29,-2,56
-29,-2,56
-29,-2,56
-27,-2,57
-27,-1,57
-26,-2,58
-27,-1,57
-28,-1,57
-27,-2,57
-28,-2,56
-27,-2,57
-26,-2,58
-27,-1,57
-27,-2,57
-27,-2,58
-27,-2,57
-27,-2,57
-27,-2,57
-27,-1,57
-27,-1,58
-27,-1,57
-27,-2,57
-28,-2,57
-28,-2,57
-27,-2,57
-27,-2,57
-28,-2,56
-28,-2,56
-28,-1,57
-28,-2,57
-28,-1,56
-27,-2,57
-27,-2,57
-28,-2,57
-28,-2,57
-27,-2,57
-27,-2,57
-28,-2,57
-27,-2,57
-27,-2,57
-28,-2,57
-27,-2,57
-27,-2,58
-27,-2,57
-26,-2,58
-27,-2,58
-27,-3,56
-27,-2,57
-28,-2,56
-27,-1,56
-26,-1,58
-26,-2,58
-28,-2,57
-28,-2,57
-27,-2,57
-27,-1,57
-27,-1,57
-27,-2,57
-28,-2,57
-27,-2,57
-27,-2,57
-27,-2,57
-27,-2,57
-27,-1,57
-27,-1,57
-27,-2,57
-27,-2,57
-27,-2,57
-27,-2,57
-27,-2,57
-27,-1,57
-27,-1,57
-27,-2,57
-27,-2,57
-27,-2,57
-27,-2,57
-27,-2,58
-27,-2,57
-27,-2,57
-27,-2,57
-27,-2,57
-27,-2,57
-27,-2,57
-27,-2,57
-27,-2,57
-27,-2,58
-27,-2,57
-28,-1,56
-27,-1,57
-26,-1,57
-27,-2,57
-28,-2,57
-28,-2,57
-28,-2,57
-27,-1,57
-27,-1,57
-27,-2,57
-29,-2,56
-28,-1,56
-28,-2,57
-27,-2,57
-28,-2,57
-27,-2,57
-27,-2,57
-27,-2,57
-27,-2,57
-27,-2,57
-27,-2,57
-27,-2,57
-27,-2,57
-27,-2,57
-27,-2,58
-27,-2,57
-27,-1,57
-27,-2,57
-27,-2,58
-27,-2,57
-27,-2,57
-28,-2,56
-28,-2,56
-28,-2,56
-28,-2,56
-28,-2,57
-28,-1,57
-28,-2,57
-27,-2,57
-27,-2,57
-27,-2,57
-28,-2,57
-28,-2,57
-28,-2,57
-27,-2,57
-26,-2,58
-27,-2,57
-28,-1,57
-28,-1,57
-29,-1,56
-28,-3,57
-25,-3,59
-27,-2,57
-28,-1,57
-27,-1,57
-27,-1,57
-26,-2,58
-27,-2,58
-27,-2,58
-27,-2,58
-28,-1,56
-28,-1,56
-26,-1,58
-26,-2,58
-27,-2,58
-27,-2,57
-25,-2,58
-27,-2,58
-28,-2,56
-26,-2,58
-27,-2,57
-27,-1,57
-26,-1,58
-26,-1,58
-27,-2,57
-27,-2,58
-27,-2,57
-27,-2,57
-26,-2,58
-26,-1,58
-28,-2,56
-29,-2,56
-29,-2,56
-27,-3,57
-28,-2,56
-29,-2,56
-29,-1,56
-29,-2,56
-28,-2,56
-26,-2,58
-27,-3,57
-28,-2,57
-30,-2,56
-27,-2,57
-27,-2,57
-28,-2,56
-28,-2,57
-27,-2,57
-29,-2,56
-28,-2,56
-27,-2,57
-28,-2,57
-29,-2,56
-28,-2,57
-29,-2,56
-28,-2,56
-27,-2,57
-27,-2,57
-27,-2,57
-28,-2,56
-28,-2,56
-28,-2,57
-29,-2,56
-29,-2,57
-27,-3,56
-28,-2,56
-29,-2,56
-29,-3,56
-28,-2,56
-28,-2,56
-29,-2,56
-28,-2,57
-28,-3,57
-28,-3,56
-28,-3,57
-28,-2,56
-29,-2,56
-28,-3,57
-28,-3,57
-28,-2,57
-28,-2,57
-28,-3,57
-28,-3,57
-28,-2,58
-28,-2,56
-28,-1,56
-27,-2,57
-28,-3,57
-28,-3,57
-28,-3,56
-28,-2,56
-28,-2,56
-27,-2,57
-27,-2,57
-28,-2,57
-28,-3,59
-28,-2,56
-28,-2,57
-27,-2,57
-27,-2,57
-27,-2,57
-27,-2,57
-28,-2,57
-28,-2,57
-28,-2,57
-28,-2,57
-28,-2,56
-27,-2,57
-28,-2,57
-28,-2,56
-28,-3,56
-28,-2,56
-27,-2,56
-26,-4,55
-27,-2,58
-27,-3,57
-29,-2,56
-29,-3,56
-28,-2,57
-28,-3,57
-29,-3,56
-29,-3,56
-28,-3,57
-29,-2,56
-29,-2,56
-28,-3,57
-28,-3,57
-27,-3,57
-28,-2,56
-28,-2,56
-29,-2,56
-29,-2,57
-28,-3,57
-28,-3,57
-28,-2,56
-27,-2,56
-28,-2,57
-27,-2,57
-28,-3,56
-29,-3,56
-28,-3,56
-28,-3,57
-26,-2,57
-26,-2,57
-27,-2,57
-27,-2,57
-25,-4,57
-27,-3,59
-28,-4,58
-30,-2,55
-29,-2,55
-26,-2,57
-27,-2,57
-28,-3,57
-28,-4,57
-27,-2,57
-27,-2,57
-27,-2,57
-27,-2,57
-28,-3,57
-28,-3,57
-28,-3,57
-27,-2,56
-29,-2,56
-28,-2,56
-29,-3,56
-29,-3,56
-29,-4,55
-29,-3,55
-29,-3,56
-29,-3,55
-29,-3,56
-29,-3,56
-29,-3,56
-29,-3,56
-29,-2,56
-29,-3,56
-28,-4,56
-29,-3,56
-29,-3,56
-29,-3,56
-29,-2,56
-29,-3,56
-29,-3,56
-29,-3,56
-28,-4,56
-28,-2,57
-28,-2,56
-29,-2,56
-29,-2,56
-28,-3,57
-27,-3,57
-28,-3,57
-28,-2,56
-28,-3,56
-28,-2,57
-27,-2,57
-27,-2,57
-29,-2,57
-29,-2,56
-28,-3,57
-27,-3,57
-28,-3,56
-28,-2,56
-29,-2,56
-28,-3,57
-28,-3,57
-28,-3,56
-29,-3,56
-29,-3,56
-28,-3,56
-28,-3,56
-29,-3,56
-29,-3,56
-30,-3,56
-28,-3,56
-30,-3,56
-29,-3,56
-29,-3,56
-29,-3,56
-29,-3,56
-29,-3,56
-29,-3,56
-29,-3,56
-29,-3,56
-29,-3,56
-29,-3,55
-29,-3,56
-29,-2,56
-30,-3,55
-30,-3,56
-29,-3,56
-29,-3,56
-30,-3,55
-29,-3,57
-29,-3,56
-29,-3,56
-29,-3,56
-29,-3,56
-29,-3,56
-29,-3,56
-29,-4,55
-30,-3,55
-30,-3,56
-29,-3,56
-29,-3,56
-29,-2,56
-29,-2,56
-29,-3,56
-29,-3,56
-29,-3,57
-29,-2,56
-28,-3,56
-29,-3,56
-28,-3,56
-29,-3,56
-30,-3,55
-30,-3,56
-29,-3,57
-28,-2,55
-29,-2,56
-29,-3,56
-30,-3,56
-29,-3,56
-29,-3,56
-29,-2,56
-30,-3,55
-31,-3,55
-30,-3,56
-28,-4,57
-29,-3,56
-29,-3,55
-30,-3,55
-30,-3,56
-30,-3,56
-29,-3,56
-29,-3,56
-29,-3,56
-29,-3,56
-30,-3,56
-30,-3,56
-29,-3,56
-29,-3,56
-29,-3,56
-29,-3,56
-29,-3,56
-30,-3,56
-30,-3,56
-29,-3,56
-27,-3,57
-27,-3,57
-28,-2,57
-30,-3,56
-29,-3,56
-29,-3,56
-28,-3,56
-28,-3,57
-29,-3,57
-28,-3,56
-29,-3,56
-29,-3,55
-29,-3,56
-30,-3,56
-31,-3,55
-29,-3,56
-28,-3,57
-28,-3,56
-29,-3,56
-29,-3,56
-29,-3,56
-29,-3,56
-29,-3,56
-29,-3,56
-30,-3,55
-29,-3,56
-29,-3,56
-31,-3,55
-30,-3,56
-29,-3,56
-30,-4,55
-30,-4,56
-30,-3,56
-29,-3,56
-29,-3,55
-30,-3,54
-30,-3,55
-30,-3,56
-31,-4,56
-30,-4,56
-29,-5,57
-29,-4,56
-30,0,55
-29,0,55
-29,-5,57
-32,-5,56
-31,-5,56
-29,-1,56
-25,-1,56
-24,0,59
-24,-3,59
-26,-4,59
-28,-3,56
-37,-5,50
-36,-6,52
-30,-5,54
-28,-2,56
-30,-3,55
-31,-4,54
-32,-4,55
-30,-4,56
-30,-4,56
-30,-3,55
-32,-3,54
-31,-4,54
-30,-4,55
-29,-5,56
-31,-4,55
-32,-3,54
-30,-3,55
-30,-3,55
-31,-4,55
-31,-4,55
-32,-4,55
-31,-4,55
-32,-4,54
-31,-4,54
-31,-3,54
-30,-3,55
-31,-4,55
-30,-3,56
-27,-3,58
-28,-2,58
-28,-2,56
-27,-2,56
-27,-3,56
-29,-4,56
-29,-5,57
-29,-4,56
-29,-4,56
-28,-3,56
-27,-3,57
-27,-2,57
-28,-2,57
-29,-3,56
-29,-3,57
-28,-5,56
-29,-3,56
-29,-3,56
-29,-3,56
-29,-3,56
-28,-3,57
-28,-3,57
-27,-4,58
-28,-2,56
-29,-2,55
-29,-2,56
-28,-3,56
-28,-4,57
-26,-3,58
-28,-3,57
-29,-3,56
-30,-2,55
-29,-1,56
-25,-1,58
-25,-2,59
-27,-3,58
-28,-3,57
-27,-3,58
-29,-3,55
-30,-3,55
-28,-2,56
-25,-2,59
-26,-2,58
-26,-2,58
-28,-2,57
-28,-2,57
-27,-2,57
-27,-3,57
-28,-3,57
-29,-3,56
-29,-2,56
-28,-2,56
-28,-3,56
-29,-3,57
-29,-4,56
-28,-3,57
-28,-3,56
-29,-4,56
-29,-3,56
-28,-2,56
-28,-3,55
-27,-5,56
-28,-5,57
-26,-6,54
-27,-4,56
-27,-6,51
-33,1,52
-26,1,60
-22,-2,60
-25,-1,60
-26,0,58
-28,2,58
-27,-1,56
-28,0,57
-26,-1,58
-27,-3,58
-28,-3,56
-28,-3,56
-27,0,56
-28,-2,55
-30,-3,55
-30,-5,55
-28,-5,57
-27,-3,58
-27,-2,57
-28,-1,56
-27,-1,56
-29,-2,56
-30,-4,56
-29,-4,57
-27,-4,57
-29,-3,56
-32,-3,54
-30,-4,55
-27,-4,57
-27,-3,58
-29,-2,56
-29,-3,56
-29,-4,56
-29,-5,57
-29,-4,57
-30,-4,56
-29,-3,55
-30,-4,56
-30,-4,55
-30,-3,56
-29,-5,57
-28,-5,56
-27,-3,57
-27,-3,57
-29,-3,56
-30,-3,55
-30,-3,56
-29,-3,56
-29,-3,56
-30,-2,56
-29,-4,56
-31,-5,55
-30,-5,56
-26,-3,58
-28,-1,57
-29,-1,56
-28,-2,56
-28,-3,58
-28,-5,56
-31,-5,55
-27,-2,58
-25,-2,58
-25,-1,58
-29,-2,56
-30,-3,55
-29,-3,56
-28,-3,56
-28,-4,56
-26,-3,57
-24,-1,59
-25,-1,58
-28,-1,57
-30,-1,56
-29,-2,57
-26,-3,57
-31,-3,54
-31,-2,54
-28,-2,56
-24,-1,59
-25,-1,59
-29,-1,56
-32,-2,55
-30,-3,55
-29,-2,56
-30,-3,56
-31,-3,55
-30,-2,56
-29,-2,56
-31,-2,55
-32,-3,55
-28,-3,56
-28,-3,56
-30,-2,55
-30,-2,56
-30,-2,56
-29,-3,56
-28,-3,57
-26,0,58
-27,1,58
-29,1,56
-38,-3,52
-35,-5,54
-33,-4,54
-29,-2,55
-32,-2,53
-34,-2,52
-35,-3,53
-34,-4,53
-34,-4,53
-33,-5,53
-31,-4,55
-31,-3,55
-32,-2,55
-34,-3,54
-32,-3,55
-30,-2,55
-31,-2,55
-32,-2,55
-33,-4,53
-36,-2,52
-35,-2,52
-30,-4,55
-28,-4,57
-29,-4,57
-30,-1,57
-30,-2,54
-33,-1,53
-32,-1,56
-28,-2,57
-28,-4,56
-36,-3,53
-35,-5,52
-34,-3,54
-31,-5,54
-35,-3,53
-35,-3,53
-33,-2,55
-32,-3,54
-34,-3,53
-34,-4,53
-33,-4,54
-33,-4,54
-33,-3,54
-32,-3,54
-31,-3,55
-33,-3,54
-33,-3,54
-33,-4,54
-32,-3,54
-32,-3,54
-33,-2,54
-30,-1,55
-30,-2,56
-31,-3,55
-31,-1,57
-29,-1,57
-27,-2,57
-31,-2,55
-32,-2,55
-31,-3,55
-31,-3,56
-29,-3,56
-29,-1,56
-30,-2,55
-32,-2,54
-31,-2,55
-29,-3,56
-30,-3,56
-32,-3,54
-32,-2,55
-31,-1,55
-33,-2,54
-31,-2,55
-31,-2,55
-31,-2,55
-31,-3,55
-32,-4,54
-31,-3,56
-29,-1,57
-29,-1,56
-31,0,55
-31,-1,55
-30,-2,56
-29,-2,57
-30,-1,56
-29,-1,56
-29,0,56
-27,-1,56
-29,-1,59
-29,-1,58
-30,-2,54
-31,-1,56
-32,-1,55
-31,0,55
-29,1,55
-32,-1,55
-33,0,56
-33,-1,54
-33,0,55
-30,-2,54
-32,-2,55
-34,-2,54
-34,-2,54
-33,-3,53
-33,-3,53
-33,-3,54
-32,-3,55
-30,-2,56
-28,-2,57
-30,-1,56
-30,-2,56
-30,-3,56
-31,-3,55
-31,-4,55
-32,-3,54
-31,-4,53
-34,-4,53
-34,-5,52
-33,-4,54
-31,-4,56
-31,-4,56
-29,-2,55
-30,-1,55
-31,-1,53
-29,-2,55
-28,-3,58
-28,-3,58
-29,-1,58
-27,1,59
-27,2,58
-23,-1,58
-32,0,54
-34,-1,53
-29,-1,57
-29,-1,57
-29,-1,56
-33,-1,54
-34,-4,53
-34,-4,54
-32,-3,55
-31,-1,55
-29,-2,56
-30,-3,55
-30,-4,55
-30,-4,55
-31,-5,55
-32,-5,55
-30,-4,55
-29,-3,56
-29,-3,56
-29,-3,56
-29,-5,56
-30,-5,56
-31,-5,55
-30,-3,55
-28,-2,57
-27,-2,57
-27,-3,58
-27,-4,58
-28,-3,57
-27,-4,56
-30,-2,55
-30,-2,56
-30,-2,56
-29,-2,56
-29,-3,56
-28,-3,57
-27,-3,57
-27,-2,58
-27,-2,57
-28,-2,57
-28,-2,57
-28,-2,57
-29,-3,56
-29,-3,56
-30,-2,55
-30,-2,55
-27,-3,57
-29,-4,56
-29,-4,56
-27,-2,57
-27,-1,56
-29,-2,56
-30,-3,56
-29,-3,56
-29,-4,56
-28,-2,56
-26,-1,58
-26,0,58
-26,-1,57
-28,-2,58
-28,-2,58
-29,-2,56
-30,-2,55
-30,-2,55
-28,-2,56
-29,-2,56
-30,-2,56
-29,-2,56
-29,-2,56
-30,-2,56
-30,-2,56
-29,-2,56
-29,-2,56
-30,-2,56
-30,-2,56
-30,-2,56
-29,-2,56
-29,-2,56
-29,-2,56
-28,-2,56
-28,-2,57
-27,-2,57
-27,-2,57
-28,-2,57
-27,-2,57
-28,-1,57
-27,-2,57
-26,-1,57
-28,-1,57
-27,-1,57
-28,-1,57
-28,0,56
-26,-1,57
-26,-1,58
-28,0,56
-29,0,56
-28,0,57
-27,-2,58
-26,-1,58
-27,-1,57
-28,0,57
-28,0,57
-28,-1,57
-27,-1,57
-28,0,57
-27,0,57
-28,-1,57
-28,0,57
-28,-1,57
-28,-1,57
-28,-1,57
-29,-1,56
-29,-1,56
-29,-1,56
-29,-2,56
-30,-2,56
-30,-1,56
-30,-1,55
-30,-1,56
-29,-1,56
-30,-2,56
-30,-1,56
-30,-1,55
-30,-1,55
-30,-1,55
-30,-1,56
-30,-2,55
-30,-2,55
-30,-1,56
-30,-2,56
-30,-1,56
-29,-1,56
-29,-2,56
-29,-1,56
-30,-2,56
-30,-2,55
-30,-1,55
-31,-2,55
-30,-2,55
-31,-2,55
-31,-2,55
-30,-2,55
-29,-2,56
-27,-2,57
-31,0,55
-31,0,55
-28,-1,57
-29,-3,57
-30,-3,56
-29,-1,56
-29,0,55
-29,-1,56
-28,-2,57
-27,-2,58
-28,-2,58
-30,-1,56
-29,-2,56
-30,-2,55
-29,-2,56
-31,-2,55
-31,-2,55
-30,-2,55
-29,-2,56
-29,-2,57
-29,-1,56
-29,-2,56
-30,-2,56
-32,-3,55
-30,-2,55
-29,-2,56
-30,-2,55
-31,-2,55
-33,-2,54
-34,-3,53
-33,-4,53
-33,-3,54
-28,0,57
-27,1,57
-28,2,57
-26,0,58
-23,-1,60
-25,-1,60
-27,0,58
-26,-1,58
-26,-2,58
-29,-2,56
-31,-2,55
-30,-3,55
-29,-2,55
-31,-2,54
-33,-2,54
-30,-3,55
-30,-3,56
-30,-2,55
-31,-2,55
-32,-1,55
-30,-2,55
-31,-2,55
-32,-2,54
-32,-2,55
-31,-2,55
-30,-3,55
-30,-2,56
-30,-1,55
-29,-2,55
-30,-2,56
-30,-3,56
-30,-3,56
-29,-2,56
-28,-1,56
-29,-1,56
-30,-1,56
-30,-2,56
-29,-2,56
-29,-1,56
-28,-1,56
-29,-1,57
-29,-2,56
-30,-2,56
-31,-2,55
-30,-3,55
-31,-2,55
-28,-2,57
-28,-3,57
-30,-2,56
-30,-2,56
-29,-3,55
-30,-2,55
-30,-2,56
-28,-2,57
-30,-1,58
-31,-2,56
-30,-4,55
-30,-3,55
-28,-3,56
-27,-3,57
-29,-2,56
-29,-3,55
-31,-3,55
-30,-3,56
-29,-2,57
-29,-3,56
-30,-3,56
-31,-3,55
-31,-3,55
-32,-3,55
-32,-4,55
-32,-4,55
-32,-4,54
-34,-3,54
-34,-4,53
-34,-4,53
-35,-4,53
-33,-4,54
-33,-3,54
-32,-4,55
-33,-4,53
-34,-3,54
-32,-3,55
-32,-4,54
-33,-3,54
-31,-3,56
-31,-3,55
-31,-3,54
-31,-3,55
-32,-4,55
-33,-4,55
-33,-4,54
-33,-4,54
-32,-4,54
-32,-4,55
-33,-3,54
-33,-3,54
-34,-3,54
-34,-4,53
-33,-5,54
-33,-4,54
-33,-3,54
-33,-3,54
-34,-3,54
-34,-4,54
-34,-4,54
-34,-4,53
-34,-4,53
-34,-3,53
-35,-4,53
-34,-4,54
-34,-4,54
-34,-3,53
-34,-3,53
-34,-4,53
-34,-4,53
-33,-4,54
-32,-4,54
-33,-4,54
-34,-3,54
-33,-3,54
-33,-3,54
-32,-3,54
-34,-3,54
-33,-3,54
-33,-3,54
-33,-3,54
-33,-3,54
-33,-3,54
-33,-3,54
-33,-3,54
-34,-3,54
-33,-3,54
-33,-3,54
-33,-3,54
-33,-3,54
-34,-3,53
-33,-3,54
-33,-3,54
-33,-3,54
-33,-2,54
-33,-3,54
-33,-3,54
-33,-3,54
-33,-3,54
-33,-3,54
-33,-3,54
-33,-3,54
-33,-3,54
-33,-3,54
-32,-3,54
-33,-3,54
-33,-2,54
-34,-2,53
-32,-3,54
-33,-3,54
-33,-3,54
-33,-3,54
-34,-3,53
-34,-3,54
-33,-3,54
-32,-3,54
-33,-2,54
-33,-3,54
-33,-3,54
-33,-3,54
-32,-3,55
-32,-3,54
-33,-2,54
-32,-2,54
-32,-2,55
-32,-3,54
-33,-3,54
-33,-3,54
-32,-2,54
-32,-2,54
-32,-3,55
-34,-3,54
-34,-3,54
-33,-3,54
-33,-2,54
-32,-2,54
-32,-3,54
-34,-3,54
-34,-3,54
-34,-3,54
-33,-3,54
-33,-3,54
-33,-3,54
-33,-3,54
-33,-3,54
-33,-3,54
-33,-3,54
-33,-3,54
-33,-3,54
-33,-3,54
-33,-3,54
-33,-3,54
-33,-3,54
-33,-3,53
-33,-2,54
-34,-3,54
-35,-4,53
-34,-4,53
-32,-3,54
-33,-2,54
-34,-3,53
-35,-3,53
-35,-4,53
-34,-3,53
-33,-2,54
-33,-2,53
-35,-3,53
-35,-4,53
-34,-3,53
-34,-3,53
-34,-3,53
-34,-3,53
-34,-3,53
-34,-3,54
-34,-3,54
-34,-3,53
-34,-2,54
-33,-3,53
-34,-3,53
-34,-3,53
-35,-3,53
-35,-3,53
-35,-3,53
-34,-3,53
-34,-3,53
-34,-3,53
-35,-3,53
-34,-3,53
-34,-3,54
-34,-3,53
-34,-3,54
-34,-3,53
-34,-2,54
-33,-2,54
-34,-3,54
-34,-3,53
-34,-3,54
-34,-3,54
-34,-3,53
-34,-2,53
-34,-2,53
-34,-3,53
-35,-3,54
-35,-3,53
-33,-3,54
-33,-3,54
-33,-3,54
-32,-3,54
-33,-3,54
-33,-4,54
-33,-3,54
-33,-3,54
-33,-3,54
-33,-3,54
-34,-3,54
-33,-3,54
-33,-3,54
-34,-3,54
-33,-3,54
-34,-6,52
-32,-4,52
-32,-2,58
-33,-3,55
-36,-4,53
-36,-4,53
-32,-3,54
-31,-2,55
-32,-3,54
-35,-3,53
-35,-3,53
-34,-3,53
-33,-3,54
-32,-2,54
-32,-3,54
-34,-3,53
-34,-3,53
-34,-3,54
-33,-3,54
-32,-2,54
-33,-3,54
-33,-3,54
-34,-3,54
-34,-3,54
-33,-3,54
-33,-3,54
-33,-3,54
-33,-3,54
-34,-3,54
-33,-3,54
-33,-3,54
-33,-3,54
-33,-2,54
-33,-2,55
-34,-3,54
-35,-4,53
-33,-3,54
-32,-3,54
-33,-3,53
-33,-3,54
-34,-3,54
-33,-4,54
-33,-4,54
-33,-3,54
-34,-3,53
-33,-3,54
-33,-3,54
-34,-4,53
-34,-3,53
-34,-3,53
-34,-3,54
-34,-3,54
-35,-4,53
-34,-4,54
-33,-3,53
-34,-3,53
-33,-3,53
-34,-3,53
-33,-3,54
-33,-3,54
-33,-3,54
-34,-4,54
-33,-4,54
-33,-3,54
-33,-1,53
-34,-1,53
-32,-3,54
-33,-4,55
-35,-4,53
-35,-3,52
-35,-3,53
-31,-3,54
-32,-3,55
-34,-4,54
-35,-3,53
-34,-3,53
-32,-2,54
-32,-3,54
-34,-3,53
-35,-3,53
-34,-3,54
-34,-3,54
-34,-3,53
-33,-2,53
-33,-2,53
-34,-3,54
-34,-3,55
-33,-4,53
-33,-3,52
-33,-2,55
-32,-3,53
-33,-2,54
-32,-2,55
-32,-2,55
-32,-2,55
-31,-2,55
-31,-2,55
-31,-2,55
-31,-2,55
-31,-2,56
-30,-2,55
-33,-1,53
-33,-1,53
-33,-2,54
-33,-3,54
-33,-3,54
-33,-2,54
-31,-1,54
-31,-1,55
-33,-2,54
-32,-1,55
-33,-1,55
-34,-3,53
-32,-2,54
-31,-1,54
-31,-1,56
-32,-2,58
-31,-3,54
-33,-1,56
-32,-2,53
-33,-1,53
-32,-1,55
-32,-2,55
-34,-2,53
-34,-1,53
-34,-1,54
-34,-2,54
-34,-3,54
-34,-3,54
-34,-2,53
-34,-1,52
-35,-1,53
-33,-2,54
-34,-4,54
-35,-4,54
-36,-4,52
-35,-2,52
-33,-1,53
-32,-1,54
-33,-4,55
-35,-5,55
-36,-4,53
-34,-2,53
-32,-1,53
-32,0,54
-33,-3,55
-34,-5,55
-35,-5,54
-34,-2,53
-32,-1,54
-31,0,54
-33,-2,54
-34,-2,53
-35,-4,54
-34,-4,54
-33,-3,54
-32,-2,54
-33,-2,53
-34,-2,53
-33,-2,54
-33,-3,55
-33,-3,55
-34,-5,54
-33,-3,54
-33,-2,54
-33,-1,53
-32,-1,54
-32,-2,55
-34,-4,55
-36,-4,53
-34,-3,53
-31,-1,54
-31,-1,53
-33,-1,54
-34,-4,54
-36,-5,54
-35,-4,53
-32,-2,54
-31,-1,54
-32,-1,54
-34,-2,54
-34,-3,54
-34,-3,54
-33,-2,54
-32,-2,54
-32,-2,54
-33,-2,54
-34,-3,53
-35,-3,53
-35,-3,53
-35,-3,53
-35,-3,53
-35,-3,53
-34,-2,53
-35,-2,53
-35,-3,53
-35,-3,53
-34,-3,54
-34,-4,54
-34,-3,53
-33,-2,53
-33,-2,53
-33,-2,54
-33,-3,54
-32,-3,55
-31,-3,55
-32,-1,55
-32,-2,55
-32,-2,54
-33,-2,55
-33,-3,54
-33,-3,54
-34,-3,53
-34,-2,54
-33,-3,54
-33,-3,54
-33,-3,54
-34,-3,53
-34,-3,54
-34,-3,54
-33,-4,54
-34,-3,54
-33,-3,54
-33,-3,54
-34,-3,53
-34,-3,53
-33,-3,54
-33,-4,54
-35,-3,53
-34,-3,54
-32,-3,54
-33,-3,53
-34,-3,53
-33,-3,55
-33,-3,54
-33,-4,54
-32,-4,54
-33,-4,54
-33,-3,53
-32,-3,54
-32,-3,54
-32,-4,54
-33,-3,54
-32,-3,55
-32,-4,51
-31,-3,55
-31,-3,55
-35,-3,54
-34,-4,53
-34,-3,54
-31,-3,54
-31,-3,55
-31,-2,55
-33,-3,54
-32,-3,54
-31,-3,55
-30,-3,56
-31,-2,55
-31,-2,55
-30,-2,56
-30,-2,56
-30,-2,56
-31,-2,55
-30,-2,56
-30,-2,55
-30,-2,55
-31,-2,55
-31,-2,55
-32,-2,55
-31,-2,55
-31,-2,55
-30,-2,55
-31,-2,55
-31,-3,55
-32,-3,55
-32,-3,55
-32,-2,54
-32,-3,54
-33,-3,54
-32,-3,55
-32,-3,55
-32,-2,54
-32,-3,54
-32,-3,55
-32,-3,55
-33,-3,54
-33,-3,54
-33,-3,54
-33,-3,53
-33,-3,54
-33,-3,54
-33,-3,54
-33,-3,54
-33,-3,54
-33,-3,54
-33,-3,54
-33,-3,54
-33,-3,54
-33,-3,54
-32,-3,54
-32,-2,55
-32,-3,54
-33,-3,54
-33,-3,54
-32,-3,54
-32,-3,54
-33,-3,54
-32,-3,54
-32,-3,55
-32,-2,54
-32,-3,54
-32,-3,55
-32,-3,55
-32,-3,54
-32,-3,55
-32,-2,55
-32,-3,54
-32,-2,55
-32,-3,55
-32,-3,55
-32,-3,54
-32,-3,54
-32,-2,55
-32,-2,55
-32,-3,54
-33,-3,54
-33,-3,54
-33,-3,54
-32,-3,54
-32,-3,55
-33,-3,54
-33,-3,54
-33,-3,54
-33,-3,54
-33,-3,54
-33,-3,54
-33,-3,54
-33,-3,54
-33,-3,54
-33,-3,54
-33,-3,54
-33,-3,54
-33,-3,54
-33,-3,54
-33,-3,54
-33,-3,54
-33,-3,54
-33,-3,54
-33,-3,54
-33,-3,54
-33,-3,54
-33,-3,54
-33,-3,54
-32,-3,54
-33,-3,54
-33,-3,54
-32,-2,54
-32,-3,55
-32,-3,54
-34,-3,54
-33,-3,54
-33,-3,54
-33,-3,54
-32,-3,54
-33,-3,54
-33,-3,54
-33,-3,54
-33,-3,54
-33,-3,54
-33,-3,54
-33,-3,54
-33,-3,54
-33,-3,54
-33,-3,54
-33,-3,54
-33,-3,54
-32,-3,54
-33,-3,54
-34,-3,54
-33,-3,54
-32,-3,54
-32,-3,54
-32,-3,55
-33,-3,54
-33,-3,54
-33,-3,54
-33,-3,54
-32,-3,55
-32,-3,55
-32,-3,54
-33,-2,54
-31,-2,55
-32,-3,55
-32,-3,54
-32,-3,54
-32,-2,55
-32,-2,54
-32,-2,55
-32,-3,55
-32,-3,55
-32,-2,54
-31,-2,55
-32,-3,55
-33,-2,54
-34,-3,53
-34,-3,54
-33,-3,54
-33,-3,54
-32,-3,54
-33,-3,54
-33,-3,54
-33,-3,54
-33,-3,54
-33,-3,54
-33,-3,54
-33,-3,54
-33,-3,54
-33,-3,54
-33,-3,54
-33,-3,54
-33,-3,54
-33,-3,54
-33,-3,54
-33,-3,54
-33,-3,54
-33,-3,54
-33,-3,54
-33,-3,54
-33,-3,54
-33,-3,54
-33,-3,54
-32,-2,54
-33,-3,55
-33,-2,54
-34,-2,53
-34,-2,53
-33,-3,54
-33,-3,54
-34,-3,54
-33,-3,54
-33,-2,54
-33,-2,54
-34,-3,53
-33,-3,54
-33,-3,54
-33,-3,54
-33,-2,54
-34,-2,53
-33,-2,54
-32,-3,54
-33,-3,54
-34,-3,54
-34,-3,54
-33,-3,54
-32,-2,54
-32,-2,54
-33,-2,54
-34,-3,54
-34,-3,54
-33,-3,54
-33,-3,54
-33,-3,53
-33,-3,53
-34,-3,54
-33,-3,54
-33,-2,54
-32,-3,54
-32,-3,54
-32,-3,54
-33,-3,54
-33,-3,54
-33,-3,54
-33,-2,54
-33,-2,54
-32,-3,54
-33,-3,54
-33,-3,54
-33,-3,54
-33,-3,54
-33,-3,54
-33,-3,54
-33,-3,54
-33,-3,54
-33,-3,54
-33,-3,54
-33,-3,54
-33,-3,54
-33,-3,54
-33,-3,54
-33,-3,54
-33,-3,54
-33,-3,54
-34,-3,54
-34,-3,54
-33,-3,54
-33,-3,54
-34,-3,53
-34,-3,54
-33,-3,54
-33,-3,54
-32,-3,54
-33,-3,54
-34,-3,53
-34,-3,53
-34,-2,53
-33,-3,54
-33,-3,54
-33,-3,54
-33,-3,54
-33,-3,54
-33,-3,54
-33,-3,54
-33,-3,54
-33,-3,54
-33,-3,54
-33,-3,54
-33,-3,54
-33,-3,54
-33,-3,54
-33,-3,54
-33,-3,54
-33,-3,54
-33,-3,54
-33,-3,54
-33,-3,54
-33,-3,54
-33,-3,54
-33,-3,54
-33,-3,54
-33,-3,54
-33,-3,54
-33,-3,54
-33,-3,54
-33,-3,54
-33,-3,54
-33,-3,54
-33,-3,54
-34,-3,54
-33,-3,54
-33,-3,54
-33,-3,54
-33,-3,54
-33,-3,54
-33,-3,54
-33,-3,54
-33,-3,54
-33,-3,54
-33,-3,54
-33,-3,54
-33,-3,54
-33,-3,53
-33,-3,54
-33,-3,54
-33,-3,54
-33,-3,54
-33,-3,54
-34,-3,53
-34,-3,53
-33,-3,54
-34,-3,53
-33,-3,54
-33,-3,54
-34,-3,54
-33,-3,54
-33,-3,54
-33,-3,54
-34,-3,53
-34,-3,53
-33,-3,54
-33,-3,54
-34,-3,54
-33,-3,54
-33,-3,54
-33,-3,54
-33,-3,54
-33,-3,54
-33,-3,54
-33,-3,54
-33,-3,54
-33,-3,54
-33,-3,54
-33,-3,54
-33,-3,54
-33,-3,54
-33,-3,54
-33,-3,54
-33,-3,54
-33,-3,54
-33,-3,54
-33,-3,54
-33,-3,54
-33,-3,54
-33,-3,54
-33,-3,54
-33,-3,54
-34,-3,54
-33,-3,54
-33,-3,54
-33,-3,54
-32,-3,54
-32,-3,54
-33,-3,54
-33,-3,54
-32,-3,55
-33,-3,54
-32,-3,54
-32,-3,55
-33,-3,54
-33,-3,54
-33,-3,54
-33,-3,54
-33,-3,54
-33,-3,54
-33,-3,54
-33,-3,54
-33,-3,54
-33,-3,54
-33,-3,54
-32,-3,54
-33,-3,54
-33,-3,54
-32,-3,55
-33,-3,54
-33,-3,54
-32,-2,54
-33,-2,54
-32,-3,54
-34,-3,54
-33,-3,55
-32,-3,55
-32,-2,54
-32,-3,54
-33,-3,54
-34,-3,54
-32,-3,54
-32,-3,54
-32,-3,54
-32,-3,54
-33,-3,54
-33,-3,54
-33,-3,54
-32,-3,54
-32,-3,54
-32,-3,54
-32,-3,54
-33,-3,54
-33,-3,54
-32,-3,54
-32,-3,54
-32,-3,54
-33,-3,54
-33,-3,54
-33,-3,54
-33,-3,54
-32,-3,54
-33,-3,54
-33,-3,54
-33,-3,54
-33,-3,54
-32,-3,54
-32,-3,54
-33,-3,54
-33,-3,54
-32,-3,55
-33,-3,54
-32,-3,54
-32,-3,55
-32,-3,54
-34,-3,53
-33,-3,54
-33,-3,54
-33,-3,54
-32,-3,55
-32,-3,55
-33,-3,54
-31,-3,54
-32,-2,54
-32,-3,55
-32,-3,55
-32,-3,55
-31,-3,55
-30,-3,56
-31,-2,55
-32,-2,54
-32,-2,55
-31,-2,55
-31,-3,55
-32,-3,55
-31,-2,55
-32,-2,55
-32,-2,54
-31,-2,55
-31,-3,55
-32,-3,55
-32,-3,55
-30,-2,55
-31,-2,55
-31,-3,55
-30,-2,56
-31,-3,55
-31,-3,55
-31,-3,55
-31,-2,55
-32,-2,54
-31,-2,55
-31,-2,55
-31,-2,55
-30,-2,55
-30,-2,56
-30,-2,56
-29,-2,56
-29,-3,56
-30,-3,55
-31,-2,55
-30,-2,56
-30,-2,55
-30,-2,55
-31,-2,56
-31,-2,55
-31,-3,55
-31,-3,54
-32,-3,55
-32,-3,55
-31,-2,55
-31,-2,55
-30,-2,55
-30,-2,56
-30,-2,55
-31,-3,55
-32,-3,55
-31,-3,55
-29,-1,56
-29,-2,57
-30,-1,56
-30,-1,56
-30,-1,57
-26,-2,58
-25,-4,57
-29,-5,55
-33,-4,53
-29,-2,56
-27,-2,58
-27,-2,58
-29,-3,56
-28,-2,57
-27,-2,57
-28,-2,57
-28,-2,57
-27,-3,58
-24,-3,59
-22,-3,59
-23,-2,58
-25,-2,58
-26,-2,58
-26,-3,58
-26,-3,57
-26,-3,57
-27,-3,57
-27,-3,57
-26,-3,57
-27,-3,57
-27,-3,57
-28,-3,57
-27,-4,58
-26,-3,58
-26,-3,57
-27,-3,57
-27,-2,57
-27,-3,57
-27,-3,57
-26,-3,58
-25,-3,58
-26,-2,58
-26,-2,57
-27,-3,57
-28,-2,57
-27,-3,57
-26,-2,58
-27,-3,58
-28,-3,56
-27,-2,57
-27,-3,57
-27,-3,58
-27,-3,57
-28,-3,57
-28,-3,57
-29,-3,56
-28,-3,56
-27,-3,57
-28,-3,57
-28,-3,57
-28,-3,57
-28,-3,57
-28,-3,57
-28,-3,56
-28,-2,56
-27,-2,57
-27,-2,57
-28,-3,57
-29,-4,56
-30,-3,56
-30,-3,55
-28,-3,56
-29,-3,57
-28,-3,57
-29,-3,56
-29,-3,56
-29,-3,56
-29,-3,56
-30,-3,55
-31,-3,55
-28,-3,56
-28,-3,56
-29,-3,56
-29,-3,56
-29,-3,56
-29,-3,56
-29,-3,56
-29,-3,56
-29,-3,56
-28,-3,56
-28,-3,57
-29,-3,56
-29,-3,56
-28,-2,57
-27,-2,57
-28,-2,56
-29,-3,56
-29,-3,56
-29,-3,56
-29,-2,56
-28,-2,56
-28,-2,56
-29,-3,56
-29,-3,56
-28,-3,57
-31,-3,55
-31,-3,55
-30,-4,56
-25,-2,58
-25,-1,57
-25,-1,57
-28,-2,57
-31,-3,56
-32,-3,55
-32,-3,55
-29,-2,56
-28,-2,56
-29,-2,56
-30,-3,56
-30,-2,55
-30,-2,56
-30,-2,55
-30,-2,55
-30,-3,55
-31,-2,56
-30,-2,56
-29,-2,56
-29,-2,56
-29,-2,56
-29,-3,57
-29,-3,56
-30,-3,56
-31,-2,54
-29,-2,55
-29,-2,56
-30,-2,56
-30,-2,56
-29,-2,56
-29,-2,56
-30,-2,56
-31,-3,55
-30,-2,56
-30,-2,55
-29,-2,56
-29,-2,56
-29,-2,56
-30,-2,56
-30,-2,56
-29,-3,56
-29,-2,56
-29,-2,56
-30,-2,55
-30,-2,56
-29,-2,56
-30,-2,56
-29,-2,56
-30,-2,56
-29,-2,56
-30,-2,56
-30,-3,56
-30,-2,56
-30,-2,55
-30,-2,56
-30,-2,55
-32,-3,55
-29,-2,56
-30,-3,58
-30,-3,54
-31,-2,55
-31,-3,55
-30,-3,56
-30,-3,56
-30,-2,56
-30,-2,54
-30,-3,56
-30,-3,56
-31,-3,55
-31,-3,55
-30,-3,55
-30,-2,55
-29,-3,56
-29,-3,56
-30,-3,56
-30,-3,55
-31,-3,55
-31,-3,55
-32,-3,54
-33,-3,54
-30,-3,55
-30,-3,55
-30,-3,55
-28,-2,57
-27,-2,58
-30,-1,57
-31,-2,55
-30,-1,56
-29,-1,56
-27,-3,56
-28,-4,56
-33,-4,54
-35,-3,53
-30,-3,55
-30,-3,55
-33,-3,53
-33,-2,54
-31,-2,55
-30,-1,57
-30,-2,56
-32,-2,55
-31,-2,55
-31,-3,55
-31,-3,55
-30,-2,55
-29,-2,56
-30,-1,56
-31,-2,55
-31,-3,55
-31,-3,55
-29,-4,55
-29,-3,55
-32,-3,54
-33,-3,54
-30,-1,56
-29,0,57
-32,-1,55
-32,-1,54
-30,-1,56
-29,0,56
-30,0,56
-32,-1,56
-30,0,56
-31,-1,55
-32,0,54
-31,-1,55
-31,-2,55
-31,-1,55
-30,-1,56
-31,-1,55
-31,-1,55
-31,-2,56
-29,0,55
-30,-2,55
-30,0,55
-31,0,55
-30,-1,56
-30,-1,55
-30,-1,55
-30,-1,55
-30,-1,56
-30,-1,55
-30,-1,55
-31,-1,55
-32,-1,55
-31,-1,55
-31,-1,55
-31,-1,55
-30,-1,55
-30,-1,56
-30,-1,56
-29,0,56
-30,0,56
-29,0,56
-29,-1,56
-29,0,56
-30,-1,56
-31,-1,55
-31,-1,55
-31,-1,55
-30,-1,55
-31,-1,55
-31,-1,55
-31,0,55
-30,-1,55
-31,-1,55
-32,-1,55
-32,-1,55
-32,-1,55
-31,-1,55
-31,-1,55
-32,-1,55
-31,-1,56
-31,-1,55
-31,-1,55
-31,-1,55
-31,-1,55
-30,-1,56
-31,-1,55
-32,-1,55
-31,-1,55
-31,-1,55
-31,-1,55
-31,-1,55
-31,-1,55
-31,-1,55
-33,0,56
-30,-1,56
-31,0,55
-32,-1,55
-31,-1,55
-31,-1,56
-31,-1,55
-30,-1,56
-30,-1,56
-32,-1,57
-31,-1,56
-31,-1,55
-31,-1,55
-31,-1,55
-31,-1,55
-31,-1,55
-31,-1,55
-31,-1,55
-31,-1,55
-30,-1,55
-31,-1,55
-31,-1,55
-30,-1,56
-30,-1,55
-32,-1,55
-31,-1,55
-29,-1,56
-31,-2,55
-32,0,55
-29,-1,57
-30,-1,56
-32,-1,55
-31,-2,55
-30,-1,55
-30,-1,56
-30,-1,55
-31,-1,55
-31,-1,56
-31,-1,55
-32,-1,54
-30,-1,55
-31,-1,55
-32,-1,55
-32,-1,54
-32,-1,55
-31,-1,55
-31,-1,55
-31,-1,55
-31,-1,55
-31,-1,55
-31,-1,55
-31,-1,55
-31,-1,55
-31,-1,55
-31,-2,55
-31,-2,55
-31,-1,55
-31,0,55
-30,-2,55
-32,-2,55
-30,-2,56
-31,-2,55
-31,-1,55
-30,-1,55
-29,-1,56
-30,-1,56
-31,-2,55
-31,-1,56
-30,-1,56
-30,-1,56
-31,-1,55
-31,-1,55
-32,-2,54
-32,-2,54
-31,-1,55
-30,-1,55
-30,-2,56
-30,-1,55
-31,-1,55
-31,-2,55
-31,-2,55
-31,-1,55
-30,-1,55
-31,-1,55
-31,-1,55
-31,-1,55
-31,-1,55
-31,-2,55
-31,-1,55
-31,-1,55
-31,-1,55
-31,-1,55
-31,-1,55
-31,-1,55
-31,-1,55
-31,-1,55
-31,-1,55
-31,-1,55
-31,-1,55
-31,-1,55
-31,-1,55
-31,-1,55
-31,-1,55
-31,-2,55
-30,-1,56
-31,-1,56
-31,-1,55
-30,-1,55
-30,-1,56
-32,-1,56
-30,-1,55
-31,-1,55
-31,-1,55
-31,-1,55
-31,-1,55
-30,-1,55
-31,-1,55
-31,-1,55
-31,-1,55
-31,-1,55
-31,-1,55
-31,-1,55
-31,-1,55
-31,-1,55
-31,-1,56
-31,-1,55
-31,-1,55
-30,-1,55
-31,-1,55
-31,-1,55
-30,-1,55
-31,-1,55
-31,-1,55
-31,-1,55
-31,-1,55
-31,-1,56
-31,-1,55
-31,-1,55
-31,-1,55
-31,-1,55
-30,-1,55
-31,-1,55
-31,-1,55
-31,-1,55
-31,-1,55
-31,-1,55
-31,-1,55
-31,-1,56
-31,-1,55
-31,-1,55
-31,-1,55
-31,-1,55
-31,-1,55
-31,-1,55
-31,-2,55
-31,-1,55
-31,-1,55
-31,-1,55
-31,-1,55
-31,-1,55
-31,-1,55
-31,-1,55
-31,-1,55
-31,-1,55
-31,-1,55
-31,-1,55
-31,-1,55
-31,-1,55
-31,-1,55
-31,-1,55
-31,-1,55
-30,-1,55
-31,-1,55
-31,-1,55
-32,-2,55
-30,-2,55
-30,-2,55
-31,-1,55
-31,-2,55
-31,-1,55
-31,-2,55
-31,-2,55
-31,-2,55
-32,-2,55
-32,-2,55
-31,-2,55
-32,-2,55
-32,-2,55
-32,-2,55
-32,-2,55
-32,-2,55
-31,-2,55
-32,-2,55
-32,-2,55
-31,-2,55
-31,-2,55
-31,-2,55
-32,-2,55
-31,-2,55
-31,-2,55
-32,-2,54
-31,-2,55
-30,-2,56
-30,-2,55
-32,-2,55
-32,-2,55
-32,-2,55
-32,-2,54
-32,-2,54
-32,-2,55
-32,-2,54
-32,-2,55
-32,-2,55
-31,-2,55
-31,-2,55
-31,-2,55
-31,-2,55
-31,-2,55
-31,-2,55
-31,-2,55
-32,-2,55
-31,-2,55
-31,-2,55
-31,-2,55
-32,-2,55
-31,-2,55
-31,-2,55
-31,-2,55
-32,-2,55
-32,-2,55
-32,-2,55
-32,-2,55
-32,-2,55
-32,-2,55
-32,-2,55
-32,-2,55
-32,-2,55
-32,-2,54
-32,-2,54
-33,-2,55
-32,-2,55
-32,-2,55
-32,-2,54
-32,-2,54
-33,-2,54
-32,-2,54
-33,-2,55
-33,-2,54
-33,-2,54
-33,-2,54
-32,-1,55
-31,-1,55
-31,-2,55
-32,-2,55
-32,-2,55
-32,-2,54
-32,-2,54
-32,-2,55
-32,-2,55
-32,-1,55
-32,-2,54
-32,-2,54
-32,-2,54
-31,-2,55
-32,-2,55
-32,-2,55
-32,-2,55
-32,-2,55
-32,-2,55
-32,-2,54
-32,-2,55
-32,-2,55
-32,-2,55
-32,-2,55
-32,-2,55
-32,-2,55
-32,-2,55
-32,-2,55
-32,-2,54
-32,-2,54
-32,-2,55
-32,-2,55
-32,-2,54
-32,-2,55
-32,-2,55
-32,-2,55
-32,-2,55
-32,-2,55
-32,-2,54
-32,-2,55
-31,-2,55
-32,-2,55
-33,-2,54
-33,-2,54
-31,-2,55
-28,-2,57
-29,-2,56
-31,-2,55
-32,-2,55
-32,-2,55
-32,-2,55
-32,-2,55
-32,-2,55
-31,-2,55
-31,-2,55
-31,-2,55
-31,-2,55
-32,-2,55
-31,-2,55
-31,-2,55
-31,-2,55
-31,-2,55
-31,-2,55
-31,-2,55
-31,-2,55
-31,-2,55
-31,-2,55
-31,-2,55
-31,-2,55
-31,-2,55
-32,-2,55
-31,-2,55
-31,-2,55
-32,-1,54
-31,-1,55
-31,-3,55
-33,-3,55
-32,-3,55
-31,-2,55
-31,-2,55
-31,-1,55
-32,-2,55
-32,-2,55
-32,-2,55
-31,-2,55
-31,-2,55
-31,-1,55
-31,-2,55
-32,-2,55
-32,-2,55
-32,-2,55
-31,-2,55
-31,-2,55
-31,-2,55
-31,-2,55
-31,-2,55
-31,-2,55
-31,-2,55
-31,-2,55
-31,-2,55
-31,-2,55
-32,-2,55
-31,-2,55
-31,-2,55
-31,-2,55
-31,-2,55
-32,-2,55
-31,-2,55
-31,-2,55
-31,-2,55
-31,-2,55
-31,-2,55
-31,-2,55
-31,-2,55
-31,-2,55
-31,-2,55
-31,-2,55
-31,-2,55
-31,-2,55
-31,-2,55
-31,-2,55
-31,-2,55
-30,-2,55
-31,-2,55
-31,-2,55
-31,-2,55
-31,-2,55
-31,-2,55
-30,-2,55
-30,-2,55
-31,-2,55
-31,-2,55
-31,-2,55
-31,-2,55
-31,-2,55
-31,-2,55
-31,-2,55
-32,-2,55
-31,-2,55
-31,-2,55
-31,-2,55
-31,-2,55
-31,-2,55
-31,-2,55
-31,-2,55
-31,-2,55
-31,-2,55
-31,-2,55
-31,-2,55
-31,-2,55
-31,-2,55
-31,-2,55
-31,-2,55
-31,-2,55
-31,-2,55
-30,-2,55
-30,-2,55
-31,-2,55
-31,-2,55
-31,-2,55
-31,-2,55
-31,-2,55
-30,-2,55
-31,-1,56
-31,-2,55
-31,-2,55
-31,-2,55
-31,-2,55
-31,-2,55
-31,-2,55
-31,-2,55
-31,-2,55
-31,-2,55
-31,-2,55
-31,-2,55
-31,-2,55
-31,-2,55
-31,-2,55
-31,-2,55
-30,-2,55
-31,-2,55
-31,-2,55
-31,-2,55
-31,-2,55
-31,-2,56
-31,-2,55
-31,-2,55
-31,-2,55
-31,-2,55
-31,-2,55
-31,-2,55
-31,-2,55
-31,-2,55
-31,-2,55
-31,-2,55
-31,-2,55
-31,-2,55
-31,-2,55
-31,-2,55
-31,-1,55
-31,-2,55
-31,-2,55
-31,-2,55
-32,-2,55
-31,-2,55
-31,-2,55
-31,-2,55
-31,-2,55
-31,-2,55
-32,-2,55
-31,-2,55
-31,-2,55
-31,-2,55
-31,-2,55
-31,-2,55
-31,-2,55
-31,-2,55
-31,-2,55
-31,-2,55
-31,-2,55
-31,-2,55
-31,-2,55
-31,-2,55
-30,-2,55
-31,-2,55
-31,-2,55
-31,-2,55
-32,-2,55
-33,-2,54
-33,-2,54
-32,-1,55
-30,-2,55
-30,-3,55
-34,-3,54
-31,-3,55
-31,-3,55
-32,-2,54
-31,-1,55
-31,-1,55
-31,-2,55
-31,-2,55
-31,-2,55
-32,-2,55
-33,-3,53
-34,-3,54
-35,-2,53
-33,-2,54
-33,-2,54
-32,-2,54
-32,-3,55
-32,-3,55
-32,-3,55
-32,-3,55
-33,-3,54
-34,-3,53
-35,-3,53
-35,-3,53
-34,-3,54
-34,-2,53
-34,-3,53
-34,-3,53
-33,-3,53
-31,-3,55
-31,-2,55
-31,-3,55
-33,-3,54
-34,-2,53
-34,-2,53
-34,-2,53
-34,-2,54
-34,-3,54
-33,-3,54
-32,-2,55
-32,-2,54
-32,-3,55
-33,-2,54
-32,-2,54
-32,-2,54
-32,-2,54
-32,-2,54
-32,-3,54
-33,-3,54
-33,-3,54
-34,-3,54
-34,-3,54
-34,-3,53
-34,-3,54
-34,-3,54
-34,-3,53
-34,-2,54
-32,-2,54
-32,-2,54
-32,-3,54
-33,-3,55
-33,-3,54
-33,-3,54
-32,-2,54
-32,-2,54
-32,-2,55
-33,-3,54
-33,-3,54
-33,-3,54
-33,-3,54
-34,-3,54
-33,-3,54
-35,-3,53
-34,-3,53
-34,-3,53
-33,-3,54
-33,-3,54
-33,-3,54
-33,-3,54
-33,-3,54
-33,-3,54
-33,-2,54
-33,-3,54
-33,-3,54
-33,-3,54
-33,-3,54
-33,-3,54
-33,-3,54
-33,-3,54
-34,-2,54
-34,-2,53
-33,-3,54
-34,-3,54
-34,-3,54
-33,-2,54
-34,-3,54
-34,-3,54
-33,-3,54
-33,-3,54
-33,-3,54
-33,-2,54
-33,-3,54
-33,-3,54
-33,-3,54
-33,-3,54
-33,-3,54
-33,-2,54
-33,-2,54
-33,-2,54
-32,-3,54
-33,-3,54
-33,-2,54
-33,-3,54
-33,-3,54
-33,-2,54
-33,-2,54
-32,-2,54
-32,-2,55
-33,-3,54
-33,-3,54
-33,-2,54
-32,-2,55
-33,-2,54
-33,-2,54
-33,-2,54
-31,-3,55
-32,-2,55
-32,-2,54
-33,4,63
-28,-5,56
-36,-2,52
-32,-4,54
-29,-3,56
-26,-1,56
-29,-2,56
-32,-3,55
-36,-3,54
-35,-3,53
-32,-2,54
-30,-2,55
-30,-2,55
-33,-3,54
-35,-4,53
-34,-4,55
-32,-1,54
-33,-1,52
-34,-1,53
-31,-2,56
-31,-2,56
-32,-2,55
-34,-2,54
-31,-2,55
-33,-1,58
-36,-3,52
-34,-3,53
-32,-3,55
-34,-3,51
-37,-3,53
-34,-2,53
-33,-2,54
-33,-3,54
-35,-4,54
-35,-4,53
-33,-3,54
-32,-2,54
-35,-2,54
-34,-4,54
-33,-3,54
-33,-2,54
-32,-2,54
-30,-2,54
-32,-5,54
-33,-5,55
-34,-4,55
-34,-3,54
-32,-2,54
-31,-2,55
-27,-1,57
-30,-3,55
-32,-3,55
-33,-5,54
-31,-4,54
-31,-3,55
-29,-3,56
-34,-2,55
-33,-2,53
-32,-2,55
-31,-2,55
-33,-2,55
-33,-3,54
-33,-4,54
-34,-4,53
-36,-4,52
-37,-5,52
-34,-5,53
-33,-3,54
-34,-2,54
-34,-4,53
-33,-3,53
-35,-4,52
-37,-5,51
-41,-5,61
-28,-8,44
-33,-2,53
-30,-3,52
-31,-4,54
-39,-6,49
-39,-7,50
-39,-5,50
-38,-4,51
-36,-3,52
-36,-2,53
-35,-3,52
-31,-3,55
-31,-3,55
-35,-4,54
-37,-4,52
-35,-4,53
-34,-3,54
-36,-4,52
-36,-4,52
-36,-5,51
-37,-4,51
-37,-3,52
-36,-3,53
-34,-5,53
-35,-3,52
-40,-4,48
-41,-4,49
-38,-5,50
-37,-3,52
-37,-4,50
-39,-3,50
-39,-4,50
-37,-4,51
-38,-4,51
-37,-5,51
-38,-4,50
-37,-3,51
-36,-2,52
-35,-3,53
-35,-4,53
-36,-4,52
-36,-2,51
-36,0,53
-34,-1,54
-34,-1,53
-36,-2,53
-35,-2,53
-34,-2,53
-34,-1,53
-33,-1,54
-33,-1,54
-35,-3,53
-33,-2,54
-33,-3,53
-38,-4,50
-36,2,48
-28,6,52
-30,-2,70
-43,-4,44
-42,1,47
-29,4,54
-23,3,60
-24,1,59
-32,-1,56
-36,-2,53
-35,-1,54
-34,0,53
-29,2,55
-29,2,56
-30,1,56
-32,-1,55
-33,-1,54
-33,-1,54
-32,2,53
-30,1,55
-29,-2,59
-32,-2,53
-36,0,56
-31,3,50
-29,3,57
-27,1,57
-29,0,57
-33,0,55
-34,1,54
-30,2,55
-30,1,54
-32,1,55
-36,0,51
-34,-1,53
-33,0,55
-31,0,54
-32,1,55
-33,1,54
-32,1,54
-28,-1,57
-28,0,58
-33,2,54
-33,3,54
-32,2,55
-33,0,54
-33,-1,55
-32,0,54
-31,1,55
-31,0,55
-30,1,56
-32,0,56
-32,0,55
-30,1,56
-30,1,56
-30,1,55
-30,2,56
-29,1,55
-32,1,56
-36,-2,53
-36,-2,55
-34,-2,56
-35,3,49
-31,6,53
-28,4,56
-29,-2,59
-35,-2,54
-37,-1,51
-30,0,55
-29,2,56
-32,2,55
-37,0,53
-37,-4,52
-36,-4,51
-33,1,53
-29,2,56
-31,0,56
-37,-1,53
-36,0,52
-35,0,52
-32,1,52
-32,-1,54
-32,-1,55
-33,-1,54
-32,1,55
-32,1,55
-31,2,55
-31,1,55
-32,1,55
-32,0,55
-31,0,55
-31,0,55
-33,0,54
-32,0,55
-32,0,54
-32,1,54
-31,1,55
-32,1,55
-33,1,54
-32,1,55
-32,1,55
-31,2,56
-31,3,57
-31,0,55
-34,-3,54
-35,-3,53
-40,-4,49
-38,-4,49
-37,-3,52
-35,-2,53
-36,-2,52
-36,-2,52
-37,-2,52
-37,-2,51
-35,-2,52
-34,-1,54
-33,0,55
-33,-1,54
-34,0,55
-33,0,55
-33,0,54
-31,0,56
-31,0,53
-34,1,53
-31,0,55
-32,0,55
-33,0,54
-32,1,55
-32,0,55
-33,1,54
-32,0,54
-33,0,54
-34,0,54
-33,0,54
-33,1,54
-34,1,54
-34,0,53
-33,0,53
-31,1,55
-27,0,57
-31,1,56
-30,0,56
-29,1,56
-29,1,56
-30,0,56
-32,0,55
-29,0,56
-29,0,56
-32,1,55
-32,0,55
-32,0,55
-33,0,54
-32,0,55
-32,0,55
-33,0,54
-33,0,54
-32,0,54
-33,0,54
-33,0,54
-32,0,55
-33,0,54
-33,0,54
-33,0,54
-31,0,55
-29,0,56
-27,1,58
-28,1,57
-30,1,56
-30,1,56
-30,0,56
-30,0,55
-30,0,56
-31,1,55
-32,1,55
-32,0,55
-33,0,54
-32,-1,54
-33,-1,54
-33,0,53
-33,0,54
-30,0,55
-30,1,56
-30,1,56
-30,1,56
-29,1,56
-29,1,56
-29,1,56
-29,1,56
-29,1,56
-30,1,55
-29,1,56
-28,1,57
-29,1,56
-31,1,55
-31,1,55
-30,1,56
-30,0,56
-30,0,56
-30,1,56
-30,0,55
-31,0,55
-30,1,56
-30,1,55
-31,0,55
-32,0,54
-33,0,55
-32,0,54
-31,0,55
-31,0,56
-30,0,56
-29,0,56
-30,0,56
-31,0,56
-31,0,55
-30,0,56
-27,0,57
-29,0,56
-29,1,56
-29,1,56
-30,1,56
-30,1,56
-29,1,56
-29,0,56
-29,0,56
-30,1,56
-29,0,56
-29,1,56
-29,1,56
-29,1,56
-29,1,56
-30,1,56
-28,2,57
-28,2,57
-29,1,56
-29,1,56
-29,1,56
-29,1,56
-29,1,56
-29,1,56
-29,1,56
-29,1,56
-29,1,56
-30,1,56
-29,1,56
-30,1,56
-29,1,56
-30,1,56
-30,1,56
-29,1,56
-30,1,56
-29,1,56
-30,1,56
-29,1,56
-29,1,56
-30,1,56
-29,1,56
-30,1,56
-29,1,56
-29,1,56
-29,1,56
-29,1,56
-29,1,56
-29,1,56
-29,1,56
-30,1,56
-30,1,56
-29,1,56
-29,1,56
-30,1,56
-30,1,56
-30,1,56
-29,1,56
-29,1,56
-29,1,56
-29,1,56
-30,1,56
-29,1,56
-30,1,56
-28,2,57
-28,1,56
-29,1,56
-28,1,56
-29,2,56
-29,1,56
-29,1,57
-29,1,56
-29,1,56
-30,1,56
-30,1,56
-29,1,56
-30,1,56
-30,1,56
-30,1,55
-30,1,56
-30,1,56
-29,1,56
-31,1,55
-32,0,55
-32,1,55
-31,1,55
-31,1,56
-30,2,56
-30,1,56
-30,1,56
-32,1,55
-33,1,55
-32,0,54
-31,1,55
-32,1,55
-32,1,54
-31,1,55
-32,0,54
-33,0,54
-32,0,55
-32,0,54
-33,0,54
-33,1,54
-31,1,55
-31,1,55
-31,1,55
-31,1,55
-32,0,55
-33,0,54
-33,1,54
-32,1,54
-32,0,56
-32,0,55
-34,0,54
-35,3,52
-34,1,52
-33,1,53
-34,-1,54
-35,-1,54
-34,0,55
-32,0,55
-33,1,54
-32,-1,54
-33,1,55
-35,0,53
-36,-2,52
-36,-2,52
-37,-2,52
-36,-1,52
-36,-1,52
-36,-2,52
-36,-1,52
-36,-1,53
-36,-1,52
-36,0,53
-35,-1,52
-36,-1,52
-37,-1,51
-36,-1,52
-34,-1,53
-34,-1,53
-35,0,53
-34,-1,53
-34,0,54
-33,1,54
-33,0,55
-31,1,55
-31,1,55
-31,1,55
-31,0,55
-31,1,55
-31,1,55
-30,1,55
-30,1,56
-30,1,56
-30,1,55
-31,1,55
-30,1,55
-30,1,56
-31,1,55
-32,0,55
-33,0,54
-33,1,54
-33,0,54
-32,1,55
-31,1,55
-31,1,55
-31,1,55
-31,1,55
-31,1,55
-32,0,54
-32,0,54
-32,0,54
-33,0,54
-33,0,54
-34,1,54
-31,0,55
-31,0,56
-31,1,55
-32,1,55
-30,1,55
-30,1,55
-31,1,55
-31,0,55
-32,0,55
-32,1,55
-32,1,54
-32,1,55
-31,1,55
-30,0,56
-31,0,55
-32,0,54
-33,1,56
-32,1,56
-32,0,55
-32,1,55
-31,1,55
-31,1,55
-31,2,55
-31,0,55
-33,-1,56
-33,-1,55
-32,1,54
-30,2,55
-31,1,55
-33,0,55
-33,-1,54
-32,0,55
-32,2,54
-31,1,55
-32,1,55
-33,0,55
-33,0,54
-33,0,54
-33,1,54
-33,0,54
-33,0,54
-32,1,55
-32,1,55
-33,1,55
-32,0,55
-32,0,55
-32,0,54
-32,1,55
-32,1,55
-33,1,54
-32,1,55
-31,0,54
-32,0,55
-32,0,55
-32,1,55
-31,0,55
-32,1,55
-31,1,54
-31,0,55
-32,0,55
-31,0,55
-31,1,55
-31,1,55
-31,1,55
-32,0,55
-31,0,55
-31,1,55
-31,1,55
-31,1,55
-31,1,55
-31,0,55
-32,0,55
-32,0,55
-32,0,55
-32,0,55
-33,0,54
-34,1,54
-32,0,54
-32,1,55
-31,0,55
-31,1,56
-30,1,55
-31,1,55
-29,1,56
-29,1,56
-30,1,56
-30,0,56
-31,1,56
-31,1,55
-30,1,55
-30,1,55
-31,1,55
-31,1,55
-31,1,55
-32,1,54
-32,0,54
-33,1,54
-32,0,55
-32,1,55
-30,1,56
-29,1,57
-29,1,57
-30,1,56
-29,1,56
-31,1,55
-33,0,54
-33,1,54
-32,0,55
-32,0,55
-35,0,53
-35,0,53
-33,0,53
-34,0,53
-35,-1,53
-36,-1,53
-35,0,53
-34,0,53
-32,1,54
-32,0,55
-32,0,54
-32,-1,55
-33,-1,55
-34,0,54
-32,1,54
-31,1,56
-31,0,55
-32,0,55
-32,1,55
-32,1,55
-31,0,55
-31,1,55
-31,1,55
-33,0,55
-33,-1,54
-33,0,54
-32,1,54
-34,1,55
-32,0,53
-33,-1,55
-36,-1,53
-34,0,53
-32,1,54
-33,0,54
-33,0,54
-34,0,53
-34,0,54
-33,0,53
-33,0,54
-34,0,54
-34,0,53
-34,-1,54
-34,0,54
-33,0,54
-33,0,53
-33,0,54
-33,0,54
-33,0,54
-33,-1,54
-33,0,54
-33,0,54
-34,0,54
-34,0,54
-33,0,53
-33,0,54
-32,0,55
-32,0,55
-33,0,55
-32,0,54
-31,1,55
-31,1,55
-32,1,55
-33,0,54
-34,-1,54
-35,0,53
-33,1,54
-32,1,54
-32,1,55
-32,0,55
-31,1,55
-32,0,54
-32,0,54
-32,0,54
-32,0,55
-32,0,54
-32,0,55
-32,0,55
-32,0,55
-32,0,55
-32,0,54
-33,0,54
-32,0,54
-33,0,54
-33,0,54
-33,0,54
-33,0,54
-33,0,54
-33,0,54
-33,0,54
-33,0,54
-33,0,54
-33,0,54
-33,0,54
-33,0,54
-33,0,54
-33,0,55
-33,0,54
-33,0,54
-33,0,54
-32,0,55
-33,0,54
-33,0,54
-33,0,54
-33,0,54
-33,0,54
-32,0,55
-33,0,54
-33,0,55
-33,0,54
-32,0,54
-32,0,55
-32,0,54
-33,0,54
-33,0,54
-33,0,54
-33,0,54
-32,0,55
-33,0,54
-33,0,54
-33,0,54
-33,0,54
-33,0,54
-33,0,54
-33,0,54
-33,0,54
-33,0,54
-32,0,55
-33,0,54
-33,0,54
-33,0,54
-33,0,54
-33,0,54
-33,0,54
-33,0,54
-33,0,54
-33,0,54
-33,0,54
-33,0,54
-33,0,54
-32,0,54
-32,0,55
-34,0,54
-34,0,54
-34,0,53
-34,0,53
-34,0,54
-34,0,53
-32,0,54
-34,0,54
-35,0,53
-33,0,54
-33,0,54
-33,0,54
-33,0,54
-32,0,54
-33,0,54
-33,0,54
-32,0,54
-33,0,54
-32,0,54
-32,0,55
-33,0,54
-33,0,54
-32,0,55
-33,0,54
-33,0,54
-33,1,54
-33,0,54
-32,-1,55
-33,0,54
-33,0,54
-33,1,54
-32,0,55
-29,0,57
-33,1,55
-36,-1,52
-39,-2,50
-36,-3,52
-35,-3,52
-38,-1,51
-36,-2,52
-35,-1,53
-34,0,54
-35,0,53
-35,-1,53
-35,-1,53
-35,-2,53
-33,-2,54
-32,-2,54
-35,-1,53
-36,-1,52
-34,-1,53
-33,-1,54
-33,-1,54
-36,-2,52
-34,-2,53
-34,-2,54
-36,-2,52
-36,-2,53
-34,-1,53
-35,-1,53
-35,-1,52
-35,-1,53
-34,-1,53
-35,-1,53
-35,0,53
-34,0,54
-33,-1,54
-34,-1,54
-35,-1,52
-36,-1,52
-36,-1,52
-37,-1,52
-36,-1,52
-35,-1,53
-35,0,53
-35,0,53
-35,0,53
-35,-1,53
-35,-1,53
-34,-1,53
-34,-1,53
-34,-1,53
-35,-1,53
-36,-1,52
-35,-1,53
-35,-1,53
-36,-1,52
-36,-1,52
-35,-1,53
-36,-2,52
-36,-1,52
-36,-2,52
-37,-1,51
-37,-1,51
-36,-1,52
-37,-1,52
-37,-1,52
-36,-2,52
-37,-1,52
-37,-2,52
-36,-1,52
-37,-1,52
-37,-1,51
-36,-1,52
-36,-2,52
-36,-1,52
-36,-1,52
-36,-2,52
-36,-1,52
-36,-1,52
-36,-1,52
-36,-1,52
-36,-1,52
-35,-1,52
-36,-1,52
-36,-1,52
-36,-1,52
-36,-1,52
-36,-1,52
-35,-1,52
-36,-1,53
-36,-1,52
-36,-1,52
-36,-1,52
-36,-1,52
-36,-1,52
-35,-1,53
-36,-1,53
-35,-1,53
-36,-1,52
-36,-1,52
-35,-1,52
-36,-1,52
-36,-1,52
-36,-1,52
-36,-1,52
-36,-1,52
-36,-1,52
-36,-1,52
-36,-1,52
-36,-1,52
-36,-1,52
-36,-1,52
-36,-1,52
-36,-1,52
-36,-1,52
-36,-1,52
-36,-1,52
-36,-1,53
-36,-1,52
-36,-1,52
-37,-1,52
-36,-1,52
-36,-1,52
-37,-1,52
-37,-1,52
-36,-1,52
-36,-1,52
-36,-1,52
-36,-1,52
-36,-1,52
-36,-1,52
-36,-1,52
-36,-1,52
-37,-1,52
-36,-1,52
-36,-1,52
-36,-1,52
-36,-1,52
-36,-1,52
-36,-1,52
-36,-1,52
-36,-1,52
-36,-1,52
-36,-1,53
-36,-1,52
-36,-1,52
-36,-1,52
-36,-1,52
-36,-1,52
-36,-1,53
-36,-1,52
-36,-1,52
-36,-1,53
-36,-1,52
-36,-1,52
-36,-1,52
-36,-1,52
-36,-1,52
-36,-1,52
-36,-1,52
-36,-1,52
-36,-2,51
-37,1,53
-36,-1,54
-37,-1,52
-36,-1,52
-36,-1,52
-36,-1,52
-36,-1,53
-36,-1,52
-36,-1,52
-36,-1,52
-36,-1,53
-36,-1,53
-36,-2,52
-38,-1,50
-36,-1,53
-33,-2,54
-32,-1,54
-35,-1,54
-35,-1,53
-36,-1,53
-35,-1,52
-34,-1,53
-35,-1,53
-36,-1,52
-37,-1,52
-37,-2,51
-33,-1,54
-32,-1,55
-33,-1,54
-35,-1,53
-35,-1,53
-35,-1,53
-35,-1,53
-35,-1,53
-35,-2,53
-36,-1,53
-35,-1,53
-34,-1,53
-34,-1,53
-35,-1,53
-34,-2,53
-33,-1,54
-33,-1,54
-35,-1,53
-35,-1,53
-34,-1,53
-33,0,54
-34,-1,53
-34,-1,53
-35,-1,53
-35,-1,54
-34,-1,54
-32,0,54
-34,0,54
-36,-1,52
-35,-1,53
-34,-1,53
-34,-1,53
-35,-1,53
-35,-1,53
-34,-1,53
-35,-1,53
-35,-1,53
-34,-1,53
-35,-1,53
-35,-1,53
-34,-1,53
-34,-1,53
-35,-1,53
-35,-1,53
-35,-1,53
-35,-1,53
-34,-1,53
-35,-1,53
-34,-1,53
-33,-1,54
-36,-1,51
-38,-1,51
-36,-1,52
-35,-1,53
-35,0,53
-35,-1,53
-34,-1,52
-37,0,53
-37,-1,53
-35,-2,52
-35,-1,53
-36,0,53
-35,-1,53
-35,-1,53
-35,-1,52
-35,0,53
-35,0,53
-35,0,53
-36,-1,52
-35,-1,53
-35,-1,53
-36,-1,51
-37,0,51
-36,-1,52
-36,-1,52
-37,-2,52
-37,-1,51
-37,-1,51
-36,-1,52
-36,-1,52
-36,-1,52
-34,0,53
-34,-1,54
-35,-1,53
-36,-1,53
-37,-1,52
-36,-2,52
-36,-2,52
-35,-1,53
-36,0,52
-38,-1,51
-37,-2,51
-37,-2,51
-34,-1,53
-35,0,53
-36,0,52
-37,-2,51
-36,-2,52
-36,-2,53
-37,-1,52
-37,0,50
-37,0,52
-36,-1,52
-38,-2,51
-38,-2,51
-35,-1,53
-36,0,53
-37,0,51
-36,0,52
-37,-1,51
-38,-1,52
-38,-1,52
-35,-2,53
-36,-1,53
-35,-1,52
-37,-2,52
-39,-2,51
-38,-4,50
-37,-3,50
-38,-5,49
-38,-4,51
-37,-4,49
-38,-2,50
-38,-4,51
-39,-4,50
-38,-4,50
-39,-4,51
-38,-3,51
-38,-3,51
-38,-3,50
-39,-2,51
-38,-5,50
-36,-3,52
-38,-3,50
-43,-6,45
-39,-3,50
-38,-4,52
-37,-5,52
-37,-3,52
-36,-3,52
-37,-2,52
-38,-4,51
-39,-4,50
-38,-4,50
-37,-3,51
-37,-3,51
-36,-4,52
-37,-3,52
-36,-3,52
-38,-3,51
-37,-4,52
-37,-4,51
-40,-4,49
-38,-5,50
-38,-4,51
-37,-4,51
-38,-4,51
-38,-3,51
-39,-3,50
-39,-3,51
-38,-3,51
-38,-5,50
-40,-5,49
-38,-6,49
-38,-6,50
-38,-6,50
-39,-5,49
-40,-4,51
-38,-4,51
-37,-4,52
-36,-4,52
-37,-3,53
-41,-5,51
-40,-7,47
-38,-5,49
-38,-6,49
-38,-6,50
-39,-6,50
-38,-6,51
-40,-5,50
-40,-6,49
-38,-6,50
-38,-6,50
-39,-5,50
-39,-5,50
-39,-5,51
-38,-5,51
-39,-6,49
-39,-5,50
-38,-5,51
-38,-5,51
-40,-5,49
-38,-5,50
-38,-5,51
-39,-5,50
-38,-6,51
-38,-5,50
-38,-4,50
-38,-4,50
-38,-5,51
-39,-5,50
-39,-5,50
-38,-5,50
-39,-5,50
-39,-5,50
-38,-4,51
-39,-4,50
-39,-5,50
-39,-5,50
-39,-5,50
-39,-5,49
-39,-4,49
-39,-4,50
-39,-4,50
-39,-5,50
-39,-5,49
-40,-4,49
-39,-5,50
-39,-5,50
-39,-5,50
-39,-4,50
-39,-5,50
-39,-5,50
-38,-4,50
-39,-4,50
-39,-4,50
-38,-4,50
-39,-4,50
-39,-4,50
-38,-4,50
-39,-4,50
-38,-4,50
-38,-3,51
-39,-3,50
-39,-4,50
-38,-4,50
-38,-4,51
-39,-4,50
-40,-5,49
-39,-4,50
-38,-4,50
-39,-5,49
-39,-5,50
-38,-4,50
-39,-4,49
-39,-4,50
-40,-4,50
-39,-4,51
-38,-4,51
-40,-4,49
-38,-4,51
-37,-3,52
-39,-5,50
-40,-6,47
-41,-6,47
-39,-4,49
-39,-3,51
-39,-4,50
-38,-3,52
-39,-4,52
-39,-6,48
-39,-7,48
-38,-8,49
-38,-6,50
-38,-5,50
-39,-6,50
-39,-6,50
-39,-6,50
-38,-6,50
-38,-6,50
-38,-7,49
-38,-7,49
-40,-6,50
-38,-4,51
-40,-4,50
-40,-5,50
-38,-5,50
-39,-6,50
-39,-6,50
-41,-5,49
-40,-6,49
-40,-5,49
-37,-4,50
-38,-4,50
-39,-5,50
-41,-5,49
-40,-6,50
-38,-6,50
-39,-5,50
-39,-5,50
-39,-6,50
-39,-5,50
-39,-5,50
-39,-5,49
-39,-5,50
-39,-5,50
-39,-5,50
-39,-5,49
-39,-4,49
-39,-4,50
-39,-5,50
-39,-5,50
-39,-5,50
-39,-5,50
-39,-5,49
-39,-5,50
-39,-5,50
-39,-5,49
-39,-5,49
-39,-6,49
-38,-6,50
-40,-5,49
-41,-6,49
-40,-6,50
-38,-5,51
-38,-5,51
-38,-5,50
-39,-5,50
-38,-5,50
-38,-5,50
-39,-5,50
-38,-5,51
-37,-5,51
-37,-5,51
-37,-5,51
-37,-4,51
-38,-5,50
-38,-5,51
-38,-5,50
-38,-4,51
-38,-4,51
-38,-4,50
-38,-4,51
-38,-5,51
-38,-5,50
-39,-5,50
-39,-5,50
-39,-5,50
-39,-5,50
-39,-5,50
-38,-4,50
-39,-4,50
-39,-5,50
-38,-4,51
-38,-5,51
-39,-5,50
-38,-5,50
-38,-5,50
-39,-5,50
-39,-5,50
-38,-4,50
-39,-5,50
-38,-5,50
-38,-4,51
-38,-4,51
-38,-4,50
-38,-4,50
-38,-4,50
-38,-5,50
-38,-4,51
-38,-4,51
-38,-4,51
-38,-5,50
-39,-4,50
-39,-4,50
-38,-4,51
-38,-4,51
-39,-4,50
-38,-4,50
-37,-4,51
-38,-4,51
-40,-5,50
-39,-5,50
-37,-4,51
-37,-4,51
-37,-4,51
-38,-4,50
-38,-5,50
-38,-4,51
-38,-4,51
-36,-3,52
-36,-3,52
-37,-3,52
-38,-4,51
-38,-4,51
-37,-4,51
-36,-4,52
-37,-3,51
-38,-4,50
-38,-4,51
-38,-4,51
-38,-4,51
-37,-4,51
-38,-4,51
-38,-4,50
-38,-4,50
-38,-4,50
-39,-4,50
-38,-4,51
-38,-4,50
-39,-4,50
-37,-5,51
-37,-4,52
-38,-3,51
-38,-3,51
-38,-4,50
-39,-4,50
-39,-4,50
-37,-5,51
-38,-4,51
-38,-3,51
-38,-4,51
-39,-5,51
-38,-4,51
-38,-4,51
-38,-4,50
-38,-5,50
-38,-5,50
-38,-4,51
-38,-4,51
-38,-4,50
-39,-5,50
-38,-5,50
-38,-4,50
-37,-4,52
-36,-4,52
-37,-4,52
-37,-4,52
-37,-3,51
-37,-4,51
-38,-5,51
-39,-5,49
-40,-5,49
-38,-4,51
-37,-4,51
-36,-4,52
-37,-5,51
-38,-5,51
-38,-5,50
-38,-5,50
-38,-4,51
-38,-5,50
-39,-5,50
-38,-5,50
-38,-4,50
-38,-5,49
-39,-6,51
-39,-6,49
-38,-5,50
-38,-4,50
-37,-4,50
-38,-4,51
-37,-5,51
-38,-4,50
-38,-5,51
-38,-4,51
-37,-3,52
-37,-4,52
-38,-4,51
-39,-4,50
-40,-4,50
-39,-4,50
-39,-5,49
-39,-4,50
-39,-5,50
-39,-4,50
-39,-5,50
-39,-5,50
-39,-4,50
-38,-4,50
-39,-5,50
-39,-5,50
-38,-5,50
-38,-5,51
-39,-5,50
-38,-4,50
-38,-4,51
-38,-5,50
-38,-5,50
-39,-5,50
-39,-5,50
-39,-5,50
-38,-5,51
-39,-5,50
-40,-4,49
-42,-4,48
-41,-5,49
-40,-5,49
-39,-5,50
-40,-5,49
-40,-5,49
-39,-5,50
-40,-4,49
-40,-5,49
-41,-4,48
-42,-5,47
-39,-5,50
-39,-4,50
-38,-3,51
-39,-2,51
-38,-2,51
-38,-3,51
-39,-3,50
-39,-3,50
-39,-3,49
-40,-4,49
-39,-3,50
-40,-4,49
-40,-4,49
-36,-4,52
-36,-3,52
-38,-2,51
-39,-3,50
-40,-4,50
-40,-4,49
-40,-4,49
-40,-4,49
-40,-4,49
-40,-3,49
-40,-4,50
-40,-4,49
-40,-4,49
-40,-4,50
-40,-5,49
-41,-4,49
-40,-4,49
-40,-4,49
-40,-4,49
-40,-5,49
-40,-4,49
-40,-4,49
-40,-4,49
-40,-5,49
-40,-4,49
-40,-4,49
-41,-4,49
-40,-4,49
-39,-4,50
-38,-5,50
-40,-4,49
-40,-4,49
-38,-4,50
-38,-4,51
-39,-4,50
-39,-3,50
-38,-3,50
-37,-4,51
-39,-3,51
-38,-4,51
-38,-4,51
-40,-4,49
-40,-3,49
-39,-4,50
-39,-4,50
-40,-4,49
-40,-4,49
-40,-4,50
-40,-4,49
-40,-5,49
-40,-4,48
-41,-4,48
-40,-4,49
-40,-4,49
-40,-4,49
-40,-4,49
-40,-3,49
-39,-3,49
-39,-4,49
-39,-3,49
-39,-4,50
-39,-4,50
-39,-3,50
-38,-4,50
-40,-3,50
-38,-4,50
-39,-4,50
-40,-3,50
-39,-4,49
-40,-4,50
-38,-4,49
-39,-4,49
-39,-3,49
-39,-3,50
-39,-4,50
-40,-4,50
-39,-3,50
-39,-4,49
-39,-4,50
-39,-4,50
-39,-4,50
-39,-4,50
-40,-3,50
-40,-3,50
-39,-4,50
-39,-4,50
-39,-3,50
-39,-4,50
-39,-4,50
-40,-4,50
-39,-4,50
-40,-4,50
-40,-4,49
-40,-4,50
-40,-4,49
-39,-4,50
-39,-4,50
-39,-4,50
-39,-4,50
-39,-4,50
-39,-4,50
-39,-4,50
-39,-4,50
-39,-4,50
-39,-3,50
-39,-3,50
-39,-3,50
-39,-4,49
-39,-5,50
-39,-5,49
-38,-4,50
-38,-5,50
-40,-4,49
-39,-3,50
-38,-3,51
-39,-3,50
-41,-4,49
-40,-4,49
-40,-4,49
-40,-4,49
-41,-4,48
-41,-4,48
-40,-4,48
-40,-4,48
-40,-5,48
-40,-5,49
-40,-5,49
-40,-3,49
-40,-3,49
-39,-3,50
-39,-5,50
-39,-5,51
-38,-3,51
-38,-2,50
-38,-2,50
-37,-3,51
-39,-4,50
-39,-4,50
-38,-4,52
-36,-3,52
-36,-2,52
-38,-2,51
-39,-3,50
-38,-4,50
-38,-5,51
-39,-3,50
-37,-2,51
-36,-2,52
-38,-3,51
-39,-3,50
-39,-4,51
-38,-4,51
-37,-4,51
-37,-3,52
-38,-2,51
-39,-3,49
-37,-3,51
-37,-4,52
-38,-4,51
-39,-4,50
-38,-4,50
-37,-4,50
-39,-3,50
-41,-3,48
-40,-3,50
-38,-4,51
-38,-4,51
-39,-4,51
-37,-3,51
-38,-3,50
-38,-4,50
-39,-4,49
-40,-3,49
-40,-3,49
-40,-4,49
-41,-5,49
-42,-5,48
-40,-4,48
-39,-3,50
-39,-4,50
-40,-4,49
-41,-4,48
-40,-5,49
-40,-5,49
-41,-4,48
-40,-4,48
-40,-4,49
-39,-5,49
-40,-4,49
-39,-4,50
-40,-5,50
-42,-5,48
-40,-4,48
-39,-4,49
-40,-4,49
-40,-4,49
-41,-4,49
-41,-4,48
-41,-5,48
-41,-5,48
-39,-4,49
-39,-4,50
-40,-5,50
-41,-4,47
-41,-4,49
-40,-4,49
-38,-4,50
-40,-5,49
-41,-5,48
-40,-4,49
-40,-4,49
-40,-4,48
-40,-4,49
-40,-4,49
-41,-4,49
-40,-4,49
-40,-4,49
-40,-4,49
-41,-4,49
-40,-4,49
-41,-4,49
-41,-5,49
-41,-5,48
-41,-5,48
-41,-5,48
-41,-5,49
-41,-5,48
-41,-4,48
-41,-5,48
-41,-5,48
-41,-5,48
-41,-4,49
-41,-4,49
-41,-5,48
-41,-5,48
-41,-5,48
-41,-5,48
-41,-5,48
-40,-5,48
-41,-5,48
-41,-5,48
-41,-5,48
-41,-5,48
-41,-5,48
-41,-5,48
-41,-5,48
-41,-5,48
-40,-4,49
-41,-5,48
-40,-5,49
-41,-5,48
-41,-5,48
-41,-5,48
-41,-5,49
-41,-5,49
-40,-5,49
-40,-4,49
-40,-4,49
-40,-4,49
-40,-4,49
-40,-5,49
-41,-5,49
-40,-5,49
-40,-4,49
-40,-5,49
-40,-4,48
-40,-4,49
-40,-5,49
-40,-4,49
-40,-4,49
-41,-4,49
-41,-5,48
-40,-4,48
-40,-4,49
-41,-5,48
-41,-5,49
-41,-5,49
-41,-5,49
-41,-4,48
-41,-4,49
-41,-5,48
-41,-5,48
-41,-5,49
-40,-5,48
-41,-4,48
-41,-4,48
-41,-5,48
-41,-5,49
-41,-5,48
-41,-5,48
-41,-4,48
-40,-4,49
-40,-5,48
-41,-4,48
-42,-5,48
-40,-5,49
-40,-4,49
-41,-4,48
-40,-4,49
-40,-4,49
-41,-5,48
-41,-4,49
-40,-4,49
-41,-4,48
-41,-5,48
-41,-4,48
-40,-4,49
-40,-4,49
-40,-4,49
-41,-4,48
-41,-5,49
-41,-5,49
-40,-4,49
-40,-4,49
-40,-4,49
-40,-4,49
-41,-4,48
-41,-4,48
-41,-5,48
-41,-5,48
-41,-4,48
-41,-4,48
-41,-4,48
-41,-4,48
-40,-4,49
-41,-5,48
-41,-5,48
-41,-4,48
-41,-4,48
-41,-4,48
-41,-4,49
-41,-4,48
-41,-4,48
-40,-4,49
-41,-4,48
-40,-4,49
-41,-4,49
-41,-4,48
-41,-4,48
-40,-4,49
-40,-4,49
-40,-4,49
-40,-4,49
-41,-4,49
-40,-4,49
-40,-4,49
-41,-4,48
-41,-4,48
-41,-4,48
-41,-4,49
-40,-4,49
-40,-4,49
-40,-4,49
-40,-4,49
-41,-4,48
-41,-4,48
-41,-4,48
-41,-4,48
-41,-4,48
-41,-4,48
-41,-4,48
-41,-4,48
-41,-4,48
-41,-5,48
-41,-4,48
-41,-5,48
-41,-4,48
-41,-4,48
-41,-4,48
-41,-4,48
-41,-5,48
-41,-5,48
-41,-5,48
-41,-5,48
-41,-5,48
-41,-4,48
-41,-4,48
-41,-4,48
-41,-4,48
-41,-4,48
-41,-5,48
-41,-4,48
-42,-5,48
-40,-4,49
-40,-4,48
-41,-4,48
-41,-5,48
-41,-5,49
-41,-5,48
-40,-4,49
-41,-4,48
-41,-4,48
-41,-4,48
-40,-4,49
-41,-4,48
-41,-4,48
-41,-5,48
-41,-5,48
-41,-5,48
-41,-5,48
-41,-5,48
-41,-4,49
-41,-4,48
-41,-4,48
-41,-5,48
-41,-5,48
-41,-5,48
-41,-4,48
-40,-5,48
-41,-5,48
-41,-4,49
-40,-5,48
-41,-5,48
-41,-5,48
-41,-5,49
-41,-5,49
-40,-5,49
-41,-5,48
-41,-5,49
-41,-5,48
-41,-5,49
-40,-4,49
-40,-4,49
-40,-4,49
-40,-4,48
-41,-5,49
-40,-5,49
-40,-5,49
-40,-5,48
-40,-4,49
-40,-4,49
-41,-5,49
-40,-5,49
-41,-4,49
-40,-4,49
-40,-5,49
-40,-5,49
-40,-4,49
-40,-4,49
-40,-5,49
-40,-4,49
-40,-4,49
-40,-4,49
-40,-4,48
-40,-4,49
-40,-4,49
-40,-4,49
-40,-4,49
-40,-5,49
-40,-5,49
-40,-5,49
-40,-4,49
-41,-4,48
-41,-4,48
-40,-4,49
-40,-3,49
-39,-3,49
-41,-5,48
-40,-5,49
-39,-5,50
-40,-5,49
-41,-4,50
-39,-4,50
-40,-4,48
-41,-5,48
-42,-4,48
-38,-4,50
-38,-4,51
-40,-4,49
-41,-5,49
-41,-5,48
-40,-4,48
-41,-4,48
-41,-5,48
-40,-5,48
-40,-5,48
-41,-5,48
-40,-3,49
-38,-3,51
-39,-3,50
-40,-4,49
-40,-5,49
-41,-5,48
-40,-4,48
-40,-4,49
-40,-4,49
-40,-4,49
-40,-4,49
-40,-4,48
-39,-4,50
-41,-4,49
-41,-4,49
-40,-4,49
-40,-4,49
-41,-4,49
-41,-4,48
-39,-4,50
-39,-4,49
-41,-4,48
-42,-5,47
-42,-4,48
-41,-3,49
-40,-3,49
-40,-3,49
-40,-4,49
-40,-4,49
-41,-4,48
-42,-4,47
-39,-4,49
-38,-4,50
-38,-4,50
-40,-3,50
-39,-3,50
-39,-3,50
-39,-3,50
-38,-3,50
-39,-3,50
-39,-3,50
-39,-3,49
-39,-3,50
-39,-3,50
-38,-3,50
-38,-3,50
-38,-3,50
-38,-3,51
-38,-3,50
-38,-3,51
-38,-3,50
-38,-3,51
-38,-3,51
-38,-3,50
-38,-3,51
-38,-3,51
-38,-2,51
-38,-3,50
-38,-3,51
-39,-3,50
-38,-3,50
-39,-3,51
-38,-3,50
-38,-3,50
-38,-3,50
-38,-3,50
-39,-3,50
-39,-3,50
-39,-3,50
-39,-3,50
-39,-3,50
-39,-3,50
-39,-3,50
-39,-3,50
-38,-3,50
-38,-3,50
-39,-3,50
-39,-3,50
-39,-3,50
-39,-3,50
-39,-3,50
-39,-3,50
-39,-3,50
-38,-3,50
-38,-3,50
-38,-3,50
-39,-3,50
-38,-3,50
-38,-3,50
-37,-3,51
-37,-2,50
-38,-3,51
-39,-3,51
-39,-3,51
-39,-2,51
-38,-2,50
-38,-3,50
-40,-3,50
-40,-3,49
-40,-3,50
-39,-2,50
-38,-3,51
-38,-3,51
-38,-2,51
-37,-3,51
-37,-3,52
-39,-3,50
-40,-4,49
-40,-4,49
-41,-3,49
-41,-3,49
-41,-2,49
-39,-3,49
-38,-3,50
-38,-3,51
-39,-4,50
-41,-4,48
-39,-3,50
-39,-2,50
-40,-2,50
-39,-2,50
-38,-3,51
-38,-3,50
-39,-4,50
-39,-4,50
-39,-4,50
-39,-3,50
-38,-3,50
-39,-2,50
-39,-3,50
-38,-2,51
-38,-3,51
-38,-2,52
-38,-3,51
-37,-3,51
-38,-3,51
-38,-2,51
-38,-3,51
-37,-3,51
-39,-3,50
-39,-4,51
-38,-3,51
-39,-2,50
-41,-2,49
-39,-3,50
-39,-3,50
-41,-3,49
-41,-3,49
-39,-3,50
-40,-3,50
-38,-3,50
-41,-4,46
-39,-2,50
-37,-3,50
-41,-4,48
-41,-4,49
-40,-5,49
-38,-4,51
-38,-3,50
-39,-3,50
-40,-3,49
-41,-4,49
-40,-4,49
-40,-4,48
-40,-3,49
-40,-4,50
-41,-3,48
-41,-4,48
-40,-4,49
-40,-3,49
-40,-4,49
-41,-4,49
-40,-4,49
-40,-4,49
-40,-4,49
-40,-4,49
-41,-4,49
-40,-4,49
-40,-4,49
-40,-4,50
-40,-4,49
-39,-3,50
-40,-4,50
-41,-4,49
-39,-4,49
-40,-4,49
-40,-3,49
-41,-4,48
-41,-4,49
-40,-4,49
-40,-4,49
-40,-4,49
-40,-4,49
-41,-4,49
-40,-4,50
-41,-4,48
-39,-3,49
-39,-4,49
-39,-4,49
-40,-4,49
-40,-4,49
-41,-3,49
-41,-4,49
-40,-4,49
-40,-4,49
-40,-4,48
-41,-4,48
-40,-4,49
-41,-4,50
-40,-4,48
-41,-4,49
-40,-4,48
-40,-4,48
-40,-4,49
-41,-4,48
-41,-4,48
-40,-4,49
-40,-4,49
-41,-3,47
-41,-4,49
-40,-5,48
-41,-4,49
-41,-3,49
-41,-4,48
-40,-4,49
-40,-5,49
-41,-4,49
-41,-4,48
-40,-4,49
-41,-4,48
-40,-4,49
-40,-4,49
-40,-4,49
-40,-5,49
-40,-5,49
-40,-4,50
-40,-5,49
-40,-5,49
-40,-4,48
-41,-4,48
-41,-4,49
-40,-4,49
-40,-4,49
-41,-4,49
-41,-4,49
-40,-5,48
-40,-5,48
-41,-4,48
-41,-4,48
-41,-4,48
-41,-5,48
-40,-4,49
-40,-4,49
-52,-11,58
-36,-2,43
-31,-1,55
-35,-2,52
-50,-5,43
-43,-9,48
-42,-6,49
-38,-2,49
-41,-2,48
-40,-4,49
-40,-5,50
-42,-5,47
-41,-4,48
-40,-4,50
-39,-3,50
-41,-5,48
-41,-4,48
-43,-4,48
-40,-4,49
-39,-4,49
-39,-3,49
-41,-4,49
-41,-4,49
-41,-4,49
-40,-4,49
-40,-4,48
-41,-4,48
-40,-4,49
-41,-4,49
-41,-4,49
-41,-3,49
-41,-3,49
-41,-4,48
-41,-4,48
-41,-4,48
-41,-4,48
-40,-4,49
-40,-4,49
-41,-4,49
-41,-4,49
-40,-4,49
-40,-4,49
-40,-4,49
-40,-4,49
-40,-4,49
-40,-4,49
-40,-4,49
-40,-4,49
-40,-4,49
-41,-3,48
-40,-4,48
-41,-3,49
-40,-4,49
-40,-5,49
-41,-4,49
-41,-4,48
-41,-4,48
-41,-4,48
-41,-3,49
-42,-4,50
-41,-5,50
-40,-3,47
-40,-2,49
-40,-4,49
-40,-5,49
-41,-4,49
-41,-4,49
-41,-4,48
-41,-4,49
-40,-4,49
-40,-4,49
-43,-4,49
-39,-4,50
-40,-4,50
-41,-3,48
-41,-4,48
-40,-4,49
-40,-5,49
-40,-4,48
-40,-4,48
-41,-4,48
-40,-4,49
-40,-4,49
-42,-4,48
-42,-4,48
-41,-4,48
-41,-4,49
-41,-4,48
-41,-4,49
-41,-4,48
-41,-4,49
-40,-4,49
-41,-3,49
-41,-4,48
-39,-4,49
-39,-4,49
-39,-4,50
-39,-4,49
-40,-4,49
-40,-3,49
-40,-4,49
-40,-4,49
-40,-4,49
-41,-3,49
-41,-3,48
-40,-3,49
-40,-3,49
-40,-4,49
-41,-4,49
-40,-3,49
-40,-3,49
-40,-3,49
-40,-3,49
-40,-4,49
-41,-4,48
-41,-4,48
-40,-3,49
-41,-4,49
-41,-4,49
-41,-3,48
-41,-4,49
-41,-3,49
-41,-3,49
-40,-4,49
-40,-4,49
-40,-4,49
-40,-4,49
-41,-4,49
-40,-4,49
-40,-4,49
-41,-3,48
-41,-3,49
-40,-4,49
-40,-3,49
-42,-4,48
-42,-4,48
-41,-4,48
-41,-4,48
-41,-3,48
-41,-3,49
-42,-3,48
-42,-3,48
-41,-3,48
-42,-3,48
-41,-4,48
-41,-4,48
-42,-4,48
-41,-4,48
-41,-4,48
-41,-3,48
-41,-4,48
-41,-3,48
-41,-4,48
-41,-4,48
-41,-3,48
-41,-4,49
-41,-4,49
-42,-3,47
-40,-3,49
-40,-3,49
-42,-3,48
-40,-4,49
-41,-4,49
-42,-4,48
-41,-3,48
-41,-4,48
-41,-4,48
-41,-4,48
-41,-4,48
-41,-3,48
-42,-4,48
-41,-4,48
-41,-4,48
-41,-4,48
-41,-3,48
-41,-4,48
-41,-4,48
-42,-4,48
-41,-3,48
-41,-4,48
-42,-4,48
-41,-4,48
-41,-4,48
-41,-3,48
-41,-4,48
-41,-4,48
-41,-4,48
-41,-3,48
-41,-4,48
-41,-4,48
-41,-4,48
-41,-3,48
-42,-4,48
-41,-3,48
-41,-4,48
-42,-4,48
-42,-5,47
-42,-4,48
-41,-4,48
-41,-4,48
-41,-4,48
-43,-4,47
-41,-4,49
-41,-4,49
-42,-4,48
-42,-4,48
-41,-3,48
-42,-4,48
-42,-4,47
-42,-4,48
-41,-4,48
-41,-4,48
-42,-5,47
-42,-5,48
-40,-5,48
-42,-4,48
-41,-4,48
-40,-3,50
-40,-3,49
-41,-3,49
-39,-3,50
-38,-3,50
-40,-3,49
-38,-4,50
-38,-4,51
-37,-3,51
-37,-1,52
-38,-2,51
-39,-3,49
-36,-3,52
-35,-3,53
-37,-2,52
-39,-3,50
-40,-3,50
-37,-3,51
-38,-2,52
-37,-2,51
-39,-2,51
-39,-2,50
-39,-3,50
-39,-3,50
-39,-3,50
-40,-3,49
-38,-4,49
-39,-4,49
-40,-5,49
-42,-5,48
-40,-5,49
-37,-4,51
-40,-4,49
-42,-4,47
-40,-3,49
-40,-4,49
-42,-4,48
-42,-4,48
-40,-3,49
-40,-3,49
-42,-4,48
-40,-4,48
-40,-4,49
-40,-3,49
-40,-3,49
-40,-3,50
-40,-4,50
-42,-4,48
-42,-4,48
-41,-5,48
-40,-5,48
-40,-5,48
-43,-5,47
-42,-4,47
-42,-4,48
-43,-4,48
-41,-3,49
-40,-3,49
-40,-4,49
-43,-4,48
-42,-4,48
-42,-3,48
-41,-4,48
-41,-4,48
-41,-4,48
-42,-4,47
-43,-4,46
-43,-5,46
-42,-5,48
-40,-3,50
-41,-3,49
-42,-4,48
-43,-4,47
-43,-4,46
-41,-3,47
-38,-3,50
-41,-3,49
-42,-4,49
-43,-4,49
-44,-5,46
-42,-6,46
-40,-3,47
-40,-1,49
-43,-4,48
-45,-5,47
-42,-4,48
-41,-3,49
-42,-2,48
-41,-5,46
-42,-3,47
-42,-5,48
-41,-5,49
-43,-5,48
-42,-4,48
-41,-3,48
-40,-4,48
-41,-4,48
-43,-4,47
-42,-5,48
-42,-5,49
-42,-5,47
-42,-4,47
-40,-4,48
-41,-3,48
-42,-3,48
-41,-5,49
-42,-5,48
-42,-5,47
-41,-4,47
-40,-4,48
-41,-4,48
-42,-5,48
-42,-4,48
-41,-5,49
-42,-4,48
-41,-3,48
-40,-4,48
-42,-4,47
-42,-4,48
-42,-5,49
-42,-4,48
-42,-3,47
-41,-3,47
-41,-4,48
-42,-5,48
-43,-5,47
-43,-4,47
-40,-4,50
-40,-4,49
-41,-2,47
-41,-3,48
-41,-3,48
-43,-4,47
-42,-4,48
-42,-4,48
-42,-4,48
-41,-4,48
-41,-4,48
-42,-4,48
-41,-3,48
-41,-3,48
-41,-3,48
-41,-2,48
-42,-3,48
-42,-4,48
-42,-4,48
-43,-3,47
-41,-4,49
-40,-5,49
-41,-3,48
-42,-2,47
-42,-3,47
-42,-3,48
-43,-3,47
-44,-3,47
-42,-5,49
-40,-5,50
-42,-4,48
-41,-2,47
-40,-3,48
-40,-4,49
-42,-5,48
-41,-4,48
-42,-4,48
-42,-4,48
-41,-4,48
-41,-4,48
-41,-5,48
-42,-4,47
-42,-4,48
-41,-4,48
-41,-4,48
-42,-4,48
-42,-5,48
-40,-4,49
-41,-4,49
-41,-4,48
-42,-4,47
-42,-4,48
-41,-4,48
-41,-4,48
-41,-4,48
-41,-4,48
-41,-4,48
-41,-4,48
-42,-5,48
-42,-5,48
-42,-4,48
-41,-4,48
-41,-4,48
-41,-4,48
-41,-4,48
-42,-5,48
-42,-5,48
-41,-5,48
-41,-4,48
-42,-4,48
-41,-4,48
-42,-4,48
-42,-4,48
-42,-4,48
-41,-4,48
-42,-5,48
-42,-4,48
-42,-4,48
-42,-4,48
-42,-4,48
-41,-5,48
-42,-4,48
-41,-4,48
-42,-5,48
-42,-4,48
-42,-4,48
-41,-4,48
-41,-3,49
-42,-4,48
-42,-5,48
-41,-5,48
-42,-5,47
-42,-5,47
-42,-4,48
-42,-4,48
-41,-4,48
-41,-5,48
-42,-4,48
-42,-4,48
-42,-5,47
-40,-4,49
-40,-4,49
-40,-4,48
-40,-4,49
-41,-4,49
-42,-5,47
-42,-6,47
-42,-5,47
-42,-4,48
-41,-4,48
-41,-4,48
-41,-4,48
-41,-4,48
-41,-4,48
-41,-5,48
-42,-4,48
-42,-4,48
-41,-3,48
-41,-3,48
-41,-4,48
-41,-4,48
-41,-4,48
-40,-3,48
-41,-4,49
-40,-5,49
-39,-4,50
-41,-4,49
-42,-4,47
-41,-4,49
-40,-4,49
-40,-4,49
-41,-4,48
-42,-4,47
-42,-4,48
-42,-3,48
-42,-3,48
-41,-4,48
-42,-3,48
-42,-3,48
-41,-4,48
-42,-3,48
-42,-3,47
-43,-3,48
-43,-4,47
-42,-4,47
-42,-3,48
-42,-3,47
-42,-3,47
-42,-4,47
-43,-4,47
-42,-4,48
-42,-4,48
-42,-4,48
-41,-5,47
-43,-5,46
-43,-4,46
-42,-3,47
-43,-3,48
-42,-4,47
-41,-4,48
-41,-4,48
-42,-4,48
-41,-4,48
-41,-4,48
-42,-4,48
-42,-4,47
-42,-4,47
-42,-4,48
-42,-4,48
-42,-4,48
-43,-4,47
-43,-4,47
-42,-4,48
-42,-4,47
-43,-3,47
-41,-3,48
-41,-4,48
-42,-4,48
-42,-3,48
-42,-5,47
-42,-4,47
-42,-3,48
-42,-3,48
-42,-3,48
-42,-4,48
-41,-4,48
-41,-4,48
-42,-4,48
-42,-4,48
-42,-3,48
-41,-3,48
-41,-4,48
-42,-4,48
-42,-4,48
-42,-4,47
-42,-4,47
-42,-4,48
-42,-4,48
-42,-4,47
-43,-3,47
-42,-4,48
-42,-4,48
-42,-4,47
-44,-4,47
-42,-4,48
-43,-4,47
-44,-4,46
-43,-5,46
-42,-5,47
-42,-5,46
-44,-5,45
-44,-5,45
-43,-5,46
-43,-6,46
-44,-5,45
-44,-2,46
-44,-2,47
-43,-3,48
-43,-5,48
-44,-6,47
-45,-6,45
-43,-4,46
-41,-4,46
-43,-4,45
-44,-5,45
-44,-5,46
-43,-5,47
-44,-5,46
-44,-5,46
-42,-5,47
-42,-5,47
-43,-5,46
-43,-3,47
-43,-3,47
-43,-4,47
-43,-4,47
-43,-4,47
-42,-4,47
-42,-4,46
-42,-4,47
-42,-4,48
-43,-3,47
-43,-3,48
-43,-2,47
-42,-2,48
-42,-3,48
-42,-3,48
-42,-3,47
-43,-2,48
-40,-3,49
-41,-3,48
-42,-3,47
-43,-3,46
-43,-5,46
-43,-5,46
-42,-4,47
-43,-4,46
-44,-4,46
-44,-4,46
-43,-4,47
-42,-4,47
-43,-4,46
-44,-4,46
-43,-5,46
-42,-4,47
-42,-5,47
-43,-5,46
-43,-4,46
-43,-5,46
-43,-5,46
-43,-5,46
-44,-5,46
-44,-5,46
-43,-4,46
-43,-5,46
-43,-5,46
-43,-5,45
-43,-5,46
-43,-4,46
-43,-4,47
-42,-4,47
-42,-4,47
-42,-4,47
-43,-3,47
-42,-3,47
-43,-3,47
-43,-3,47
-43,-3,46
-42,-3,47
-42,-4,47
-43,-3,47
-42,-3,48
-42,-3,48
-42,-3,47
-43,-3,47
-42,-3,47
-42,-3,48
-41,-4,48
-42,-4,48
-42,-3,48
-42,-2,48
-42,-2,48
-42,-5,47
-43,-4,47
-43,-4,46
-42,-3,48
-42,-4,48
-42,-4,47
-42,-4,48
-43,-4,47
-42,-4,47
-42,-4,47
-41,-3,48
-41,-3,48
-43,-3,47
-43,-4,48
-42,-3,48
-41,-3,48
-42,-4,47
-42,-4,47
-43,-4,47
-41,-3,48
-42,-3,48
-41,-3,48
-42,-4,48
-43,-3,47
-42,-4,47
-42,-3,47
-42,-3,48
-42,-3,47
-43,-4,47
-43,-3,46
-43,-5,45
-44,-5,46
-43,-4,48
-43,-2,47
-44,-4,46
-43,-4,47
-42,-2,48
-43,-3,47
-43,-4,47
-43,-5,46
-43,-5,46
-43,-5,46
-42,-5,47
-41,-4,48
-41,-3,48
-41,-3,48
-43,-3,46
-43,-5,47
-41,-4,48
-41,-3,49
-41,-2,48
-40,-3,50
-38,-3,51
-38,-4,50
-40,-3,49
-40,-3,49
-39,-3,50
-40,-3,49
-41,-3,49
-39,-3,50
-40,-3,50
-40,-4,49
-41,-4,49
-41,-4,48
-40,-4,49
-41,-3,49
-41,-3,48
-41,-3,48
-41,-3,49
-41,-3,48
-41,-3,49
-42,-3,48
-41,-3,48
-41,-3,48
-42,-4,48
-42,-4,48
-42,-4,47
-42,-4,47
-43,-3,47
-42,-4,47
-41,-3,48
-41,-3,48
-41,-3,49
-41,-3,49
-43,-4,47
-43,-5,45
-43,-5,46
-42,-4,47
-41,-4,48
-42,-4,47
-42,-4,48
-42,-4,48
-41,-4,48
-41,-4,48
-41,-4,48
-42,-4,48
-42,-4,48
-42,-4,48
-41,-4,48
-41,-4,48
-42,-5,48
-42,-4,48
-42,-4,48
-42,-4,48
-42,-4,48
-42,-4,47
-42,-4,47
-43,-4,47
-42,-4,47
-42,-4,47
-42,-4,47
-42,-4,47
-43,-4,48
-41,-4,48
-42,-4,48
-41,-3,48
-41,-3,48
-41,-3,49
-40,-2,50
-40,-2,49
-41,-3,48
-41,-3,48
-41,-4,47
-41,-3,48
-40,-3,48
-42,-4,48
-42,-4,48
-43,-3,48
-42,-3,47
-42,-3,48
-42,-3,48
-41,-3,48
-41,-3,49
-40,-3,49
-42,-3,48
-41,-3,48
-41,-4,48
-42,-4,48
-42,-4,48
-41,-3,48
-41,-4,48
-42,-4,48
-42,-3,48
-43,-3,47
-42,-3,48
-41,-3,48
-42,-3,48
-41,-3,48
-42,-4,47
-42,-4,47
-43,-3,47
-42,-3,47
-42,-3,48
-42,-3,48
-42,-3,48
-42,-3,47
-43,-3,48
-42,-4,48
-42,-4,48
-42,-4,47
-42,-3,48
-42,-3,48
-41,-3,48
-41,-3,48
-41,-3,48
-41,-3,49
-41,-3,48
-41,-3,48
-41,-3,49
-41,-3,48
-40,-3,49
-40,-3,49
-40,-3,49
-41,-3,49
-40,-3,49
-40,-2,49
-40,-2,49
-40,-4,49
-40,-3,49
-41,-3,49
-41,-3,48
-42,-4,47
-43,-4,48
-42,-3,47
-42,-2,47
-42,-3,47
-42,-3,47
-43,-4,47
-43,-4,47
-42,-4,48
-42,-3,47
-41,-3,48
-41,-3,48
-42,-3,48
-42,-3,48
-42,-3,47
-42,-3,48
-42,-3,48
-43,-3,47
-42,-3,48
-42,-3,48
-42,-3,47
-42,-3,48
-41,-3,48
-42,-3,48
-42,-3,47
-43,-3,47
-43,-3,47
-43,-4,48
-42,-4,48
-43,-3,47
-42,-3,47
-42,-3,47
-42,-3,47
-42,-3,47
-42,-3,47
-43,-3,46
-43,-3,46
-43,-4,47
-43,-4,47
-43,-3,47
-42,-3,47
-43,-3,47
-43,-3,47
-43,-4,47
-43,-3,47
-42,-3,47
-42,-4,48
-42,-4,48
-42,-4,47
-42,-3,48
-42,-3,48
-42,-3,48
-42,-3,47
-42,-3,47
-42,-4,48
-43,-3,48
-42,-4,47
-43,-4,48
-42,-3,47
-42,-4,48
-42,-3,47
-43,-4,47
-42,-4,47
-42,-4,47
-43,-4,47
-43,-4,47
-43,-4,47
-43,-4,47
-43,-4,47
-42,-4,47
-43,-4,47
-43,-4,47
-43,-4,47
-43,-4,47
-43,-4,47
-42,-4,47
-43,-3,47
-43,-4,47
-43,-4,47
-43,-4,47
-43,-4,46
-43,-4,47
-43,-4,47
-43,-4,46
-43,-4,47
-43,-4,46
-43,-4,46
-43,-3,47
-43,-4,47
-43,-3,47
-43,-4,47
-43,-4,47
-43,-4,47
-43,-4,47
-43,-4,46
-43,-4,47
-43,-4,46
-43,-4,47
-43,-4,47
-43,-3,47
-43,-4,46
-43,-4,46
-43,-4,46
-43,-4,47
-43,-4,47
-43,-4,46
-43,-3,46
-43,-3,47
-43,-4,47
-43,-4,46
-43,-4,47
-43,-4,46
-43,-4,47
-43,-4,47
-43,-3,46
-43,-3,46
-43,-4,47
-43,-4,47
-43,-4,46
-43,-4,46
-43,-3,46
-43,-4,46
-43,-3,46
-44,-3,46
-44,-3,48
-43,-4,46
-43,-4,47
-43,-3,46
-43,-3,46
-43,-4,46
-43,-4,47
-43,-4,47
-43,-4,46
-43,-4,46
-43,-4,46
-43,-3,47
-43,-4,46
-43,-4,46
-44,-3,46
-43,-4,47
-43,-4,47
-43,-3,46
-43,-4,46
-44,-4,47
-43,-4,47
-43,-4,47
-44,-4,46
-43,-4,46
-43,-4,46
-44,-4,46
-43,-3,46
-43,-4,46
-43,-4,47
-43,-4,46
-43,-3,46
-43,-4,46
-43,-4,46
-43,-4,46
-43,-4,47
-43,-4,46
-43,-4,46
-43,-3,47
-44,-4,46
-44,-4,45
-44,-4,46
-43,-4,46
-43,-4,46
-43,-3,47
-43,-3,47
-43,-3,46
-43,-3,47
-43,-4,47
-43,-4,46
-43,-4,46
-43,-4,47
-43,-3,47
-43,-3,46
-43,-3,47
-43,-3,46
-43,-4,47
-43,-4,46
-43,-4,46
-43,-4,46
-43,-3,47
-43,-3,47
-43,-4,47
-43,-4,46
-44,-4,46
-43,-3,47
-43,-3,46
-43,-3,46
-43,-4,46
-43,-3,47
-44,-4,47
-43,-4,46
-43,-4,46
-43,-4,47
-43,-3,46
-43,-4,46
-43,-4,46
-43,-4,46
-43,-4,46
-43,-3,47
-43,-4,46
-43,-4,47
-43,-4,47
-43,-4,47
-43,-3,46
-43,-3,46
-43,-4,46
-43,-4,47
-43,-4,47
-43,-4,46
-43,-3,46
-43,-4,47
-43,-3,47
-43,-4,46
-43,-4,47
-43,-4,46
-44,-4,47
-43,-4,47
-44,-3,46
-43,-4,46
-43,-4,47
-43,-4,46
-44,-4,46
-44,-4,46
-43,-4,47
-43,-4,47
-43,-4,46
-43,-4,46
-43,-4,47
-44,-4,46
-43,-4,47
-43,-4,46
-43,-4,46
-43,-4,46
-43,-4,46
-43,-4,46
-44,-3,47
-44,-3,46
-43,-4,46
-43,-4,46
-43,-4,46
-43,-4,46
-43,-4,47
-43,-4,46
-43,-4,47
-42,-4,48
-42,-4,48
-42,-4,48
-42,-4,48
-41,-4,48
-41,-4,48
-43,-4,47
-42,-4,47
-42,-4,48
-42,-4,47
-42,-4,48
-42,-3,48
-42,-4,48
-42,-4,48
-42,-4,47
-45,-5,45
-42,-5,46
-43,-5,47
-42,-5,47
-43,-4,47
-43,-4,47
-42,-4,48
-44,-3,46
-43,-4,46
-43,-5,46
-43,-5,46
-43,-4,47
-43,-4,46
-43,-5,46
-43,-4,47
-43,-4,47
-43,-4,47
-43,-4,47
-42,-4,47
-42,-4,47
-43,-4,47
-42,-5,47
-42,-4,47
-43,-4,46
-44,-3,47
-43,-4,47
-42,-4,48
-41,-4,45
-42,-6,47
-42,-4,47
-42,-5,47
-40,-5,49
-42,-4,47
-41,-4,48
-41,-4,48
-42,-4,47
-42,-4,48
-42,-4,48
-43,-4,47
-43,-4,47
-43,-5,46
-42,-4,47
-42,-5,47
-43,-6,46
-44,-4,46
-43,-4,47
-43,-4,47
-43,-5,47
-44,-4,46
-42,-4,47
-43,-4,47
-43,-4,47
-42,-5,47
-42,-6,47
-44,-4,47
-43,-5,46
-43,-5,47
-43,-5,46
-43,-5,46
-43,-5,47
-43,-4,47
-42,-5,46
-44,-5,47
-43,-5,46
-42,-5,48
-42,-4,48
-44,-5,46
-43,-5,46
-43,-4,46
-43,-5,47
-43,-4,47
-43,-5,48
-43,-4,47
-42,-4,47
-42,-4,47
-43,-4,46
-42,-4,47
-42,-5,47
-42,-5,48
-43,-4,47
-43,-5,47
-43,-5,46
-43,-5,47
-43,-5,47
-43,-4,47
-42,-5,47
-42,-4,47
-43,-5,47
-43,-4,47
-43,-4,47
-43,-4,47
-43,-5,47
-43,-5,47
-43,-4,47
-43,-5,47
-43,-5,47
-43,-5,47
-42,-4,47
-42,-5,47
-43,-5,46
-43,-5,47
-43,-5,47
-42,-5,47
-43,-5,47
-43,-5,47
-43,-4,47
-43,-4,46
-43,-4,46
-43,-4,46
-43,-5,47
-43,-5,47
-43,-5,47
-42,-4,47
-42,-4,48
-43,-4,47
-44,-4,47
-43,-4,47
-44,-5,46
-43,-5,46
-44,-5,46
-43,-5,46
-44,-5,45
-44,-5,45
-44,-5,46
-44,-5,46
-43,-5,47
-44,-5,46
-46,-5,45
-45,-5,44
-41,-4,48
-39,-4,48
-41,-3,48
-43,-5,48
-43,-5,47
-44,-7,46
-44,-4,46
-43,-4,46
-42,-3,46
-42,-4,48
-41,-4,48
-44,-5,47
-44,-5,45
-44,-4,46
-43,-4,46
-42,-4,47
-43,-4,47
-43,-5,47
-44,-5,46
-44,-4,46
-43,-4,47
-42,-3,47
-43,-4,46
-44,-5,46
-45,-5,45
-44,-5,46
-44,-4,46
-43,-4,47
-43,-3,47
-44,-4,46
-44,-4,45
-44,-4,45
-42,-5,47
-44,-4,46
-44,-5,45
-44,-4,46
-44,-5,46
-44,-4,46
-44,-5,46
-44,-5,45
-44,-4,45
-43,-4,47
-42,-4,47
-43,-5,46
-45,-4,46
-44,-4,46
-41,-3,48
-41,-3,48
-40,-3,48
-38,-2,49
-39,-3,51
-42,-3,49
-48,-3,45
-44,-3,47
-42,-2,48
-40,-1,49
-40,-2,50
-40,-2,50
-40,-4,49
-44,-4,47
-46,-4,45
-40,-3,49
-41,-4,47
-42,-4,47
-42,-4,48
-38,-4,50
-37,-3,52
-39,-3,50
-38,-3,51
-39,-2,50
-40,-4,49
-41,-4,49
-40,-5,49
-39,-4,50
-40,-4,49
-40,-4,49
-40,-4,49
-41,-4,49
-40,-4,50
-39,-4,50
-41,-4,48
-41,-4,48
-41,-3,49
-41,-3,49
-41,-4,49
-40,-4,49
-41,-4,49
-41,-4,48
-41,-4,48
-40,-3,48
-41,-3,49
-41,-3,49
-40,-3,49
-41,-3,49
-41,-4,49
-40,-3,48
-40,-3,49
-40,-3,49
-40,-4,49
-41,-4,49
-40,-3,49
-40,-3,48
-41,-4,48
-40,-4,49
-41,-3,49
-42,-3,48
-40,-4,49
-40,-4,49
-42,-3,48
-40,-4,49
-40,-3,49
-41,-3,48
-41,-3,49
-41,-4,49
-40,-3,49
-40,-3,49
-41,-3,49
-41,-3,49
-40,-4,49
-41,-4,49
-41,-4,48
-41,-4,48
-41,-4,48
-42,-4,48
-41,-3,48
-41,-4,49
-41,-3,48
-41,-3,48
-41,-4,48
-41,-3,49
-41,-4,49
-41,-4,49
-41,-3,49
-41,-4,48
-41,-3,48
-41,-3,48
-40,-3,49
-40,-3,49
-41,-4,49
-41,-4,49
-40,-4,49
-40,-4,49
-40,-3,49
-40,-3,49
-40,-3,49
-40,-3,49
-41,-3,48
-40,-3,49
-40,-4,48
-40,-3,49
-40,-3,48
-40,-3,49
-41,-3,48
-41,-3,48
-41,-3,49
-41,-3,49
-40,-3,48
-41,-3,49
-41,-4,49
-41,-4,49
-41,-3,49
-41,-4,48
-41,-3,48
-41,-3,48
-40,-4,49
-41,-3,49
-41,-3,49
-41,-4,48
-41,-3,48
-40,-4,49
-41,-3,48
-41,-3,48
-40,-3,49
-41,-3,48
-41,-3,49
-41,-3,49
-41,-4,48
-41,-3,48
-41,-3,48
-41,-4,49
-41,-3,48
-40,-3,49
-41,-3,49
-41,-4,49
-41,-4,48
-41,-3,49
-40,-3,49
-41,-3,49
-41,-3,49
-41,-3,49
-41,-3,49
-40,-3,48
-41,-3,48
-41,-4,49
-41,-3,48
-40,-4,49
-41,-3,48
-40,-3,49
-40,-3,49
-40,-4,49
-40,-3,49
-43,-3,48
-44,-4,46
-41,-3,48
-40,-3,49
-40,-3,49
-41,-4,49
-40,-4,49
-41,-4,49
-40,-3,49
-41,-3,49
-40,-3,49
-40,-3,50
-40,-3,49
-40,-3,49
-40,-4,49
-40,-3,49
-40,-4,49
-41,-4,48
-42,-4,48
-41,-3,48
-41,-3,48
-42,-3,48
-41,-3,48
-41,-3,49
-41,-3,48
-41,-4,48
-41,-3,48
-41,-3,48
-41,-3,49
-41,-4,48
-42,-3,48
-41,-3,48
-40,-4,48
-40,-4,48
-40,-4,48
-41,-5,50
-41,-4,49
-42,-4,47
-40,-2,49
-39,-3,49
-40,-3,48
-41,-4,49
-41,-4,49
-40,-4,49
-40,-3,50
-40,-3,49
-40,-4,49
-42,-3,49
-42,-2,47
-41,-4,48
-41,-4,48
-42,-4,48
-41,-4,48
-41,-4,48
-41,-4,48
-41,-4,48
-43,-4,47
-42,-4,48
-41,-4,48
-42,-4,47
-42,-4,47
-42,-4,48
-41,-5,48
-41,-4,48
-42,-4,48
-42,-4,47
-42,-4,48
-42,-4,47
-41,-4,48
-42,-4,48
-41,-4,48
-42,-4,48
-42,-4,48
-41,-4,48
-41,-4,48
-41,-4,48
-42,-3,48
-41,-4,48
-41,-4,49
-42,-5,48
-41,-5,48
-41,-5,48
-43,-5,46
-41,-5,48
-40,-5,48
-42,-5,48
-41,-4,48
-41,-4,49
-40,-5,49
-40,-5,49
-41,-4,49
-42,-5,48
-40,-5,49
-41,-4,49
-41,-4,48
-41,-5,47
-42,-5,47
-41,-5,48
-41,-5,48
-41,-5,48
-42,-5,48
-41,-5,48
-41,-5,48
-40,-5,49
-41,-4,48
-42,-4,48
-40,-4,49
-40,-4,49
-41,-5,48
-41,-5,48
-42,-5,48
-41,-5,48
-41,-5,48
-41,-5,48
-41,-5,48
-40,-4,49
-40,-4,48
-43,-4,49
-40,-4,49
-40,-4,50
-42,-5,49
-40,-4,49
-40,-4,49
-40,-4,49
-40,-4,49
-40,-4,49
-40,-5,49
-40,-4,49
-41,-3,48
-41,-5,50
-40,-5,49
-40,-4,49
-40,-3,49
-40,-3,50
-39,-4,50
-40,-4,49
-40,-5,48
-40,-3,49
-39,-4,50
-40,-3,49
-40,-4,49
-40,-4,49
-41,-3,49
-40,-3,49
-39,-4,50
-40,-4,50
-41,-3,49
-40,-3,49
-40,-3,49
-40,-4,49
-40,-4,49
-40,-4,48
-40,-4,49
-40,-3,49
-40,-3,49
-40,-3,49
-40,-4,49
-40,-4,49
-41,-4,49
-40,-4,49
-40,-4,49
-40,-4,49
-40,-3,48
-41,-4,48
-40,-4,49
-40,-4,49
-41,-4,49
-41,-4,48
-41,-4,48
-42,-4,48
-42,-3,48
-41,-4,48
-41,-4,48
-40,-3,50
-40,-4,49
-39,-4,50
-41,-4,48
-43,-4,47
-42,-4,48
-41,-4,48
-41,-3,48
-41,-4,48
-41,-4,48
-42,-4,48
-41,-4,48
-41,-4,49
-41,-4,48
-41,-4,48
-40,-4,48
-40,-4,49
-40,-4,48
-40,-4,49
-40,-4,49
-41,-4,49
-40,-4,49
-41,-4,49
-40,-4,49
-40,-4,49
-41,-4,49
-42,-4,48
-41,-4,48
-42,-4,48
-41,-4,48
-41,-4,48
-40,-4,49
-40,-4,49
-41,-5,48
-40,-4,49
-40,-4,49
-41,-4,48
-41,-4,48
-41,-4,48
-41,-4,48
-40,-4,48
-41,-4,49
-41,-4,49
-41,-4,48
-41,-4,48
-42,-4,48
-42,-5,48
-42,-5,48
-42,-5,47
-42,-5,48
-42,-4,48
-41,-5,48
-41,-4,48
-41,-4,48
-41,-4,48
-40,-5,49
-41,-5,48
-41,-4,48
-41,-4,48
-40,-4,49
-41,-4,48
-41,-4,48
-41,-4,49
-41,-4,49
-40,-4,49
-40,-4,49
-40,-4,48
-41,-4,49
-41,-4,48
-41,-4,48
-41,-4,48
-41,-4,48
-41,-4,48
-41,-4,49
-41,-4,48
-41,-5,49
-41,-4,49
-41,-4,48
-41,-4,48
-41,-4,48
-41,-4,48
-41,-4,48
-41,-4,48
-41,-5,48
-41,-5,48
-41,-4,48
-41,-4,49
-41,-4,49
-42,-4,48
-41,-4,49
-41,-5,48
-42,-4,48
-39,-5,49
-40,-5,49
-44,-3,47
-41,-4,47
-42,-4,47
-42,-5,48
-43,-4,47
-42,-3,48
-42,-3,48
-41,-4,48
-41,-4,48
-42,-5,47
-41,-5,48
-42,-5,48
-40,-5,49
-41,-5,48
-42,-4,48
-42,-4,48
-42,-5,48
-41,-5,48
-43,-4,47
-43,-4,46
-40,-4,48
-40,-4,49
-40,-5,50
-40,-4,50
-41,-3,49
-41,-3,49
-42,-3,48
-41,-3,48
-40,-4,49
-41,-4,48
-41,-5,48
-41,-5,48
-41,-5,47
-43,-5,47
-41,-4,48
-42,-4,47
-42,-4,47
-42,-4,48
-42,-4,48
-42,-4,48
-41,-4,48
-41,-4,48
-41,-4,48
-41,-4,48
-43,-5,47
-42,-5,47
-42,-5,47
-42,-5,47
-42,-5,47
-42,-5,47
-42,-4,48
-42,-4,48
-41,-4,48
-42,-4,47
-42,-5,47
-42,-5,48
-43,-5,48
-42,-4,47
-42,-4,48
-40,-3,49
-40,-3,49
-40,-5,49
-42,-5,48
-41,-4,48
-40,-4,48
-40,-4,48
-40,-3,48
-40,-3,49
-41,-4,49
-42,-5,48
-42,-5,48
-41,-4,49
-40,-4,48
-41,-4,47
-42,-4,46
-43,-4,47
-43,-5,47
-44,-5,46
-43,-5,47
-42,-5,47
-42,-6,46
-43,-5,46
-42,-4,46
-43,-6,46
-44,-5,46
-42,-4,49
-40,-3,50
-43,-2,47
-43,-2,47
-44,-4,47
-40,-3,49
-39,-3,49
-42,-5,46
-43,-5,46
-43,-5,47
-41,-4,48
-41,-4,49
-41,-4,48
-42,-4,47
-43,-4,47
-42,-4,47
-41,-4,49
-40,-4,49
-41,-4,49
-42,-5,47
-43,-5,47
-42,-4,48
-40,-3,49
-39,-3,49
-39,-6,49
-41,-6,49
-40,-5,48
-42,-6,47
-43,-5,47
-41,-5,48
-40,-5,49
-42,-5,48
-42,-4,48
-39,-5,50
-39,-4,50
-37,-4,50
-41,-4,48
-42,-5,47
-39,-4,49
-39,-3,51
-39,-4,50
-39,-4,51
-40,-4,49
-43,-4,47
-44,-3,47
-43,-3,47
-44,-5,46
-44,-6,46
-43,-5,48
-41,-3,49
-41,-2,49
-42,-1,48
-42,-4,48
-42,-4,48
-42,-4,47
-43,-4,47
-42,-4,48
-39,-2,50
-39,-3,49
-40,-3,50
-40,-3,50
-40,-2,51
-40,-2,49
-43,-3,46
-44,-5,43
-48,-6,43
-43,-5,47
-37,-4,52
-36,1,53
-36,-1,50
-39,-1,50
-40,-2,49
-39,-3,51
-40,-3,51
-42,-3,48
-40,-2,49
-38,-2,50
-39,-2,50
-42,-3,48
-43,-3,47
-43,-4,47
-41,-5,48
-43,-4,47
-44,-3,45
-44,-5,45
-43,-5,46
-43,-3,48
-38,-1,50
-37,-1,52
-38,-2,53
-43,-3,48
-46,-4,46
-44,-6,44
-41,-5,47
-41,-5,48
-41,-4,48
-41,-5,48
-41,-5,48
-42,-5,47
-43,-4,47
-42,-4,48
-41,-4,48
-41,-4,48
-42,-3,48
-42,-4,48
-41,-4,48
-41,-4,48
-42,-3,48
-40,-4,48
-41,-4,49
-41,-4,48
-41,-3,49
-41,-3,49
-40,-3,49
-40,-3,49
-40,-3,49
-41,-3,48
-41,-3,49
-41,-3,49
-40,-3,48
-41,-3,49
-41,-3,48
-41,-3,49
-41,-3,49
-41,-3,48
-40,-3,49
-40,-3,49
-41,-3,49
-42,-3,48
-43,-3,47
-41,-5,47
-41,-4,48
-41,-4,49
-41,-3,48
-40,-3,48
-41,-3,49
-42,-3,48
-40,-4,49
-40,-4,49
-41,-3,48
-41,-3,48
-40,-3,48
-42,-3,48
-41,-4,48
-42,-4,48
-42,-3,47
-43,-4,46
-41,-6,46
-45,-4,45
-44,-2,47
-42,-1,48
-40,-1,49
-38,-2,50
-39,-2,50
-41,-2,48
-41,-2,49
-39,-2,50
-39,-2,50
-39,-2,49
-39,-2,50
-39,-2,50
-39,-1,49
-39,-1,50
-39,-2,51
-38,-2,51
-38,-2,50
-39,-1,50
-39,-1,51
-38,-1,50
-39,-1,50
-39,-1,50
-40,-1,50
-39,-1,50
-38,-1,51
-38,-1,51
-40,-2,49
-42,-3,47
-42,-3,48
-40,-3,48
-40,-3,49
-40,-3,48
-41,-3,48
-41,-2,48
-41,-2,48
-42,-3,48
-42,-3,49
-42,-3,48
-42,-2,47
-43,-2,47
-42,-3,47
-43,-3,48
-42,-3,48
-42,-2,48
-43,-4,46
-43,-3,46
-42,-2,47
-42,-3,47
-43,-3,47
-42,-3,48
-43,-3,47
-43,-3,46
-42,-3,47
-42,-3,48
-43,-4,47
-44,-4,46
-42,-4,47
-41,-3,48
-41,-3,49
-43,-2,47
-43,-3,47
-43,-3,48
-41,-3,48
-42,-3,48
-43,-4,46
-43,-3,47
-42,-3,47
-42,-3,48
-42,-3,47
-43,-3,47
-43,-4,47
-42,-3,47
-42,-4,48
-42,-3,47
-43,-3,47
-43,-4,46
-43,-4,46
-42,-5,46
-43,-4,47
-43,-4,47
-43,-4,46
-44,-5,46
-43,-4,46
-43,-5,46
-43,-4,47
-43,-4,46
-43,-4,47
-43,-4,47
-43,-4,47
-43,-4,47
-43,-4,47
-42,-4,47
-43,-4,47
-43,-4,46
-43,-4,47
-43,-4,47
-43,-4,47
-43,-4,46
-43,-4,46
-43,-4,47
-43,-3,46
-43,-4,46
-43,-4,47
-44,-4,46
-43,-4,46
-44,-3,46
-43,-4,46
-43,-4,47
-43,-4,46
-45,-3,46
-45,-5,46
-43,-4,47
-44,-3,45
-44,-3,46
-43,-5,46
-44,-5,46
-43,-3,46
-44,-2,46
-43,-2,47
-41,-3,48
-41,-3,49
-42,-4,48
-43,-4,46
-43,-4,47
-44,-3,46
-42,-3,47
-40,-3,49
-42,-3,47
-43,-3,47
-43,-3,47
-43,-3,47
-43,-3,48
-42,-2,48
-43,-3,47
-41,-4,48
-41,-3,48
-41,-3,48
-42,-3,48
-42,-3,48
-41,-3,48
-43,-3,47
-42,-3,47
-42,-3,47
-43,-3,47
-42,-2,48
-40,-3,49
-42,-2,48
-45,-2,45
-48,-3,43
-41,-3,49
-37,-3,51
-40,-2,50
-39,-2,50
-37,-2,51
-38,-2,51
-39,-2,50
-40,-2,50
-40,-2,49
-40,-2,48
-41,-2,49
-40,-2,49
-40,-2,49
-40,-2,49
-40,-2,49
-39,-2,50
-40,-2,49
-40,-2,49
-39,-2,49
-39,-2,50
-39,-2,50
-40,-1,50
-39,-2,50
-39,-2,50
-40,-2,50
-40,-2,49
-40,-1,49
-39,-1,50
-39,-2,50
-39,-2,50
-38,-2,50
-38,-2,50
-38,-1,51
-40,-1,50
-39,-2,49
-40,-2,49
-40,-2,49
-40,-2,49
-40,-2,50
-39,-2,50
-39,-2,50
-39,-2,50
-39,-2,50
-39,-2,50
-40,-2,50
-39,-2,50
-39,-1,50
-40,-2,50
-40,-2,50
-40,-2,49
-42,-1,50
-47,-2,46
-41,-2,48
-37,-1,51
-39,-3,48
-41,-3,48
-43,-4,47
-43,-3,46
-44,-3,46
-43,-3,47
-43,-4,47
-43,-4,47
-42,-3,48
-41,-2,48
-41,-3,48
-42,-3,47
-43,-3,48
-43,-3,47
-43,-3,47
-43,-3,47
-43,-3,46
-43,-3,46
-43,-2,47
-42,-2,48
-43,-3,48
-44,-4,46
-44,-4,45
-44,-4,44
-44,-5,45
-44,-4,46
-43,-4,46
-44,-3,46
-44,-4,46
-44,-4,46
-43,-4,46
-44,-4,46
-44,-3,46
-43,-3,47
-43,-3,47
-43,-3,47
-43,-3,47
-43,-3,47
-43,-3,46
-43,-3,46
-43,-3,46
-43,-4,46
-42,-3,47
-41,-3,48
-43,-2,48
-44,-3,46
-43,-4,47
-42,-3,48
-42,-3,47
-43,-3,47
-44,-2,46
-43,-3,47
-43,-3,46
-43,-3,47
-43,-3,47
-44,-3,46
-43,-3,46
-44,-3,46
-44,-3,46
-43,-2,47
-43,-2,47
-43,-3,46
-43,-2,47
-43,-3,47
-43,-3,47
-43,-3,47
-42,-3,47
-43,-2,47
-43,-2,47
-43,-2,47
-44,-3,46
-43,-3,46
-44,-3,46
-44,-3,45
-44,-3,46
-44,-3,46
-44,-3,47
-43,-3,47
-44,-3,46
-44,-3,46
-45,-4,45
-45,-4,45
-45,-5,44
-45,-6,44
-45,-5,44
-45,-5,44
-45,-5,44
-46,-5,45
-44,-5,46
-45,-5,44
-45,-5,44
-44,-4,45
-44,-5,45
-45,-6,44
-45,-5,45
-45,-5,45
-45,-5,45
-45,-5,45
-45,-5,45
-45,-4,45
-45,-5,45
-45,-5,45
-45,-4,45
-45,-5,44
-45,-5,45
-45,-5,45
-45,-5,45
-45,-6,45
-45,-5,45
-44,-5,45
-44,-4,45
-45,-4,45
-44,-4,45
-44,-4,45
-44,-5,46
-45,-5,45
-44,-6,45
-44,-5,45
-44,-5,45
-44,-5,45
-44,-4,46
-44,-4,46
-44,-4,47
-44,-5,46
-43,-6,46
-43,-6,46
-43,-5,46
-43,-5,46
-43,-5,46
-42,-5,47
-43,-5,47
-43,-5,46
-42,-6,47
-43,-5,47
-43,-5,46
-43,-5,46
-43,-5,46
-43,-5,46
-43,-5,47
-43,-5,46
-43,-5,46
-43,-5,46
-43,-5,46
-44,-5,46
-43,-5,47
-43,-5,46
-43,-5,46
-43,-5,46
-43,-5,46
-43,-5,46
-43,-5,46
-43,-5,46
-44,-5,46
-42,-5,47
-43,-5,46
-43,-5,46
-43,-4,46
-43,-5,46
-43,-5,47
-43,-5,47
-43,-5,46
-43,-4,47
-43,-5,46
-43,-5,47
-43,-5,47
-43,-5,46
-43,-5,46
-43,-4,47
-42,-4,47
-43,-4,47
-43,-4,47
-43,-5,46
-43,-5,47
-43,-5,47
-43,-5,47
-43,-5,47
-43,-4,47
-43,-4,47
-43,-4,47
-43,-4,46
-42,-5,47
-43,-5,47
-44,-5,46
-43,-5,47
-42,-4,48
-43,-4,47
-43,-4,47
-42,-4,47
-42,-5,46
-44,-5,46
-43,-5,46
-42,-4,47
-43,-4,47
-42,-4,48
-41,-4,48
-42,-4,48
-42,-4,48
-43,-4,46
-42,-5,47
-42,-5,48
-42,-4,48
-42,-4,48
-42,-4,48
-42,-4,48
-42,-4,48
-42,-4,47
-43,-4,47
-42,-4,47
-42,-4,47
-42,-4,47
-42,-4,47
-43,-5,47
-43,-4,46
-43,-4,47
-43,-4,47
-43,-4,47
-43,-4,46
-43,-4,46
-43,-4,47
-43,-4,46
-43,-4,47
-43,-4,47
-43,-4,46
-43,-3,46
-45,-4,44
-45,-5,43
-44,-5,45
-40,-3,50
-39,-2,51
-41,-2,49
-42,-2,48
-41,-2,49
-43,-3,46
-43,-4,46
-42,-4,47
-44,-4,46
-44,-5,46
-45,-4,45
-43,-3,47
-43,-4,48
-43,-4,46
-43,-5,46
-44,-5,46
-43,-5,46
-44,-5,45
-44,-4,46
-45,-4,46
-43,-4,46
-39,-5,49
-40,-5,49
-40,-5,49
-40,-4,48
-42,-5,47
-42,-5,48
-43,-5,47
-43,-5,47
-42,-5,48
-42,-5,48
-42,-4,47
-42,-5,48
-42,-5,48
-42,-5,47
-42,-4,47
-42,-4,47
-42,-4,47
-41,-4,48
-42,-4,48
-42,-4,48
-42,-5,48
-42,-4,48
-42,-4,47
-42,-4,47
-41,-5,48
-42,-4,48
-42,-5,47
-42,-4,48
-42,-5,48
-42,-4,48
-44,-5,46
-42,-4,47
-42,-4,48
-42,-5,46
-41,-5,48
-42,-5,47
-43,-5,47
-42,-5,48
-42,-4,48
-42,-4,47
-41,-4,48
-42,-4,47
-42,-4,48
-42,-4,48
-41,-4,48
-42,-4,48
-42,-4,48
-41,-4,48
-42,-4,48
-42,-4,48
-42,-4,48
-43,-5,47
-40,-6,49
-42,-6,47
-43,-5,46
-40,-6,47
-40,-5,48
-40,-6,48
-42,-5,48
-41,-6,48
-42,-5,48
-42,-5,48
-41,-5,48
-40,-5,49
-39,-5,49
-40,-4,49
-39,-4,47
-38,-7,47
-42,-3,50
-41,-5,46
-41,-3,46
-39,-4,49
-40,-5,49
-41,-5,48
-41,-5,48
-41,-5,48
-41,-5,49
-40,-5,49
-40,-5,49
-41,-4,48
-41,-4,49
-41,-4,49
-40,-4,49
-41,-4,49
-41,-5,48
-42,-5,48
-41,-5,49
-41,-5,49
-41,-5,48
-41,-4,48
-41,-4,48
-41,-4,48
-41,-5,49
-41,-5,48
-42,-4,48
-42,-4,48
-41,-4,48
-41,-4,49
-41,-4,48
-42,-4,48
-41,-5,48
-41,-4,48
-42,-4,48
-41,-4,48
-41,-4,48
-41,-4,48
-41,-4,48
-41,-4,48
-42,-4,48
-41,-4,49
-40,-4,49
-42,-4,48
-40,-4,49
-42,-3,48
-42,-4,48
-41,-4,48
-42,-4,48
-42,-4,48
-42,-4,48
-42,-4,48
-42,-4,47
-42,-5,48
-42,-5,48
-42,-4,47
-42,-4,48
-42,-4,47
-42,-4,48
-42,-4,48
-42,-4,48
-42,-4,47
-42,-4,48
-42,-4,48
-42,-4,48
-42,-5,48
-42,-5,48
-43,-5,47
-42,-5,47
-42,-4,47
-43,-4,47
-42,-4,48
-42,-4,48
-43,-4,47
-42,-4,48
-42,-5,48
-42,-4,47
-42,-4,48
-42,-4,48
-43,-5,46
-42,-5,48
-41,-5,48
-42,-4,48
-43,-3,46
-42,-4,47
-42,-5,48
-42,-5,48
-42,-4,47
-43,-4,46
-43,-4,47
-42,-4,48
-43,-5,47
-43,-6,46
-42,-6,46
-41,-6,47
-42,-4,48
-40,-4,46
-41,-3,47
-43,-5,47
-41,-5,48
-42,-5,47
-41,-4,47
-42,-4,46
-40,-4,48
-42,-4,48
-41,-4,48
-43,-5,46
-43,-5,47
-41,-4,48
-43,-4,47
-43,-4,46
-42,-4,47
-41,-4,48
-41,-5,49
-42,-5,47
-43,-4,47
-42,-4,47
-42,-4,47
-41,-4,48
-42,-5,48
-43,-5,47
-42,-5,47
-42,-4,47
-42,-4,47
-42,-3,47
-42,-3,47
-42,-4,47
-43,-5,47
-43,-5,47
-43,-5,47
-42,-4,47
-42,-4,47
-42,-4,47
-42,-4,47
-43,-5,47
-43,-4,47
-42,-5,47
-42,-4,48
-42,-5,48
-42,-4,47
-43,-4,47
-43,-4,47
-42,-4,47
-44,-5,47
-41,-4,48
-43,-4,47
-42,-4,48
-42,-5,47
-42,-4,47
-43,-4,47
-42,-5,47
-42,-4,48
-42,-4,47
-42,-4,47
-42,-5,47
-42,-4,47
-42,-4,48
-42,-4,48
-42,-5,47
-43,-4,47
-42,-5,47
-43,-5,47
-42,-5,47
-42,-5,47
-43,-4,47
-43,-5,47
-43,-5,47
-42,-5,47
-42,-5,48
-42,-5,47
-42,-5,48
-42,-4,47
-42,-4,47
-42,-5,48
-42,-5,48
-42,-4,47
-43,-4,47
-42,-5,48
-42,-5,47
-42,-4,48
-42,-5,48
-42,-5,48
-42,-5,47
-42,-5,47
-42,-5,47
-42,-5,47
-42,-5,47
-42,-5,47
-42,-4,47
-43,-5,47
-43,-4,47
-42,-5,47
-42,-5,47
-42,-4,47
-42,-4,47
-42,-5,48
-42,-5,47
-42,-5,48
-42,-5,47
-42,-5,47
-42,-4,48
-41,-5,48
-42,-4,47
-42,-4,48
-42,-4,48
-42,-5,47
-42,-5,48
-42,-5,48
-37,-5,49
-46,-3,45
-44,-5,45
-40,-5,49
-42,-4,47
-42,-4,47
-43,-4,47
-42,-5,48
-42,-5,48
-42,-5,48
-42,-4,47
-42,-4,48
-42,-4,47
-42,-5,47
-42,-5,47
-42,-5,47
-42,-5,48
-41,-5,47
-42,-4,47
-42,-4,48
-42,-5,48
-42,-5,48
-42,-4,48
-42,-4,48
-42,-4,47
-42,-5,48
-42,-5,48
-41,-5,48
-42,-4,47
-42,-4,47
-42,-5,48
-42,-5,48
-42,-5,48
-42,-4,48
-42,-4,47
-42,-4,48
-42,-5,48
-42,-5,47
-42,-5,47
-42,-4,48
-42,-4,47
-42,-4,47
-42,-5,48
-42,-5,47
-42,-4,48
-42,-5,47
-42,-4,48
-42,-5,48
-42,-5,47
-42,-4,47
-42,-4,48
-42,-5,47
-42,-4,48
-42,-4,48
-42,-4,48
-42,-4,48
-42,-4,47
-42,-4,48
-42,-4,48
-42,-4,47
-42,-4,48
-43,-5,47
-40,-4,48
-42,-4,47
-42,-5,48
-42,-5,48
-43,-4,47
-43,-4,47
-42,-4,47
-41,-4,48
-42,-4,47
-43,-5,47
-42,-4,47
-42,-4,47
-42,-4,48
-43,-4,47
-43,-4,47
-41,-4,48
-43,-5,47
-43,-4,47
-42,-4,47
-41,-5,48
-42,-4,48
-42,-4,47
-42,-5,47
-43,-4,47
-42,-4,48
-42,-4,47
-42,-4,48
-43,-5,47
-41,-4,48
-42,-4,47
-43,-4,47
-42,-4,48
-42,-4,47
-42,-4,47
-42,-4,47
-43,-4,47
-42,-5,47
-42,-4,48
-43,-4,46
-42,-5,47
-42,-5,47
-43,-4,47
-42,-4,47
-42,-4,47
-42,-4,47
-43,-4,48
-42,-4,47
-42,-4,48
-43,-4,47
-43,-4,47
-42,-4,47
-43,-4,47
-43,-4,47
-42,-4,48
-43,-4,47
-43,-5,47
-42,-4,47
-42,-4,47
-42,-4,48
-42,-4,48
-43,-4,47
-43,-4,47
-42,-5,48
-43,-4,47
-42,-4,47
-42,-4,47
-43,-4,47
-42,-4,47
-42,-5,48
-43,-5,47
-43,-5,47
-42,-4,47
-42,-5,47
-42,-5,48
-43,-4,47
-42,-4,47
-42,-4,48
-42,-5,47
-42,-5,47
-42,-4,47
-42,-4,47
-42,-4,48
-42,-5,48
-42,-4,47
-42,-5,47
-42,-4,47
-43,-5,47
-43,-5,47
-43,-5,47
-42,-5,47
-43,-4,46
-43,-5,46
-43,-5,47
-43,-5,47
-43,-5,46
-42,-5,47
-42,-5,47
-42,-5,47
-42,-5,47
-42,-4,48
-42,-4,47
-42,-4,47
-42,-4,48
-42,-5,48
-42,-4,48
-42,-4,47
-42,-5,48
-42,-5,48
-42,-5,47
-42,-4,47
-42,-5,47
-42,-5,47
-43,-4,47
-42,-5,47
-42,-5,47
-43,-5,47
-42,-5,47
-42,-5,47
-42,-5,47
-42,-5,47
-43,-5,47
-43,-5,47
-43,-5,47
-43,-5,47
-42,-5,47
-42,-5,47
-42,-5,46
-42,-5,47
-43,-5,47
-43,-6,46
-42,-5,48
-42,-4,48
-42,-4,48
-42,-4,48
-42,-5,47
-43,-5,47
-42,-5,48
-42,-5,48
-42,-5,47
-42,-4,47
-42,-5,47
-43,-5,48
-42,-6,47
-43,-5,47
-42,-5,46
-41,-3,47
-42,-4,48
-42,-5,48
-42,-6,48
-43,-6,48
-43,-6,47
-42,-4,47
-41,-3,48
-42,-4,48
-43,-5,47
-42,-4,47
-42,-4,47
-43,-5,46
-43,-5,47
-42,-5,47
-42,-4,47
-42,-4,47
-42,-4,47
-42,-5,47
-42,-5,47
-42,-5,47
-43,-4,48
-42,-5,46
-43,-4,47
-42,-4,48
-42,-4,48
-42,-4,48
-43,-5,47
-43,-5,47
-42,-4,47
-43,-4,47
-43,-2,47
-43,-4,48
-43,-6,48
-43,-6,48
-42,-5,48
-42,-4,46
-42,-4,47
-41,-4,48
-42,-5,47
-43,-5,47
-44,-4,46
-42,-4,47
-42,-5,47
-42,-5,48
-42,-4,47
-43,-3,47
-42,-4,47
-43,-5,48
-43,-5,48
-43,-5,47
-43,-4,47
-43,-4,47
-42,-4,47
-42,-4,47
-43,-4,48
-42,-5,48
-43,-4,46
-43,-4,46
-42,-5,47
-42,-4,47
-42,-5,48
-43,-5,47
-43,-4,47
-42,-5,48
-43,-4,47
-42,-5,48
-42,-5,48
-43,-5,46
-42,-4,47
-42,-4,48
-43,-5,47
-43,-5,47
-43,-4,47
-42,-5,46
-43,-4,46
-43,-5,47
-43,-4,47
-43,-5,46
-43,-4,47
-43,-4,47
-42,-5,47
-43,-5,46
-43,-5,47
-43,-5,47
-43,-4,46
-43,-4,47
-43,-4,47
-42,-4,47
-42,-4,48
-42,-4,48
-42,-4,48
-42,-4,48
-42,-4,48
-42,-4,48
-41,-4,48
-42,-4,48
-42,-4,48
-41,-4,48
-42,-4,48
-42,-4,48
-42,-4,48
-42,-4,48
-42,-4,48
-42,-4,48
-42,-4,48
-42,-4,47
-42,-4,48
-42,-4,47
-42,-4,48
-42,-4,47
-42,-5,47
-42,-4,47
-42,-4,47
-43,-4,47
-43,-4,47
-42,-4,47
-42,-4,47
-42,-4,47
-42,-4,47
-42,-4,47
-42,-4,48
-42,-4,47
-42,-4,47
-42,-4,47
-42,-4,48
-42,-4,48
-42,-4,47
-42,-4,48
-42,-4,48
-42,-5,47
-42,-4,48
-43,-4,47
-42,-4,48
-42,-4,47
-42,-4,48
-42,-4,48
-42,-4,48
-42,-4,48
-42,-4,48
-42,-4,48
-42,-4,48
-42,-4,48
-41,-5,45
-42,-4,46
-43,-4,48
-40,-4,47
-41,-4,48
-42,-3,47
-42,-4,47
-43,-4,47
-42,-5,48
-42,-4,47
-42,-4,47
-43,-4,47
-43,-4,47
-42,-4,48
-42,-3,47
-42,-3,48
-42,-4,47
-43,-5,47
-43,-4,47
-42,-4,48
-42,-4,48
-42,-4,48
-42,-5,47
-43,-4,47
-42,-4,47
-42,-4,48
-42,-3,48
-42,-4,48
-42,-5,48
-42,-5,48
-42,-5,48
-42,-5,47
-42,-4,48
-42,-4,47
-42,-4,47
-42,-4,48
-42,-4,48
-42,-5,47
-43,-5,47
-42,-5,47
-42,-5,47
-42,-4,47
-42,-5,47
-42,-5,47
-43,-4,47
-42,-4,48
-42,-4,47
-42,-4,47
-42,-4,48
-43,-4,47
-42,-4,47
-42,-5,47
-42,-5,47
-42,-4,47
-42,-4,48
-41,-4,49
-41,-4,49
-42,-5,47
-42,-5,47
-42,-5,47
-42,-4,47
-42,-4,47
-42,-4,47
-42,-4,47
-42,-4,48
-42,-5,48
-42,-5,48
-42,-5,48
-42,-4,48
-42,-5,48
-42,-4,48
-42,-4,48
-42,-4,47
-42,-4,48
-42,-4,48
-42,-4,47
-42,-5,48
-42,-4,47
-42,-4,48
-42,-4,48
-42,-4,48
-42,-4,47
-42,-4,47
-42,-4,48
-42,-4,48
-42,-5,48
-42,-5,48
-42,-4,48
-42,-4,47
-42,-4,48
-42,-4,47
-42,-5,47
-42,-4,48
-42,-4,48
-42,-4,48
-42,-5,48
-42,-4,48
-42,-4,48
-42,-4,47
-42,-4,48
-42,-4,48
-42,-4,47
-42,-4,48
-42,-4,47
-42,-4,48
-42,-4,48
-42,-4,48
-42,-4,48
-42,-4,48
-42,-4,48
-42,-4,48
-41,-4,48
-41,-4,48
-42,-4,48
-42,-4,47
-42,-5,47
-42,-4,47
-42,-4,48
-42,-4,47
-42,-4,47
-42,-5,47
-43,-5,47
-42,-4,48
-42,-4,47
-42,-5,47
-42,-5,48
-43,-5,47
-43,-4,47
-42,-4,48
-42,-4,48
-42,-4,48
-41,-4,48
-42,-4,48
-42,-4,48
-42,-4,48
-41,-4,48
-42,-4,48
-42,-4,48
-42,-4,47
-43,-4,47
-42,-4,47
-42,-4,48
-42,-4,47
-43,-5,48
-43,-5,47
-43,-4,47
-42,-4,48
-42,-4,47
-42,-4,48
-42,-4,48
-43,-5,47
-42,-4,47
-42,-4,47
-42,-5,47
-42,-4,48
-42,-5,48
-42,-5,47
-42,-5,48
-43,-5,47
-42,-4,48
-42,-4,48
-42,-4,48
-42,-4,48
-42,-5,48
-42,-5,48
-42,-4,48
-42,-4,48
-42,-4,47
-42,-4,47
-42,-4,47
-42,-4,48
-42,-5,47
-42,-5,48
-42,-4,48
-41,-4,48
-41,-4,48
-41,-4,48
-40,-4,49
-42,-4,48
-42,-4,48
-43,-5,47
-44,-5,46
-42,-3,47
-41,-3,48
-43,-3,46
-42,-4,47
-41,-4,48
-41,-4,47
-43,-4,47
-42,-4,48
-42,-5,48
-42,-4,48
-42,-5,48
-42,-4,48
-41,-4,48
-42,-4,48
-43,-4,47
-43,-4,47
-42,-4,47
-42,-4,48
-42,-4,48
-42,-4,47
-43,-4,47
-42,-4,47
-43,-4,47
-43,-4,47
-42,-4,48
-42,-4,48
-42,-5,47
-42,-4,47
-42,-4,47
-43,-4,47
-42,-4,47
-42,-4,47
-43,-4,47
-42,-4,47
-42,-5,47
-42,-5,47
-42,-4,47
-43,-4,47
-42,-4,47
-43,-4,47
-42,-4,47
-43,-5,46
-43,-4,47
-42,-4,48
-43,-4,47
-43,-4,47
-42,-5,48
-43,-5,47
-43,-5,47
-42,-4,47
-43,-4,47
-42,-5,47
-42,-5,48
-43,-5,46
-43,-5,47
-42,-4,47
-43,-4,47
-43,-4,47
-42,-4,47
-42,-4,48
-43,-5,47
-43,-5,47
-42,-4,46
-43,-4,47
-42,-5,46
-42,-5,47
-42,-5,47
-42,-4,47
-42,-5,48
-42,-5,48
-43,-5,47
-42,-4,47
-42,-4,47
-43,-5,47
-42,-4,47
-42,-5,48
-42,-4,47
-43,-4,47
-43,-5,47
-43,-5,47
-42,-5,47
-42,-5,47
-42,-4,47
-42,-4,47
-42,-4,47
-43,-4,47
-43,-5,47
-43,-5,47
-43,-5,47
-42,-5,47
-42,-4,47
-42,-4,47
-42,-4,47
-42,-5,47
-43,-5,47
-42,-5,47
-43,-5,47
-42,-4,48
-42,-5,47
-42,-5,47
-42,-5,47
-42,-4,47
-42,-5,47
-42,-4,47
-43,-4,47
-42,-4,48
-41,-5,48
-42,-5,48
-43,-5,47
-43,-4,46
-43,-4,47
-43,-4,46
-43,-4,47
-42,-4,48
-43,-4,47
-43,-4,47
-42,-4,48
-41,-4,48
-42,-4,48
-42,-4,48
-42,-4,48
-42,-4,48
-42,-4,48
-43,-5,47
-42,-5,47
-42,-5,47
-43,-5,47
-42,-4,47
-42,-5,47
-43,-4,47
-42,-4,47
-42,-5,47
-42,-5,47
-42,-5,48
-42,-5,47
-42,-4,47
-43,-5,47
-42,-5,47
-43,-5,46
-43,-4,47
-42,-4,47
-43,-4,47
-43,-4,47
-42,-4,48
-42,-4,48
-42,-4,48
-41,-4,48
-42,-5,48
-43,-4,47
-42,-4,47
-42,-4,47
-42,-4,47
-42,-4,48
-43,-4,47
-42,-5,47
-43,-4,47
-42,-4,47
-42,-4,48
-42,-4,47
-43,-4,47
-43,-4,47
-42,-5,47
-42,-4,47
-42,-4,47
-42,-4,47
-42,-4,47
-42,-4,47
-42,-4,47
-43,-4,47
-42,-4,47
-42,-4,47
-43,-4,47
-42,-4,47
-42,-4,47
-43,-5,47
-43,-4,47
-42,-4,47
-42,-4,47
-42,-4,47
-43,-4,47
-43,-4,46
-43,-5,47
-42,-5,47
-42,-5,47
-42,-5,47
-43,-4,47
-43,-4,47
-43,-4,47
-42,-4,47
-43,-5,47
-42,-5,47
-43,-4,47
-43,-4,47
-42,-4,48
-42,-4,48
-42,-4,47
-41,-5,48
-42,-5,48
-42,-5,48
-42,-5,47
-42,-4,47
-42,-4,47
-42,-5,48
-42,-5,48
-43,-4,47
-42,-4,47
-42,-4,48
-42,-5,48
-42,-5,47
-42,-4,47
-42,-4,47
-43,-4,46
-43,-4,47
-43,-4,47
-42,-5,47
-43,-5,46
-44,-5,45
-42,-4,47
-41,-3,49
-41,-3,49
-40,-4,49
-42,-4,48
-43,-4,47
-43,-5,47
-42,-4,47
-43,-4,47
-42,-4,47
-42,-4,48
-43,-5,47
-43,-5,46
-43,-5,47
-42,-4,48
-42,-4,48
-42,-4,48
-42,-5,47
-43,-6,45
-43,-6,46
-43,-5,47
-43,-4,47
-43,-4,48
-42,-4,48
-43,-3,47
-41,-4,48
-41,-4,48
-42,-5,47
-42,-5,46
-42,-5,47
-43,-5,46
-43,-5,46
-42,-4,48
-42,-4,48
-42,-4,48
-41,-4,48
-43,-4,48
-42,-4,47
-42,-4,47
-42,-5,47
-43,-5,46
-44,-5,46
-43,-5,46
-43,-5,46
-43,-5,46
-43,-5,46
-43,-5,46
-43,-5,47
-43,-5,46
-43,-5,46
-43,-5,46
-43,-5,46
-43,-5,46
-43,-5,46
-42,-5,47
-43,-5,46
-42,-5,47
-43,-5,46
-43,-5,46
-43,-5,46
-42,-4,48
-43,-5,47
-42,-5,48
-44,-5,45
-44,-5,45
-43,-6,47
-42,-6,47
-43,-6,46
-44,-4,46
-43,-4,47
-42,-4,48
-42,-4,48
-43,-4,47
-43,-4,47
-43,-5,47
-43,-5,47
-43,-5,46
-43,-5,47
-41,-4,48
-41,-4,48
-42,-4,48
-42,-5,48
-42,-5,47
-43,-5,46
-42,-4,47
-42,-5,48
-42,-5,48
-44,-5,46
-43,-5,46
-43,-5,47
-43,-4,47
-42,-4,47
-43,-4,47
-43,-5,46
-43,-5,46
-42,-5,47
-43,-5,47
-43,-5,47
-43,-5,46
-43,-4,46
-42,-4,47
-42,-5,47
-43,-4,47
-43,-5,46
-43,-4,47
-42,-4,47
-42,-4,47
-43,-5,47
-43,-5,47
-43,-4,47
-42,-4,48
-42,-4,47
-42,-5,47
-43,-5,47
-42,-4,47
-43,-4,48
-43,-4,47
-43,-5,47
-42,-5,47
-43,-5,47
-43,-5,46
-43,-5,46
-43,-5,47
-43,-5,46
-43,-4,47
-43,-5,46
-43,-4,46
-42,-5,47
-43,-5,47
-42,-5,47
-42,-5,47
-43,-4,46
-43,-5,46
-43,-5,47
-42,-5,47
-43,-4,47
-43,-4,46
-43,-4,47
-42,-4,47
-43,-4,47
-43,-5,47
-42,-4,47
-44,-3,47
-43,-5,47
-42,-5,47
-44,-6,45
-42,-5,46
-42,-5,47
-43,-5,46
-43,-5,47
-43,-4,47
-43,-4,47
-42,-4,47
-43,-4,47
-42,-5,47
-43,-5,46
-42,-5,46
-43,-5,47
-43,-5,47
-42,-5,47
-43,-5,46
-43,-5,47
-42,-4,47
-43,-4,47
-43,-5,46
-43,-5,47
-43,-4,47
-43,-5,47
-43,-4,47
-43,-5,47
-43,-5,47
-43,-5,47
-43,-4,47
-43,-4,47
-43,-5,47
-43,-5,46
-44,-5,46
-43,-5,46
-43,-5,46
-43,-4,46
-43,-5,46
-43,-5,46
-43,-5,46
-43,-5,47
-43,-5,46
-43,-5,47
-43,-5,47
-43,-5,47
-43,-5,47
-43,-5,46
-43,-4,47
-42,-5,47
-43,-5,47
-43,-5,46
-43,-4,47
-43,-4,47
-42,-5,47
-43,-4,47
-43,-5,47
-43,-5,46
-42,-5,47
-43,-5,47
-43,-5,46
-43,-5,46
-42,-4,47
-43,-5,47
-43,-5,47
-43,-5,47
-43,-5,47
-43,-4,47
-43,-5,46
-43,-5,47
-43,-5,47
-43,-4,47
-43,-4,46
-43,-4,47
-43,-4,46
-43,-4,47
-43,-4,46
-43,-4,47
-43,-4,47
-43,-5,47
-43,-4,47
-43,-4,47
-43,-4,46
-43,-4,47
-43,-4,46
-43,-4,46
-43,-4,47
-43,-5,47
-43,-4,47
-43,-4,47
-43,-4,47
-43,-4,47
-43,-4,47
-43,-4,47
-43,-4,47
-43,-4,47
-42,-5,47
-43,-4,47
-42,-4,47
-42,-4,47
-43,-4,47
-42,-4,48
-42,-4,47
-42,-4,47
-42,-4,48
-43,-4,48
-42,-4,47
-43,-4,47
-43,-4,46
-43,-4,47
-42,-4,48
-43,-4,47
-43,-4,47
-42,-4,47
-42,-5,47
-42,-5,47
-43,-5,47
-42,-5,47
-43,-4,47
-43,-4,47
-42,-4,47
-43,-5,47
-43,-4,47
-43,-4,47
-43,-4,47
-42,-4,47
-42,-4,47
-43,-4,47
-43,-4,47
-43,-4,47
-42,-4,47
-43,-4,47
-43,-5,46
-43,-5,47
-43,-5,46
-43,-5,46
-43,-5,46
-43,-4,46
-43,-4,46
-43,-5,47
-43,-5,46
-42,-5,46
-43,-5,47
-43,-5,47
-43,-5,47
-43,-5,46
-43,-5,46
-43,-5,46
-43,-5,47
-43,-5,47
-43,-5,46
-43,-4,47
-42,-4,46
-43,-5,47
-43,-5,47
-43,-5,47
-43,-5,47
-43,-4,46
-43,-5,47
-43,-5,47
-43,-5,46
-42,-5,47
-43,-4,47
-43,-5,46
-43,-4,47
-43,-5,47
-43,-5,47
-43,-5,47
-43,-5,47
-42,-4,48
-42,-4,47
-43,-4,46
-43,-4,47
-43,-4,47
-42,-5,47
-43,-4,47
-42,-5,47
-42,-5,47
-42,-5,48
-42,-4,48
-43,-4,47
-43,-4,47
-43,-4,47
-43,-4,47
-43,-4,47
-43,-4,47
-43,-4,47
-43,-4,47
-43,-5,47
-43,-4,47
-43,-4,47
-43,-4,47
-43,-4,47
-43,-5,46
-42,-4,47
-43,-4,46
-43,-4,47
-42,-4,47
-43,-4,47
-43,-4,46
-42,-4,47
-42,-4,47
-43,-4,47
-43,-4,47
-43,-4,47
-42,-4,47
-43,-4,47
-43,-4,47
-42,-4,47
-42,-4,48
-42,-4,47
-42,-4,47
-42,-5,47
-43,-5,46
-43,-4,46
-43,-4,47
-42,-4,47
-42,-4,47
-43,-4,47
-42,-4,48
-42,-5,47
-43,-4,47
-43,-4,47
-43,-4,47
-42,-4,48
-43,-4,47
-43,-4,46
-43,-4,47
-42,-4,47
-43,-4,47
-43,-4,47
-43,-4,47
-43,-4,47
-43,-4,46
-43,-5,47
-43,-5,47
-44,-4,46
-42,-4,47
-43,-4,47
-43,-4,46
-43,-5,47
-43,-5,47
-44,-5,46
-43,-5,46
-43,-5,46
-42,-4,47
-43,-5,46
-44,-4,47
-43,-5,47
-43,-5,47
-42,-4,47
-43,-5,46
-43,-5,47
-43,-4,47
-43,-5,46
-43,-5,47
-43,-5,47
-43,-4,46
-43,-5,47
-43,-5,47
-43,-4,46
-43,-4,47
-42,-4,47
-43,-4,47
-43,-4,47
-43,-5,47
-43,-5,47
-43,-4,47
-43,-4,47
-42,-4,47
-42,-4,47
-42,-5,47
-43,-4,47
-43,-5,47
-43,-5,47
-43,-4,46
-43,-4,47
-42,-4,47
-43,-4,46
-43,-4,46
-43,-5,47
-42,-4,48
-42,-4,47
-42,-3,47
-41,-4,48
-42,-4,48
-42,-4,47
-42,-4,48
-42,-5,48
-42,-4,48
-42,-4,47
-42,-4,47
-43,-4,47
-42,-4,47
-43,-4,48
-43,-4,47
-42,-4,47
-43,-5,47
-43,-5,46
-43,-5,47
-43,-5,47
-43,-4,47
-43,-5,47
-43,-5,47
-43,-5,47
-42,-5,47
-43,-5,46
-43,-4,47
-42,-4,47
-44,-4,46
-44,-5,46
-42,-4,47
-43,-5,46
-43,-4,47
-43,-5,46
-43,-5,47
-43,-4,47
-43,-4,46
-43,-5,47
-42,-4,47
-43,-5,47
-43,-4,47
-43,-5,47
-43,-4,47
-43,-4,47
-43,-5,47
-43,-5,47
-43,-5,46
-43,-5,46
-43,-5,46
-43,-4,46
-43,-5,47
-43,-5,46
-43,-4,46
-43,-5,47
-43,-5,46
-43,-5,47
-43,-5,47
-43,-4,46
-43,-5,47
-43,-5,47
-43,-4,47
-43,-4,46
-43,-4,46
-43,-4,47
-43,-5,47
-43,-5,47
-43,-5,46
-43,-5,47
-43,-4,47
-42,-4,47
-43,-5,47
-43,-5,46
-43,-5,46
-43,-4,46
-43,-4,46
-43,-4,47
-43,-4,46
-43,-5,47
-42,-6,47
-44,-5,46
-43,-5,47
-43,-5,47
-43,-5,47
-43,-4,46
-43,-4,47
-43,-5,47
-43,-4,46
-44,-5,46
-43,-4,46
-43,-4,46
-43,-4,47
-43,-5,46
-43,-5,46
-43,-5,47
-43,-4,46
-43,-4,46
-43,-4,46
-42,-4,47
-41,-4,48
-43,-5,47
-43,-4,47
-42,-4,47
-42,-5,47
-42,-4,47
-42,-4,47
-43,-4,46
-43,-4,47
-42,-4,47
-43,-4,46
-43,-4,47
-43,-4,47
-43,-4,47
-43,-4,46
-43,-4,47
-42,-4,47
-43,-4,47
-43,-4,47
-43,-4,47
-43,-4,47
-43,-4,47
-43,-4,47
-43,-4,47
-43,-4,47
-43,-4,46
-43,-4,46
-43,-4,46
-42,-4,47
-43,-4,46
-43,-4,46
-43,-4,46
-43,-4,47
-43,-4,47
-43,-4,47
-43,-4,47
-43,-4,47
-43,-4,47
-43,-5,46
-43,-3,47
-43,-3,47
-43,-4,47
-43,-4,47
-43,-4,47
-43,-4,47
-42,-4,47
-42,-4,47
-43,-4,47
-43,-5,47
-43,-4,47
-43,-4,47
-43,-4,46
-43,-4,46
-43,-4,47
-43,-4,46
-43,-4,46
-43,-4,46
-43,-4,47
-43,-4,46
-43,-4,47
-43,-4,47
-43,-5,46
-43,-5,47
-43,-4,46
-42,-5,46
-44,-5,46
-43,-5,47
-43,-4,47
-43,-4,46
-43,-4,46
-44,-4,46
-44,-4,46
-43,-5,46
-43,-5,46
-43,-5,46
-43,-4,47
-43,-4,46
-43,-5,46
-43,-5,47
-43,-5,47
-43,-5,47
-43,-4,46
-43,-4,47
-43,-5,47
-43,-5,47
-43,-5,46
-43,-5,47
-43,-5,46
-42,-5,46
-43,-4,47
-43,-5,46
-43,-4,47
-43,-5,47
-43,-5,47
-43,-5,47
-42,-5,48
-43,-4,46
-43,-4,46
-43,-5,47
-43,-5,47
-43,-5,46
-43,-4,47
-43,-4,47
-43,-4,47
-43,-4,47
-43,-5,47
-43,-5,47
-43,-5,47
-43,-5,47
-43,-4,47
-43,-4,46
-43,-4,46
-43,-4,47
-43,-5,47
-43,-5,46
-44,-5,46
-43,-5,46
-43,-5,46
-43,-5,46
-43,-5,47
-43,-5,47
-42,-5,47
-43,-5,45
-45,-3,44
-44,-3,46
-42,-4,48
-43,-5,46
-44,-5,45
-45,-5,45
-44,-5,45
-44,-5,46
-44,-4,46
-43,-4,47
-43,-3,47
-43,-4,47
-43,-4,47
-43,-4,46
-44,-5,46
-45,-4,45
-44,-4,46
-44,-4,46
-44,-4,46
-44,-4,46
-44,-4,46
-44,-4,46
-44,-5,45
-43,-5,45
-44,-5,45
-45,-5,45
-44,-4,46
-43,-4,46
-44,-5,46
-44,-5,46
-44,-5,46
-43,-5,47
-44,-5,46
-44,-5,45
-44,-5,44
-43,-5,46
-44,-5,45
-45,-4,45
-43,-4,46
-44,-4,46
-45,-4,45
-44,-4,46
-43,-4,46
-44,-3,45
-43,-4,46
-43,-4,46
-44,-5,46
-44,-5,46
-44,-4,45
-43,-5,46
-44,-4,46
-44,-4,46
-43,-4,47
-44,-3,46
-43,-4,46
-43,-4,46
-44,-4,45
-43,-4,46
-43,-5,46
-44,-4,46
-43,-4,47
-43,-4,46
-43,-4,46
-43,-4,47
-43,-4,46
-43,-3,48
-43,-4,47
-44,-5,45
-45,-6,44
-45,-6,45
-45,-4,45
-43,-3,46
-42,-3,48
-41,-3,49
-41,-4,49
-41,-4,48
-42,-4,48
-42,-4,48
-42,-4,48
-41,-4,48
-42,-4,48
-42,-4,47
-42,-4,48
-43,-3,47
-42,-3,47
-43,-3,47
-45,-5,45
-44,-4,45
-42,-4,47
-41,-2,49
-41,-3,48
-42,-3,48
-42,-3,48
-41,-2,48
-42,-3,48
-42,-2,48
-42,-3,47
-42,-3,48
-42,-3,48
-42,-3,48
-42,-3,47
-42,-3,48
-41,-3,48
-41,-3,48
-42,-3,48
-42,-3,47
-41,-2,48
-41,-2,48
-42,-3,48
-41,-3,48
-42,-4,47
-43,-4,47
-43,-3,47
-43,-3,47
-41,-3,48
-41,-3,49
-41,-3,48
-41,-3,48
-40,-3,49
-40,-3,49
-41,-3,48
-41,-3,48
-41,-3,48
-41,-3,48
-41,-3,49
-41,-3,48
-42,-3,48
-41,-3,48
-41,-3,48
-42,-3,48
-43,-3,47
-43,-3,47
-43,-3,46
-44,-3,46
-41,-3,48
-40,-4,49
-40,-2,49
-41,-2,49
-43,-2,47
-43,-3,46
-43,-3,47
-43,-3,47
-42,-4,47
-43,-4,47
-43,-4,47
-44,-4,46
-44,-4,46
-43,-3,47
-43,-3,47
-44,-3,47
-43,-3,47
-43,-3,47
-42,-3,48
-42,-3,48
-43,-4,47
-43,-4,46
-43,-4,47
-42,-3,47
-43,-3,47
-43,-3,47
-43,-3,47
-43,-4,46
-43,-3,46
-43,-4,47
-43,-4,47
-43,-4,46
-43,-4,46
-43,-4,46
-43,-4,47
-43,-3,47
-43,-3,47
-43,-4,47
-42,-3,47
-43,-4,47
-43,-4,47
-43,-4,46
-44,-4,46
-43,-4,46
-43,-4,46
-43,-4,46
-43,-3,46
-43,-3,47
-43,-3,48
-43,-3,47
-43,-3,46
-43,-4,46
-42,-3,47
-43,-3,46
-43,-4,47
-43,-4,47
-42,-4,47
-43,-3,47
-43,-4,46
-43,-4,46
-43,-4,46
-43,-4,46
-44,-4,46
-44,-4,46
-44,-4,46
-44,-4,46
-43,-4,47
-43,-4,47
-43,-4,46
-44,-3,45
-44,-4,46
-44,-5,46
-44,-5,46
-44,-4,46
-44,-3,46
-43,-4,46
-43,-4,46
-44,-4,46
-43,-4,46
-43,-4,47
-43,-4,47
-44,-4,45
-44,-5,45
-44,-5,45
-43,-5,46
-44,-4,46
-44,-4,45
-44,-4,46
-43,-4,46
-43,-4,46
-46,-4,47
-43,-5,46
-44,-4,46
-44,-4,46
-43,-4,46
-44,-4,46
-43,-4,46
-43,-4,47
-44,-5,46
-43,-4,46
-42,-4,46
-44,-4,46
-44,-5,46
-44,-5,46
-44,-4,46
-43,-4,46
-43,-5,46
-44,-5,46
-44,-4,46
-44,-4,45
-44,-5,46
-44,-5,46
-44,-5,46
-44,-5,46
-44,-4,45
-43,-4,46
-43,-5,46
-44,-5,46
-44,-4,46
-44,-4,46
-44,-4,46
-43,-4,46
-43,-4,46
-43,-4,46
-43,-4,46
-44,-4,46
-44,-5,46
-44,-5,45
-44,-5,46
-43,-4,47
-43,-4,46
-43,-5,46
-43,-4,46
-44,-4,46
-44,-4,46
-44,-4,46
-43,-4,46
-44,-4,45
-44,-4,46
-42,-5,46
-43,-5,46
-45,-5,46
-43,-5,46
-43,-4,46
-43,-4,46
-44,-5,46
-44,-4,46
-44,-4,46
-44,-4,46
-44,-5,46
-44,-5,46
-44,-4,46
-44,-4,46
-44,-5,46
-44,-4,46
-43,-4,46
-44,-5,46
-44,-5,46
-44,-5,46
-44,-5,46
-44,-4,46
-43,-5,46
-43,-4,46
-44,-5,46
-44,-4,46
-44,-5,46
-44,-5,46
-44,-5,46
-44,-5,46
-43,-4,46
-44,-4,46
-44,-5,46
-43,-5,46
-44,-5,45
-43,-5,46
-44,-4,45
-44,-4,46
-44,-5,46
-44,-4,46
-44,-4,46
-43,-4,46
-44,-5,46
-44,-5,46
-44,-5,46
-44,-4,46
-44,-4,46
-44,-4,46
-43,-4,46
-44,-4,46
-44,-4,46
-44,-5,46
-44,-5,46
-44,-4,46
-44,-4,46
-44,-4,46
-43,-4,46
-44,-4,46
-44,-5,46
-44,-4,46
-44,-5,46
-44,-5,46
-43,-4,46
-43,-4,46
-43,-4,46
-44,-5,46
-43,-5,46
-44,-5,46
-44,-4,45
-44,-4,46
-43,-4,46
-43,-4,46
-43,-4,46
-43,-5,46
-44,-5,46
-44,-4,46
-44,-4,46
-44,-4,46
-43,-4,46
-43,-4,46
-43,-4,46
-44,-4,46
-43,-4,46
-44,-5,46
-43,-5,46
-43,-5,46
-44,-4,46
-44,-4,46
-44,-5,46
-44,-5,45
-44,-4,46
-44,-5,46
-44,-5,46
-43,-4,46
-44,-5,46
-44,-4,46
-44,-4,46
-43,-4,46
-43,-4,46
-43,-5,46
-44,-4,46
-44,-4,46
-44,-4,46
-43,-5,46
-44,-5,46
-43,-4,46
-43,-4,46
-44,-4,46
-43,-4,46
-43,-5,46
-43,-4,46
-43,-4,46
-44,-4,46
-44,-4,46
-43,-4,46
-44,-4,46
-44,-5,46
-43,-4,46
-43,-4,46
-44,-4,46
-44,-4,46
-44,-4,46
-44,-4,45
-44,-4,45
-44,-4,46
-44,-5,46
-44,-5,46
-44,-5,45
-44,-4,46
-44,-4,45
-44,-4,46
-44,-4,46
-43,-4,46
-44,-4,45
-44,-4,46
-44,-5,46
-44,-4,46
-43,-4,46
-44,-4,46
-44,-4,46
-44,-5,46
-44,-4,46
-44,-4,46
-44,-4,46
-44,-4,45
-44,-4,46
-44,-4,46
-44,-4,46
-43,-4,46
-44,-4,46
-44,-4,46
-44,-4,46
-44,-4,45
-44,-4,46
-44,-4,46
-44,-4,46
-44,-4,46
-44,-4,45
-43,-4,46
-44,-4,46
-43,-4,46
-44,-4,46
-44,-4,46
-44,-4,46
-44,-5,46
-44,-5,46
-44,-5,46
-44,-4,46
-44,-4,45
-44,-4,45
-44,-4,46
-44,-4,45
-44,-4,46
-44,-4,46
-44,-5,45
-44,-4,46
-44,-4,46
-44,-4,46
-44,-4,46
-44,-4,46
-44,-4,46
-44,-5,46
-44,-4,46
-44,-4,45
-44,-4,45
-44,-4,46
-44,-5,45
-44,-5,46
-44,-5,46
-44,-5,46
-44,-4,45
-44,-4,45
-44,-5,46
-44,-5,45
-44,-5,45
-44,-5,46
-44,-4,46
-44,-5,45
-44,-4,46
-44,-4,45
-44,-4,45
-44,-4,45
-44,-5,46
-44,-5,46
-44,-4,46
-44,-4,46
-44,-5,45
-44,-4,46
-44,-5,46
-44,-4,45
-44,-4,45
-44,-5,46
-44,-5,46
-44,-5,46
-44,-4,46
-44,-4,46
-44,-4,47
-45,-4,44
-44,-4,45
-44,-4,46
-44,-4,45
-44,-4,45
-44,-4,45
-44,-5,46
-44,-5,46
-43,-5,46
-45,-5,44
-44,-5,45
-45,-5,44
-45,-5,45
-44,-5,45
-44,-4,45
-44,-4,46
-44,-4,46
-44,-5,46
-44,-5,46
-44,-5,45
-44,-4,45
-44,-4,46
-44,-5,46
-43,-4,46
-44,-4,46
-44,-4,46
-43,-4,46
-44,-4,46
-44,-4,46
-44,-5,46
-44,-5,46
-44,-4,46
-44,-4,46
-44,-5,46
-44,-4,46
-44,-4,46
-44,-4,45
-44,-5,46
-44,-5,45
-44,-4,46
-44,-4,46
-44,-5,45
-44,-5,46
-44,-4,46
-44,-5,45
-44,-5,46
-44,-4,46
-44,-5,46
-44,-5,46
-44,-5,46
-44,-5,46
-44,-5,46
-44,-5,45
-44,-5,46
-44,-5,45
-44,-5,46
-44,-5,45
-44,-5,45
-44,-4,46
-44,-5,46
-44,-5,46
-44,-5,46
-44,-5,45
-44,-4,45
-44,-4,46
-44,-5,45
-44,-4,45
-44,-4,45
-44,-5,46
-43,-5,46
-44,-5,45
-44,-4,46
-44,-4,46
-44,-4,46
-44,-4,46
-44,-4,46
-44,-5,46
-44,-5,46
-44,-5,46
-44,-4,46
-44,-4,46
-44,-4,46
-44,-4,46
-44,-4,46
-44,-5,46
-44,-4,45
-44,-5,45
-43,-5,46
-44,-4,45
-44,-4,46
-44,-4,46
-44,-4,46
-44,-5,45
-44,-5,45
-44,-5,45
-44,-4,45
-44,-4,45
-44,-5,45
-44,-4,45
-44,-4,46
-44,-4,45
-44,-5,45
-44,-5,46
-44,-5,46
-44,-5,46
-44,-4,46
-44,-4,45
-44,-4,46
-44,-4,45
-44,-5,45
-44,-4,46
-44,-4,46
-44,-4,45
-44,-4,45
-44,-4,45
-44,-5,45
-44,-5,45
-44,-4,46
-44,-4,45
-44,-4,45
-44,-4,46
-44,-5,46
-44,-5,46
-44,-5,45
-44,-4,45
-44,-4,45
-44,-4,46
-44,-4,46
-44,-4,46
-44,-4,46
-44,-5,46
-44,-5,45
-44,-5,46
-44,-5,45
-45,-4,45
-44,-4,46
-44,-4,45
-44,-4,45
-44,-4,46
-44,-4,45
-44,-4,45
-45,-4,45
-44,-4,45
-44,-4,46
-44,-5,45
-44,-4,45
-43,-4,46
-43,-5,46
-44,-5,46
-43,-5,46
-44,-5,45
-45,-4,45
-44,-4,46
-44,-5,46
-44,-5,46
-44,-5,45
-44,-4,45
-44,-4,45
-44,-4,45
-44,-5,45
-43,-5,46
-44,-5,46
-45,-6,45
-44,-5,45
-44,-4,45
-44,-4,46
-44,-4,45
-43,-5,46
-44,-5,46
-44,-5,45
-44,-5,45
-43,-4,47
-43,-5,47
-46,-6,45
-44,-6,45
-44,-5,45
-44,-3,45
-44,-4,45
-44,-4,46
-44,-5,46
-44,-6,46
-44,-5,45
-44,-5,45
-44,-5,46
-44,-4,46
-44,-5,45
-44,-5,46
-44,-4,46
-45,-5,45
-45,-5,45
-45,-5,46
-43,-6,46
-43,-5,46
-46,-4,44
-44,-4,45
-44,-4,46
-44,-5,46
-45,-5,45
-45,-5,45
-45,-5,44
-43,-4,46
-41,-4,47
-43,-4,46
-44,-4,46
-43,-5,46
-44,-5,45
-45,-6,45
-45,-6,46
-43,-4,46
-43,-3,46
-43,-3,46
-44,-6,46
-45,-7,44
-45,-6,44
-43,-4,46
-44,-4,46
-44,-4,45
-45,-4,45
-44,-4,47
-43,-4,46
-43,-4,47
-41,-4,49
-41,-4,49
-44,-4,46
-45,-4,44
-45,-3,44
-44,-4,45
-43,-4,47
-43,-5,47
-45,-5,45
-45,-6,44
-45,-5,45
-44,-4,46
-44,-4,45
-45,-4,44
-44,-4,45
-44,-5,47
-44,-5,46
-44,-6,44
-44,-5,45
-45,-5,44
-44,-4,45
-44,-5,45
-45,-5,45
-44,-5,46
-44,-5,45
-44,-4,45
-44,-5,45
-44,-5,46
-44,-5,46
-44,-5,46
-44,-5,46
-44,-5,45
-44,-3,46
-43,-4,45
-44,-4,45
-45,-5,46
-44,-5,45
-44,-5,45
-45,-6,46
-45,-6,45
-45,-5,44
-43,-4,45
-44,-2,46
-44,-4,48
-43,-3,45
-45,-3,47
-47,-6,46
-44,-5,44
-43,-3,44
-44,-3,45
-45,-6,46
-46,-6,45
-44,-4,45
-43,-4,46
-43,-2,47
-43,-4,46
-45,-4,45
-45,-4,45
-45,-4,45
-44,-4,46
-43,-4,47
-43,-4,45
-44,-3,45
-45,-4,45
-44,-5,46
-44,-5,46
-44,-5,46
-45,-5,45
-45,-5,45
-45,-5,45
-44,-6,46
-44,-5,46
-43,-5,45
-45,-4,43
-44,-4,45
-44,-5,46
-43,-4,47
-44,-3,46
-45,-3,45
-44,-3,46
-42,-4,47
-43,-4,47
-44,-4,45
-45,-4,45
-44,-4,45
-43,-3,46
-44,-3,46
-45,-4,45
-45,-4,45
-45,-4,45
-43,-5,46
-44,-5,45
-44,-4,45
-44,-5,46
-44,-4,46
-44,-4,46
-44,-4,45
-44,-5,45
-44,-5,45
-44,-5,45
-44,-4,46
-44,-4,46
-43,-3,47
-43,-3,46
-44,-3,46
-44,-4,45
-44,-4,46
-43,-4,47
-43,-3,46
-44,-3,45
-44,-3,45
-44,-3,45
-43,-4,47
-42,-5,48
-43,-3,47
-44,-1,45
-44,-2,45
-43,-3,46
-42,-4,48
-42,-4,48
-44,-3,46
-44,-2,46
-44,-3,46
-43,-4,46
-44,-4,46
-45,-4,45
-44,-5,45
-43,-4,45
-43,-4,46
-44,-4,45
-45,-4,45
-44,-4,46
-44,-4,46
-44,-3,46
-44,-4,46
-44,-4,46
-44,-4,45
-44,-4,46
-44,-4,45
-44,-3,45
-44,-4,46
-44,-4,46
-44,-4,46
-44,-4,46
-44,-4,46
-44,-4,46
-44,-4,46
-44,-4,45
-44,-4,46
-44,-4,46
-44,-4,46
-44,-4,46
-44,-4,46
-44,-4,46
-44,-3,45
-44,-4,46
-43,-4,47
-43,-4,46
-45,-3,45
-44,-4,45
-44,-4,46
-44,-4,47
-44,-4,45
-44,-3,45
-44,-3,46
-44,-4,46
-44,-4,46
-44,-3,46
-44,-4,46
-44,-3,46
-44,-4,46
-44,-3,46
-44,-4,45
-44,-4,45
-44,-4,46
-44,-4,46
-44,-3,46
-44,-3,45
-43,-3,46
-44,-4,46
-44,-3,46
-44,-3,46
-44,-4,46
-44,-4,46
-43,-3,46
-44,-3,46
-44,-4,46
-44,-4,46
-44,-3,46
-44,-4,46
-44,-4,45
-43,-4,46
-44,-4,46
-44,-4,45
-44,-4,46
-44,-4,46
-44,-4,46
-44,-4,45
-44,-4,46
-44,-4,46
-44,-4,46
-44,-4,45
-44,-4,46
-44,-4,46
-44,-4,46
-44,-4,46
-44,-4,46
-44,-4,46
-44,-4,46
-44,-4,46
-44,-4,46
-44,-4,45
-44,-4,46
-44,-4,46
-44,-4,46
-44,-4,46
-44,-4,45
-44,-4,46
-44,-4,46
-44,-4,46
-44,-4,46
-43,-4,46
-43,-4,46
-44,-4,46
-44,-5,46
-44,-5,46
-45,-4,45
-44,-4,46
-44,-5,46
-44,-5,46
-43,-3,46
-43,-3,46
-44,-3,46
-44,-4,46
-44,-4,46
-44,-5,46
-44,-4,46
-44,-4,46
-43,-4,46
-43,-4,46
-43,-4,46
-44,-5,45
-43,-4,46
-43,-4,46
-43,-3,45
-43,-6,47
-44,-6,47
-45,-4,45
-44,-3,45
-43,-3,46
-43,-4,46
-44,-4,46
-44,-5,46
-44,-5,46
-43,-4,46
-43,-4,46
-44,-4,46
-44,-4,45
-44,-4,46
-44,-4,46
-43,-4,46
-44,-4,46
-44,-4,46
-44,-4,46
-44,-4,46
-44,-4,46
-44,-5,46
-44,-4,46
-44,-5,46
-43,-3,46
-43,-4,46
-43,-4,47
-43,-4,47
-44,-4,46
-44,-4,46
-44,-4,46
-44,-4,46
-44,-4,46
-44,-4,46
-44,-5,46
-44,-5,46
-44,-5,45
-44,-5,45
-44,-4,46
-44,-4,46
-44,-4,46
-44,-5,45
-44,-5,45
-44,-5,46
-44,-5,46
-44,-5,46
-44,-4,45
-44,-4,46
-43,-5,46
-44,-4,43
-44,-4,46
-42,-5,47
-44,-5,46
-45,-5,45
-44,-4,45
-43,-4,46
-44,-5,46
-44,-5,46
-44,-5,45
-44,-5,45
-44,-5,46
-43,-4,46
-44,-4,46
-43,-4,46
-44,-5,46
-45,-5,46
-44,-5,46
-44,-5,45
-44,-5,45
-43,-4,46
-44,-4,45
-44,-4,46
-44,-5,46
-44,-5,45
-44,-5,45
-44,-5,46
-44,-4,46
-43,-4,46
-44,-4,46
-44,-5,46
-44,-5,45
-44,-4,46
-44,-5,45
-44,-5,46
-44,-5,45
-44,-4,46
-44,-4,46
-44,-4,46
-44,-5,45
-44,-5,45
-44,-5,45
-44,-5,46
-44,-5,45
-44,-4,46
-44,-4,45
-44,-5,46
-44,-5,45
-44,-5,45
-44,-5,45
-44,-5,45
-43,-4,46
-44,-4,46
-43,-5,46
-43,-5,46
-43,-5,46
-45,-6,44
-45,-3,46
-45,-4,45
-43,-3,46
-44,-3,45
-45,-4,45
-45,-4,45
-45,-4,44
-46,-4,44
-45,-3,45
-44,-4,45
-44,-4,45
-44,-3,45
-45,-4,46
-44,-4,45
-45,-4,45
-44,-4,45
-44,-4,45
-45,-4,45
-45,-4,45
-44,-4,45
-45,-4,45
-45,-4,45
-44,-4,45
-45,-5,44
-44,-4,45
-44,-4,45
-45,-4,45
-44,-4,45
-45,-4,45
-45,-4,44
-45,-4,45
-45,-4,45
-45,-4,45
-45,-4,45
-45,-4,44
-45,-4,45
-45,-3,45
-44,-4,45
-44,-4,45
-44,-4,45
-45,-4,45
-44,-4,45
-44,-4,45
-42,-4,45
-45,-4,45
-44,-4,45
-45,-4,45
-44,-4,45
-44,-4,45
-45,-4,44
-45,-4,45
-45,-5,45
-43,-4,47
-43,-4,47
-44,-5,45
-44,-4,46
-43,-4,46
-44,-5,46
-44,-4,46
-44,-4,46
-44,-5,46
-44,-5,46
-44,-3,46
-44,-5,45
-44,-5,45
-44,-3,46
-44,-4,46
-44,-4,46
-44,-5,46
-43,-5,46
-44,-4,45
-44,-4,46
-44,-4,46
-44,-4,46
-44,-4,46
-44,-3,45
-44,-5,45
-44,-5,45
-43,-3,47
-44,-3,47
-44,-4,45
-44,-4,46
-44,-5,46
-44,-5,45
-44,-4,46
-44,-3,45
-44,-3,46
-44,-4,46
-43,-4,46
-44,-4,46
-44,-3,46
-44,-4,46
-43,-4,46
-44,-5,46
-43,-3,47
-43,-4,46
-43,-4,46
-44,-4,46
-44,-4,46
-43,-4,46
-44,-4,46
-43,-5,47
-43,-4,47
-44,-3,46
-42,-3,45
-43,-5,46
-42,-5,46
-44,-5,46
-45,-5,45
-43,-5,46
-43,-4,46
-43,-4,46
-44,-4,46
-43,-4,46
-44,-4,46
-43,-4,47
-44,-4,47
-43,-5,47
-43,-3,47
-43,-4,46
-42,-4,48
-42,-5,47
-44,-5,45
-43,-5,45
-43,-4,47
-43,-4,47
-42,-4,46
-41,-4,46
-40,-3,49
-42,-3,46
-44,-3,46
-44,-4,46
-43,-4,47
-43,-4,47
-43,-4,47
-43,-4,46
-43,-4,47
-43,-4,46
-43,-4,47
-43,-4,46
-43,-4,46
-43,-4,47
-43,-4,47
-43,-4,46
-43,-4,47
-43,-4,46
-43,-4,47
-43,-4,46
-43,-4,47
-43,-4,47
-43,-4,46
-43,-4,46
-44,-4,46
-43,-4,47
-43,-4,47
-43,-4,46
-44,-4,45
-44,-5,44
-43,-4,46
-42,-3,48
-42,-2,48
-45,-3,46
-44,-3,46
-44,-3,47
-44,-4,46
-45,-5,45
-45,-4,46
-43,-4,46
-43,-4,46
-44,-3,46
-44,-4,46
-43,-4,46
-43,-3,46
-44,-4,46
-42,-3,47
-42,-3,47
-42,-4,47
-44,-4,46
-43,-4,46
-44,-5,46
-44,-7,46
-44,-6,46
-45,-5,45
-44,-3,45
-43,-3,45
-43,-4,46
-44,-4,46
-44,-5,45
-45,-4,45
-43,-4,46
-42,-5,47
-45,-4,44
-45,-4,44
-45,-3,45
-44,-4,47
-43,-5,47
-44,-5,46
-46,-4,44
-45,-4,45
-44,-5,46
-43,-4,47
-44,-3,45
-44,-4,45
-44,-5,45
-44,-5,46
-42,-5,47
-44,-4,45
-45,-4,45
-42,-4,47
-43,-4,47
-43,-5,46
-44,-4,46
-45,-5,44
-44,-4,45
-43,-4,46
-44,-5,46
-44,-4,47
-44,-4,45
-43,-3,46
-42,-3,46
-44,-4,46
-44,-4,47
-44,-6,46
-45,-6,45
-43,-5,46
-43,-4,46
-42,-4,47
-45,-5,44
-45,-6,44
-43,-4,46
-43,-5,46
-44,-5,45
-44,-5,45
-44,-4,46
-44,-5,46
-44,-4,46
-44,-4,47
-44,-4,46
-44,-4,46
-41,-7,46
-42,-7,47
-42,-4,46
-44,-5,45
-44,-5,46
-44,-4,45
-44,-5,46
-41,-7,48
-42,-4,49
-45,-3,46
-46,-2,45
-44,-2,47
-44,-4,44
-41,-4,48
-41,-5,48
-44,-4,44
-45,-2,45
-42,-3,48
-41,-3,51
-39,-3,51
-36,-1,49
-40,-1,48
-42,-2,47
-42,-5,49
-42,-5,48
-43,-4,48
-41,-3,48
-42,-3,47
-44,-3,45
-42,-5,48
-42,-4,48
-43,-4,47
-41,-3,48
-40,-4,48
-43,-4,46
-43,-3,47
-42,-3,47
-45,-3,46
-44,-4,47
-43,-4,48
-44,-4,47
-43,-4,45
-43,-4,45
-41,-4,47
-43,-5,46
-44,-5,46
-43,-5,47
-43,-4,46
-44,-3,46
-41,-4,47
-42,-5,47
-42,-5,47
-44,-5,46
-44,-4,46
-44,-3,45
-42,-3,47
-41,-3,50
-41,-5,48
-43,-5,48
-42,-4,46
-44,-3,47
-43,-3,47
-42,-5,48
-42,-6,47
-43,-6,45
-43,-5,45
-43,-5,45
-41,-5,47
-42,-6,47
-44,-6,46
-45,-7,45
-44,-6,46
-42,-5,47
-42,-5,47
-42,-5,47
-43,-5,46
-43,-5,46
-43,-5,47
-42,-5,47
-43,-5,47
-43,-5,46
-43,-5,46
-44,-5,46
-43,-4,46
-43,-5,46
-43,-5,46
-44,-5,46
-43,-5,47
-43,-4,46
-43,-4,46
-43,-4,46
-43,-4,46
-43,-4,46
-44,-5,47
-43,-5,46
-43,-5,46
-44,-5,47
-43,-6,46
-43,-4,45
-43,-4,46
-43,-5,47
-44,-5,46
-45,-5,45
-45,-5,46
-44,-6,46
-44,-5,46
-43,-4,45
-43,-4,46
-43,-5,46
-44,-5,46
-44,-5,46
-44,-5,46
-44,-6,46
-44,-5,45
-44,-4,45
-43,-4,46
-43,-5,46
-44,-5,46
-44,-6,47
-44,-6,46
-43,-4,46
-43,-4,46
-43,-4,46
-44,-5,46
-44,-5,46
-44,-5,46
-44,-5,46
-43,-5,46
-43,-5,47
-50,-7,43
-41,-6,41
-40,-4,49
-47,-4,44
-47,-5,43
-44,-6,47
-43,-5,47
-42,-4,47
-44,-5,45
-44,-6,45
-44,-6,46
-43,-5,46
-44,-5,46
-44,-5,45
-44,-5,46
-43,-5,46
-43,-5,47
-44,-6,46
-43,-5,46
-44,-5,46
-44,-5,45
-44,-4,46
-43,-5,46
-44,-5,46
-44,-5,46
-44,-5,46
-44,-5,46
-43,-5,46
-43,-5,46
-43,-5,46
-43,-5,46
-44,-5,46
-44,-5,46
-43,-5,46
-43,-5,46
-44,-5,46
-44,-5,46
-44,-5,46
-43,-5,46
-43,-5,46
-43,-5,46
-43,-5,46
-43,-5,46
-44,-5,46
-44,-5,46
-44,-5,46
-43,-5,46
-44,-5,46
-44,-5,46
-43,-5,46
-44,-5,46
-43,-5,46
-43,-5,46
-43,-5,46
-43,-5,46
-44,-5,46
-43,-5,46
-44,-5,46
-43,-5,46
-44,-5,46
-44,-5,46
-44,-5,46
-44,-5,46
-43,-5,46
-44,-5,46
-44,-5,46
-44,-5,46
-44,-5,46
-43,-5,46
-44,-5,46
-43,-5,46
-43,-5,46
-43,-5,46
-43,-5,46
-43,-5,46
-44,-5,46
-44,-5,46
-43,-5,46
-43,-5,46
-43,-5,46
-44,-5,46
-43,-5,46
-44,-5,45
-44,-4,46
-44,-5,46
-43,-6,46
-44,-5,45
-45,-4,44
-44,-3,45
-43,-4,46
-43,-6,46
-44,-6,46
-45,-4,45
-45,-4,45
-44,-4,46
-43,-5,46
-44,-5,46
-44,-5,45
-45,-4,44
-45,-5,44
-44,-6,46
-43,-5,46
-44,-5,45
-45,-3,45
-44,-4,46
-44,-4,47
-43,-5,48
-43,-5,47
-45,-5,45
-43,-6,45
-43,-5,45
-42,-5,46
-43,-5,47
-43,-5,47
-43,-4,48
-41,-3,49
-41,-3,48
-43,-3,47
-43,-4,47
-43,-4,47
-44,-4,46
-44,-4,46
-42,-5,46
-43,-5,46
-43,-4,46
-44,-4,46
-43,-4,46
-44,-4,46
-45,-5,45
-44,-4,46
-43,-4,46
-44,-4,46
-44,-4,46
-44,-4,46
-44,-4,46
-44,-4,46
-43,-4,47
-43,-4,47
-43,-4,47
-44,-3,46
-43,-4,46
-43,-4,46
-43,-4,47
-43,-4,47
-43,-4,46
-44,-5,46
-44,-5,45
-43,-4,46
-44,-4,46
-43,-5,46
-44,-4,46
-44,-5,45
-45,-4,45
-44,-5,45
-44,-5,45
-44,-5,46
-44,-4,45
-44,-4,45
-44,-4,46
-44,-5,46
-44,-5,46
-44,-5,46
-44,-5,45
-44,-4,46
-44,-4,46
-44,-4,45
-44,-4,46
-43,-5,46
-44,-5,46
-44,-5,46
-43,-5,46
-44,-4,45
-43,-4,45
-45,-3,45
-43,-4,47
-43,-4,47
-46,-4,45
-45,-4,46
-42,-4,47
-43,-4,46
-44,-4,46
-44,-5,45
-44,-6,45
-44,-6,45
-45,-5,45
-44,-5,45
-43,-5,46
-44,-4,46
-44,-5,46
-45,-4,46
-44,-5,45
-44,-5,45
-44,-6,44
-44,-5,45
-45,-5,46
-45,-4,45
-45,-4,45
-45,-5,45
-43,-4,48
-41,-4,48
-42,-4,47
-43,-3,47
-42,-3,47
-43,-3,47
-42,-4,46
-44,-5,45
-43,-5,46
-42,-4,47
-42,-4,48
-43,-3,47
-43,-3,47
-43,-4,47
-44,-3,46
-43,-3,47
-43,-2,46
-43,-3,46
-43,-3,47
-43,-3,47
-46,-4,45
-44,-4,45
-44,-3,45
-45,-4,45
-44,-4,46
-43,-4,46
-44,-4,45
-45,-4,45
-44,-4,45
-44,-4,45
-44,-4,46
-44,-3,46
-44,-4,45
-44,-4,46
-44,-4,45
-44,-4,45
-44,-4,46
-44,-4,46
-44,-4,45
-44,-4,45
-44,-5,45
-44,-5,46
-43,-5,46
-44,-4,46
-44,-4,45
-44,-4,46
-42,-4,46
-43,-5,46
-44,-4,46
-44,-5,46
-43,-5,47
-43,-3,46
-42,-4,46
-42,-4,47
-43,-4,47
-43,-4,46
-41,-4,48
-42,-4,48
-43,-3,46
-42,-2,46
-42,-3,47
-43,-5,48
-44,-5,47
-43,-5,46
-43,-4,46
-42,-5,48
-42,-5,47
-43,-3,46
-44,-3,45
-44,-3,46
-44,-5,46
-44,-5,46
-44,-5,46
-44,-4,46
-43,-4,46
-43,-5,46
-43,-5,46
-44,-4,46
-44,-4,45
-44,-4,46
-44,-5,46
-44,-5,46
-44,-5,46
-43,-4,47
-42,-4,47
-43,-4,46
-43,-4,46
-44,-5,46
-44,-5,46
-44,-4,46
-43,-5,47
-43,-4,47
-43,-4,46
-43,-4,46
-44,-5,45
-44,-4,46
-43,-4,47
-43,-4,47
-43,-4,47
-43,-4,46
-43,-3,46
-43,-4,46
-44,-5,46
-43,-6,46
-44,-5,46
-44,-5,45
-44,-4,46
-44,-4,46
-43,-4,46
-44,-4,46
-44,-4,46
-44,-5,46
-43,-4,46
-43,-5,46
-43,-5,46
-43,-4,46
-43,-4,46
-43,-5,46
-44,-4,46
-44,-4,47
-43,-4,46
-43,-4,46
-43,-4,47
-43,-4,46
-43,-5,46
-44,-5,46
-44,-5,46
-43,-5,45
-44,-5,46
-44,-5,45
-44,-4,46
-44,-3,47
-42,-3,48
-43,-3,48
-44,-3,47
-43,-3,46
-43,-3,47
-42,-4,47
-43,-4,46
-43,-5,46
-43,-4,47
-42,-4,47
-42,-4,47
-43,-4,47
-42,-3,47
-40,-4,49
-41,-4,49
-45,-4,44
-43,-5,45
-42,-4,47
-42,-5,48
-43,-5,48
-44,-3,46
-41,-2,49
-40,-2,50
-41,-2,50
-44,-2,46
-43,-3,45
-43,-6,45
-44,-9,44
-44,-7,45
-43,-5,48
-45,-2,46
-44,-2,45
-42,-3,46
-41,-4,49
-42,-5,47
-45,-5,46
-44,-4,45
-43,-4,46
-42,-4,47
-44,-4,46
-45,-5,45
-43,-5,46
-43,-5,47
-43,-4,46
-44,-4,46
-44,-5,46
-44,-5,46
-43,-5,47
-43,-5,45
-44,-4,45
-44,-4,46
-44,-5,46
-44,-5,47
-43,-5,47
-43,-5,46
-43,-4,46
-43,-5,46
-43,-5,46
-43,-5,46
-43,-5,46
-44,-5,46
-43,-5,46
-42,-4,47
-43,-5,46
-43,-5,45
-44,-4,46
-44,-4,45
-44,-5,45
-41,-4,47
-41,-3,48
-44,-4,46
-45,-5,45
-44,-5,47
-44,-4,47
-45,-4,46
-44,-4,45
-45,-4,45
-45,-4,44
-43,-4,46
-43,-4,46
-42,-4,48
-41,-4,48
-42,-4,48
-42,-3,47
-42,-4,47
-41,-4,48
-42,-3,47
-43,-4,47
-42,-4,48
-42,-4,48
-43,-3,47
-43,-3,47
-43,-3,47
-42,-3,47
-43,-3,47
-43,-4,47
-43,-4,47
-43,-4,47
-42,-4,47
-43,-4,47
-43,-4,46
-42,-4,47
-42,-4,47
-42,-4,47
-43,-4,47
-42,-4,47
-43,-4,46
-43,-4,47
-43,-4,47
-43,-3,46
-43,-4,46
-43,-4,46
-43,-4,46
-43,-4,47
-43,-4,47
-43,-4,47
-43,-4,47
-43,-4,47
-42,-4,47
-43,-4,47
-43,-4,46
-43,-4,47
-42,-5,47
-43,-4,47
-43,-4,47
-43,-4,46
-44,-4,45
-44,-5,46
-43,-5,46
-42,-4,47
-43,-3,47
-43,-3,46
-44,-4,46
-44,-5,46
-44,-5,46
-44,-4,46
-43,-4,46
-44,-4,46
-43,-4,46
-44,-4,45
-44,-4,46
-44,-4,45
-44,-4,46
-44,-4,46
-43,-4,46
-43,-4,46
-44,-4,46
-44,-4,46
-44,-4,46
-43,-4,46
-43,-3,47
-43,-4,47
-43,-4,47
-43,-4,47
-43,-5,46
-44,-5,45
-44,-5,46
-43,-5,46
-44,-5,46
-43,-4,46
-43,-4,46
-43,-4,46
-43,-4,47
-43,-4,47
-43,-4,46
-43,-4,46
-43,-5,47
-43,-5,46
-43,-5,46
-44,-5,46
-44,-4,46
-42,-4,47
-43,-4,46
-43,-4,46
-43,-4,46
-43,-4,46
-43,-4,47
-43,-4,47
-43,-4,47
-43,-4,47
-43,-4,47
-43,-4,46
-43,-4,46
-43,-4,47
-44,-4,46
-43,-4,46
-44,-4,46
-44,-4,46
-43,-4,46
-43,-4,46
-44,-4,46
-43,-5,46
-44,-5,46
-44,-5,46
-43,-4,46
-43,-4,46
-44,-4,46
-44,-5,46
-44,-4,46
-44,-5,46
-44,-5,46
-44,-5,46
-43,-5,46
-43,-5,46
-44,-4,46
-44,-4,46
-43,-5,46
-43,-4,46
-43,-4,46
-43,-4,46
-43,-4,46
-43,-4,46
-43,-4,46
-43,-4,46
-44,-4,46
-43,-4,46
-43,-5,46
-44,-5,46
-43,-4,47
-43,-4,46
-43,-4,47
-43,-4,47
-43,-3,47
-43,-4,47
-43,-4,47
-42,-3,48
-43,-4,47
-43,-3,47
-43,-4,48
-43,-5,47
-42,-7,47
-44,-6,44
-44,-5,45
-42,-4,46
-42,-4,47
-42,-4,48
-43,-4,47
-43,-5,47
-43,-5,46
-43,-4,47
-42,-4,48
-42,-5,47
-42,-5,47
-42,-5,47
-42,-4,47
-41,-4,48
-41,-4,48
-41,-4,48
-41,-3,49
-43,-4,48
-42,-5,47
-42,-4,47
-43,-4,47
-42,-4,48
-42,-4,48
-41,-4,48
-43,-4,46
-44,-4,46
-44,-4,46
-43,-5,46
-43,-5,46
-43,-5,46
-43,-5,46
-43,-5,46
-43,-5,46
-43,-5,46
-44,-5,46
-43,-5,46
-43,-5,46
-44,-5,46
-43,-5,46
-43,-5,46
-43,-5,46
-43,-5,46
-44,-5,46
-43,-5,46
-44,-5,46
-43,-4,46
-43,-5,46
-43,-5,46
-44,-4,45
-44,-4,46
-43,-4,47
-43,-4,46
-44,-4,46
-43,-4,46
-43,-5,47
-43,-4,47
-43,-5,47
-43,-5,46
-44,-5,45
-43,-5,46
-43,-5,46
-43,-5,46
-43,-5,47
-44,-5,46
-43,-5,46
-43,-5,46
-44,-4,46
-43,-4,46
-43,-4,46
-43,-5,46
-43,-5,46
-43,-4,47
-43,-5,47
-43,-5,46
-44,-5,46
-44,-4,46
-44,-4,45
-44,-4,45
-44,-5,46
-44,-5,46
-44,-5,46
-43,-5,46
-44,-5,46
-44,-5,45
-44,-5,46
-43,-5,46
-44,-5,46
-44,-4,46
-44,-4,46
-43,-5,46
-44,-5,45
-44,-5,45
-44,-5,45
-44,-4,45
-44,-4,46
-43,-4,46
-43,-5,46
-42,-5,48
-41,-3,48
-44,-3,46
-45,-3,45
-43,-4,47
-40,-4,49
-40,-3,50
-43,-4,46
-44,-3,46
-44,-3,46
-41,-3,48
-40,-3,49
-41,-3,48
-45,-4,45
-46,-6,42
-46,-5,43
-47,-5,43
-43,-3,46
-44,-3,45
-42,-1,48
-40,-2,49
-41,-3,48
-45,-3,45
-45,-3,45
-45,-3,45
-45,-4,44
-44,-4,45
-44,-3,46
-45,-3,45
-45,-4,44
-45,-4,45
-45,-4,45
-45,-4,44
-45,-4,45
-45,-4,45
-45,-4,45
-44,-3,46
-44,-3,45
-45,-4,46
-45,-4,45
-45,-3,45
-45,-3,45
-45,-4,45
-44,-4,45
-45,-4,45
-45,-5,45
-45,-5,45
-45,-4,44
-45,-4,44
-44,-4,46
-44,-4,45
-45,-4,45
-45,-5,45
-44,-5,45
-45,-4,45
-45,-4,45
-44,-4,45
-44,-4,46
-44,-4,46
-44,-4,46
-44,-4,46
-44,-4,46
-44,-4,46
-44,-3,46
-43,-4,46
-44,-4,47
-43,-4,46
-44,-4,45
-44,-3,46
-44,-4,46
-43,-3,46
-43,-4,47
-44,-4,46
-43,-4,47
-43,-3,47
-44,-3,46
-43,-3,46
-43,-4,46
-44,-4,46
-44,-4,46
-43,-4,47
-43,-3,47
-43,-4,46
-44,-3,46
-43,-3,47
-44,-3,46
-44,-3,46
-44,-4,46
-44,-3,45
-44,-4,45
-44,-4,45
-44,-4,45
-44,-4,45
-44,-4,45
-45,-4,45
-44,-4,45
-44,-4,45
-45,-5,45
-44,-4,45
-45,-3,45
-44,-4,45
-44,-4,45
-45,-4,45
-45,-4,45
-45,-4,45
-45,-4,45
-45,-4,45
-44,-4,45
-44,-4,45
-44,-4,45
-44,-4,45
-44,-4,45
-44,-4,45
-45,-4,45
-44,-4,46
-44,-4,46
-44,-4,45
-44,-4,46
-44,-3,45
-44,-3,46
-44,-3,46
-44,-3,46
-44,-4,46
-44,-4,46
-44,-4,46
-43,-4,46
-44,-4,46
-44,-3,46
-44,-4,46
-44,-4,46
-43,-4,46
-43,-4,46
-44,-4,46
-44,-4,46
-43,-4,46
-44,-4,46
-43,-4,46
-43,-4,46
-44,-4,46
-44,-5,47
-43,-3,47
-44,-2,45
-44,-2,45
-43,-3,47
-45,-4,46
-45,-4,45
-44,-4,46
-45,-3,45
-44,-4,46
-42,-4,47
-45,-3,45
-46,-2,44
-41,-4,48
-40,-3,49
-42,-3,48
-45,-3,45
-45,-4,45
-44,-6,44
-44,-5,45
-44,-5,45
-44,-4,45
-44,-4,46
-43,-4,47
-42,-3,48
-43,-4,46
-46,-4,46
-45,-5,44
-42,-6,46
-42,-7,46
-44,-4,45
-44,-5,45
-44,-5,46
-44,-5,46
-44,-4,46
-45,-4,46
-44,-5,46
-44,-5,45
-44,-5,46
-43,-5,46
-44,-5,46
-44,-6,45
-44,-5,46
-44,-3,45
-45,-4,45
-45,-6,44
-44,-5,46
-45,-4,45
-43,-3,47
-43,-3,46
-40,-3,48
-42,-4,47
-47,-4,43
-46,-4,44
-44,-4,46
-44,-3,46
-44,-2,46
-43,-2,47
-41,-3,48
-41,-2,49
