1562805508.000000, 1562805508.000000, 1562805508.000000
32.000000, 32.000000, 32.000000
19,-1,59
20,-1,59
19,-1,59
19,-1,59
20,-1,59
20,-1,59
19,-1,59
19,-1,59
20,-1,59
20,-1,59
19,-1,59
19,-1,59
20,-1,59
19,-1,59
19,-1,59
20,-1,59
20,-1,59
20,-1,59
19,-1,59
20,-1,59
20,-1,59
19,-1,59
19,-1,59
20,-1,60
20,-1,59
19,-1,59
20,-1,59
19,-1,59
20,-1,59
19,-1,59
20,-1,59
19,-1,59
19,-1,59
20,-1,59
19,-1,59
19,-1,59
21,-1,60
21,-1,59
19,-1,59
18,4,61
21,0,60
21,-1,60
22,-10,59
16,0,60
15,2,61
10,3,60
13,-1,61
17,-2,61
19,-1,61
14,-2,60
14,-2,60
11,-3,59
15,1,60
17,-2,60
14,2,61
16,-3,61
16,-3,61
11,-2,60
13,-3,62
15,-4,61
20,-2,61
15,-2,61
13,-2,61
13,-2,61
16,-3,61
17,-3,61
15,-2,60
12,-2,61
13,-2,61
16,-3,61
17,-2,61
13,-2,61
12,-2,61
13,-2,61
16,-2,61
13,-1,61
13,-2,61
15,-2,61
15,-2,61
16,-2,61
15,-2,61
14,-2,60
14,-2,61
15,-2,61
15,-2,61
14,-2,61
14,-2,61
16,-2,61
16,-2,61
14,-2,61
14,-2,61
15,-2,61
15,-2,61
14,-2,61
15,-2,61
15,-2,61
15,-2,61
15,-2,61
15,-2,61
15,-2,61
15,-2,61
15,-2,61
14,-2,61
15,-2,61
15,-2,61
15,-2,61
15,-2,61
15,-2,61
14,-2,61
14,-2,61
15,-2,61
15,-2,61
15,-2,61
14,-2,61
15,-2,61
15,-2,61
15,-2,60
16,-2,61
15,-2,61
15,-2,61
15,-2,61
15,-2,61
15,-2,61
15,-2,61
14,-2,61
14,-2,61
16,-2,61
16,-3,60
13,-1,61
14,-2,61
17,-3,61
14,-2,61
13,-3,60
14,-3,61
15,-3,61
15,-3,60
14,-2,61
15,-3,61
16,-3,61
15,-2,61
17,-2,60
16,-2,61
15,-2,60
18,-3,60
17,-2,60
15,-1,60
19,0,61
18,-5,60
15,-1,60
16,0,60
18,-1,61
18,-1,60
17,-1,60
14,-2,60
16,-1,60
22,-1,60
20,-1,60
13,-1,60
17,-1,60
17,0,60
17,-1,61
17,-1,60
18,0,60
17,0,60
15,-1,60
16,-1,60
18,-1,60
15,-1,60
14,-1,60
18,-1,60
16,-1,60
16,-1,60
17,-1,60
17,-1,60
17,-1,60
17,-1,60
17,-1,60
17,-1,60
16,-1,60
17,-1,60
18,-1,60
18,-1,60
17,-1,60
17,-1,60
16,-1,60
17,-1,60
18,-1,60
17,-1,60
16,-1,60
17,-1,60
18,-1,60
17,-1,60
16,-1,60
17,-1,60
19,-1,60
15,0,60
15,-1,59
18,-1,59
22,0,60
18,0,55
25,-1,56
32,-3,54
33,-2,52
40,-4,50
40,-3,51
38,-3,50
39,-3,49
39,-3,50
35,-3,49
38,-4,49
37,-3,49
40,-4,48
40,-4,49
39,-4,49
39,-4,49
38,-4,49
38,-3,49
38,-4,49
38,-4,49
38,-3,49
37,-3,49
36,-3,49
37,-4,49
38,-4,49
38,-3,49
37,-3,49
37,-4,50
38,-4,49
39,-3,49
38,-4,49
38,-5,49
38,-4,49
38,-3,49
38,-4,49
39,-4,49
36,-3,50
36,-3,50
35,-2,50
37,-3,50
38,-3,50
37,-3,50
35,-3,50
37,-4,50
37,-3,50
37,-3,50
38,-2,50
38,-3,50
38,-4,49
37,-3,50
37,-4,49
37,-4,50
36,-2,50
39,-3,49
39,-4,49
37,-3,49
37,-3,49
38,-3,49
38,-2,50
37,-3,49
37,-3,49
38,-2,49
39,-3,49
38,-3,49
36,-3,49
37,-2,50
38,-3,49
40,-2,49
39,-3,49
38,-3,49
37,-3,49
38,-3,49
38,-3,49
36,-2,50
37,-3,49
38,-2,49
38,-3,49
37,-3,49
38,-3,49
38,-3,49
37,-3,49
38,-3,49
38,-2,49
38,-3,49
37,-3,49
37,-3,50
37,-3,49
37,-3,50
37,-3,50
37,-3,50
37,-3,50
38,-2,50
37,-3,50
37,-3,50
37,-3,50
36,-2,50
38,-3,49
37,-3,50
36,-2,50
38,-2,50
37,-2,50
38,-3,49
37,-3,50
38,-4,49
37,-3,49
36,-1,51
35,-6,49
36,-3,48
39,0,50
39,-3,48
41,-3,45
40,-2,49
33,0,49
31,0,48
43,-4,47
38,-1,48
36,-1,51
36,-1,50
32,-4,35
45,-2,49
44,-3,49
34,-3,50
32,-3,51
29,-3,50
37,-2,51
38,-2,50
39,-2,49
37,-2,49
37,-2,50
38,-2,50
37,-1,50
37,-1,50
38,-1,50
37,-1,49
37,-1,50
37,-1,50
36,-1,50
36,-1,50
36,-2,50
35,-2,50
36,-1,50
37,-1,50
37,-1,50
36,-2,50
37,-2,50
36,-1,51
35,-1,50
36,-1,51
37,-1,50
37,-1,50
37,-2,50
37,-2,50
35,-1,50
37,-1,50
37,-1,50
37,-1,50
36,-1,51
36,-1,50
37,-2,50
36,-1,50
36,-1,50
37,-2,51
36,-1,50
36,-1,51
36,-2,51
36,-1,51
36,-1,51
36,-1,51
36,-1,51
36,-1,51
36,-1,51
34,-2,51
35,-1,51
36,-1,51
36,-2,51
36,-2,51
35,-1,51
35,-2,51
35,-2,51
36,-2,51
36,-2,51
36,-2,51
35,-2,51
36,-2,51
35,-2,51
36,-2,51
37,-2,51
36,-2,51
36,-2,51
36,-1,51
35,-1,51
36,-2,51
37,-1,51
35,-2,51
35,-1,51
36,-1,51
35,-2,51
36,-1,51
36,-2,51
35,-2,51
36,-2,51
35,-2,51
35,-2,51
36,-2,51
36,-1,51
35,-2,51
35,-1,51
36,-2,51
36,-2,51
34,-2,51
35,-2,51
36,-2,51
35,-1,51
34,-2,51
35,-2,51
35,-2,51
36,-2,51
35,-2,52
35,-2,51
34,-2,51
35,-2,52
34,-2,52
34,-2,52
34,-2,52
34,-2,52
34,-2,52
34,-2,52
34,-2,52
34,-2,52
34,-2,52
34,-2,52
35,-2,52
32,-1,52
33,-1,52
35,-1,52
34,-2,52
33,-1,52
32,-1,53
32,-2,53
34,-2,52
35,-1,53
32,-2,52
33,-1,52
34,-1,52
33,-1,52
33,-1,52
34,-1,52
33,-1,53
33,-1,52
33,-1,52
34,-1,52
33,-1,52
33,-1,53
33,-2,52
35,-1,52
35,-1,52
31,-1,53
35,-2,53
37,-2,52
34,-2,53
30,-1,53
32,-1,53
33,-2,53
33,-2,53
32,-2,52
32,-1,52
34,-2,52
34,-2,52
35,-2,52
35,-1,52
32,-2,52
34,-2,52
34,-2,53
31,-1,53
33,-2,52
33,-3,52
38,-3,52
33,-3,53
32,-3,53
31,-4,53
29,-4,53
30,-3,54
30,-3,54
31,-3,53
31,-3,54
31,-2,54
30,-2,54
30,-2,54
31,-1,54
31,-1,54
30,-1,54
28,-1,55
30,-1,55
32,-1,55
29,-1,55
27,0,55
28,-1,55
31,-1,55
30,0,55
30,0,55
26,0,55
30,-1,55
31,-1,55
28,0,55
27,0,55
29,-1,55
30,-1,55
27,0,55
27,0,55
28,-1,55
27,0,56
26,0,55
28,-1,56
29,-1,56
28,-1,55
29,-2,55
30,-1,55
29,-1,55
28,-1,55
25,-1,56
26,-1,55
30,-1,55
32,-2,55
27,-4,55
25,-1,56
27,-3,55
28,-3,55
30,-2,55
30,-3,55
27,-1,55
28,-2,56
30,-1,56
29,-1,55
25,-2,56
26,-2,56
29,-2,56
28,-3,55
27,-2,56
27,-2,56
27,-2,56
27,-2,56
26,-2,56
26,-2,56
26,-2,56
27,-2,56
26,-1,56
27,-2,56
27,-2,56
26,-2,56
26,-2,56
27,-1,56
27,-1,56
26,-1,56
27,-1,56
28,-1,56
27,-5,55
26,-2,56
25,0,57
27,-1,56
27,0,57
27,-1,56
27,-1,56
28,-1,56
26,-1,56
26,-2,56
28,-1,56
28,-1,56
27,-2,56
28,-2,56
28,-2,56
28,-1,56
27,-2,56
29,-2,56
28,-2,56
26,-1,56
28,-2,56
28,-2,56
26,-1,56
26,-1,55
31,-1,55
31,-2,55
29,-1,55
29,-1,55
28,-1,56
25,0,56
30,-1,55
30,-1,55
30,-2,55
27,0,56
27,0,56
25,0,56
28,0,56
25,-1,56
25,0,56
26,0,56
25,0,55
31,-1,58
25,-2,54
29,-1,58
26,2,59
26,1,56
24,2,56
25,1,57
28,0,56
27,1,56
27,0,56
29,0,56
26,0,57
27,0,56
29,0,57
25,-3,54
26,2,57
13,2,57
13,0,56
22,1,61
22,-1,58
22,0,58
23,1,58
26,1,58
25,1,59
24,1,58
22,1,58
23,0,59
22,-1,59
21,-1,59
17,-1,58
17,1,59
17,0,60
19,0,60
19,0,60
17,3,60
17,-1,59
21,-1,60
18,1,60
17,0,59
19,1,59
24,-1,60
23,-1,60
15,1,59
16,0,59
20,-1,60
21,0,60
19,1,60
18,0,60
18,-1,62
13,0,59
14,3,59
24,-1,60
23,0,59
21,-1,59
21,-1,59
20,-1,59
21,-1,59
21,-1,60
16,0,59
17,-1,58
23,-2,59
20,-1,59
21,-1,58
22,-1,59
22,-1,59
22,-2,59
21,-1,59
20,-1,60
19,-1,60
19,0,60
17,-1,60
18,-1,60
17,-1,60
14,-1,60
16,-1,60
17,-1,61
12,0,58
15,-1,60
18,-1,60
20,-1,61
19,-1,60
16,-1,60
16,-1,60
16,-1,60
17,-1,60
17,-1,60
17,-1,60
15,-1,60
15,-1,60
14,-1,60
14,-1,60
15,-1,60
19,-1,60
17,-1,60
17,-1,60
18,-1,60
18,-1,60
16,-1,60
17,0,60
18,-1,60
18,-1,60
18,0,60
17,0,60
16,0,60
18,-1,60
19,0,61
18,-1,60
16,-1,60
20,-1,61
13,-2,59
7,-1,60
18,-2,60
21,-2,60
13,-1,59
19,0,59
22,-1,59
24,-1,58
28,0,59
29,0,59
21,1,58
22,-1,58
22,-1,57
21,0,58
25,1,58
25,0,58
23,0,58
20,1,59
21,1,59
21,0,59
24,0,59
25,0,60
19,0,59
17,1,60
16,2,60
17,-1,59
18,3,59
19,-2,59
18,0,59
17,-5,58
19,7,62
18,1,60
18,-2,61
14,-3,59
15,-7,59
23,2,60
26,-2,60
15,1,60
11,1,60
17,-1,60
20,0,60
16,0,60
16,0,60
17,0,60
17,0,59
16,-1,59
11,0,60
15,-1,61
16,0,61
16,0,61
15,0,61
14,0,61
14,0,61
15,0,61
13,0,60
14,0,60
16,-1,61
16,0,61
14,0,61
14,0,61
15,0,61
15,-1,60
15,0,61
14,0,61
14,0,61
14,0,61
14,0,61
13,0,61
14,0,61
15,0,61
15,0,61
13,-1,61
12,-1,61
14,0,61
14,0,61
14,0,61
14,0,61
13,0,61
13,0,61
12,0,61
13,0,61
13,0,61
13,0,61
12,0,61
13,0,61
13,0,61
14,0,61
13,0,61
12,0,61
12,0,61
14,0,61
12,0,61
12,0,61
13,0,61
12,0,61
12,0,61
12,0,61
14,0,62
13,0,61
12,0,61
12,0,61
12,0,61
12,0,61
12,0,62
13,-1,61
14,0,61
12,1,62
13,0,61
15,0,61
14,0,61
11,0,61
13,0,61
13,0,61
12,0,61
13,0,61
13,0,61
13,0,61
13,0,61
12,0,61
13,0,61
13,0,61
12,0,61
12,0,61
13,0,61
13,0,61
12,0,61
13,0,61
12,0,61
12,0,62
12,0,61
12,0,61
13,0,61
13,0,61
13,0,61
13,0,61
14,0,61
13,0,61
13,0,61
12,0,61
12,0,61
14,0,62
12,0,61
11,0,62
12,0,61
11,0,61
11,0,61
11,0,61
11,0,61
11,0,61
13,0,62
13,1,62
13,0,62
12,0,61
9,0,61
9,0,61
10,0,62
9,0,62
9,0,61
12,1,62
12,-2,62
11,0,62
11,1,62
12,0,61
12,0,62
12,0,61
11,0,61
12,0,62
11,0,62
11,0,62
11,0,62
11,0,62
11,0,62
12,0,62
11,0,62
11,0,62
12,1,62
9,0,61
9,0,62
11,0,62
11,0,61
11,0,62
11,0,62
12,0,62
12,0,62
11,0,62
10,0,61
12,0,62
12,0,61
11,-1,61
13,2,62
12,0,62
9,0,61
10,1,61
13,0,62
14,2,62
13,-2,61
12,1,61
15,1,62
13,0,62
6,0,60
13,1,62
15,0,62
11,1,61
11,0,62
13,0,62
11,0,62
9,0,62
10,0,62
11,0,62
11,0,62
10,0,61
10,0,62
12,0,62
12,0,62
11,0,62
13,0,62
11,0,61
10,0,62
11,0,62
11,0,61
10,0,61
11,0,62
12,0,62
10,0,62
9,0,62
9,1,62
9,0,62
10,0,62
11,0,62
11,0,62
10,0,62
10,0,62
12,0,62
12,0,62
10,0,61
10,0,62
10,0,62
10,0,62
11,0,62
11,0,62
11,0,62
10,0,62
10,0,62
11,0,62
10,0,62
10,0,62
11,0,62
10,0,62
10,0,62
10,0,62
11,0,62
11,0,62
11,0,62
10,0,62
10,0,62
10,0,62
10,0,62
11,0,62
11,0,62
10,0,62
10,0,61
10,0,62
10,0,61
10,0,62
10,0,62
10,0,62
11,0,62
10,0,61
10,0,62
10,0,62
10,0,62
11,0,62
10,0,61
11,0,62
11,0,62
10,0,62
10,0,62
10,0,62
10,0,62
10,0,62
10,0,62
10,0,62
11,0,62
11,0,62
10,0,62
10,0,62
10,0,62
10,0,62
11,0,62
10,0,62
10,0,62
10,0,62
10,0,62
10,0,62
10,0,62
11,0,62
10,0,62
10,0,61
10,0,62
11,0,62
11,0,62
10,0,62
10,0,62
10,0,62
10,0,61
10,0,62
10,0,62
10,0,62
10,0,62
10,0,62
10,0,62
10,0,62
10,0,62
10,0,62
10,0,62
10,0,62
10,0,62
10,0,62
10,0,62
10,0,62
10,0,62
10,0,62
10,0,62
10,0,62
10,0,62
10,0,62
9,0,62
11,0,62
10,0,62
10,0,62
10,0,62
10,0,62
10,0,62
10,0,62
10,0,62
10,0,62
10,0,62
10,0,62
10,0,62
10,0,62
10,0,62
10,0,62
10,0,62
10,0,62
10,0,62
10,0,62
10,0,62
10,0,62
10,0,61
10,0,62
10,0,62
10,0,62
10,0,62
10,0,62
10,0,62
10,0,62
10,0,62
10,0,62
10,0,62
10,0,62
10,0,62
10,0,62
10,0,62
10,0,62
10,0,62
10,0,62
11,0,62
10,0,62
10,0,62
11,0,62
10,0,62
10,0,62
11,0,62
10,0,62
10,0,62
11,0,62
9,0,62
10,0,62
11,0,62
10,0,62
10,0,62
10,0,62
11,0,62
10,0,62
9,0,62
11,0,62
11,0,62
9,0,62
11,0,62
10,0,62
9,0,62
10,0,62
10,0,62
10,0,62
10,0,62
10,0,62
10,0,62
10,0,62
10,0,62
10,0,62
10,0,62
10,0,62
10,0,62
10,0,62
10,0,62
10,0,62
9,0,62
10,0,62
10,0,62
10,0,62
10,0,62
10,0,62
9,0,62
10,0,62
10,0,62
10,0,62
10,0,62
10,0,62
10,0,62
9,0,62
10,0,62
10,0,62
10,0,62
10,0,62
9,0,62
10,0,62
10,0,62
10,0,62
10,0,62
9,0,62
10,0,62
11,0,62
9,0,62
10,0,62
10,0,62
9,0,62
10,0,62
10,0,62
9,0,62
10,0,62
10,0,62
9,0,62
10,0,62
10,0,62
10,0,62
10,0,62
10,0,62
10,0,62
10,0,62
10,0,62
10,0,62
10,0,62
10,0,62
10,0,62
10,0,62
10,0,62
10,0,62
10,0,62
10,0,62
10,0,62
10,0,62
10,0,62
10,0,62
10,0,62
10,0,62
10,0,62
11,0,62
10,0,62
10,0,62
10,0,62
9,0,62
10,0,62
10,0,62
9,0,62
10,0,62
10,0,62
10,0,62
10,0,62
10,0,62
10,0,62
9,0,62
9,0,62
10,0,62
10,0,62
9,0,61
10,0,62
9,0,62
9,0,62
10,0,62
11,0,62
10,0,62
9,0,62
10,0,62
10,0,62
11,0,62
9,2,62
8,-1,61
10,0,62
9,0,62
4,0,61
13,-1,62
14,0,62
8,0,62
11,0,62
12,0,62
9,0,62
10,0,62
12,0,62
10,0,62
10,0,62
10,0,62
9,0,62
9,0,62
9,0,62
10,0,62
10,0,62
11,0,62
10,0,62
10,0,62
10,0,62
11,0,62
10,0,62
10,0,62
11,0,62
9,0,62
9,0,62
10,0,62
10,0,62
11,0,62
10,0,62
10,0,62
10,0,62
11,0,62
10,0,62
10,0,62
10,0,62
9,0,62
10,0,62
10,0,62
9,0,62
9,0,62
10,0,62
9,0,62
10,0,62
10,0,62
10,0,62
10,0,62
9,0,62
10,0,62
10,0,62
9,0,62
10,0,62
10,0,62
9,0,62
10,0,62
9,0,62
9,0,62
9,0,62
10,0,62
9,0,62
10,0,62
9,0,62
9,0,62
9,0,62
9,0,62
9,0,62
9,0,62
9,0,62
8,0,62
9,0,62
9,0,62
9,0,62
9,0,62
9,0,62
9,0,62
9,0,62
10,0,62
9,0,62
9,0,62
9,0,62
9,0,62
8,0,62
9,0,62
9,0,62
9,0,62
9,0,62
9,0,62
9,0,62
9,0,62
9,0,62
9,0,62
9,0,62
9,0,62
10,0,62
9,0,62
9,0,62
9,0,62
9,0,62
9,0,62
9,0,62
9,0,62
9,0,62
9,0,62
9,0,62
9,0,62
9,0,62
9,0,62
9,0,62
9,0,62
10,0,62
9,0,62
10,0,62
10,0,62
9,0,62
9,0,62
9,0,62
9,0,62
9,0,62
9,0,62
10,0,62
9,0,62
10,0,62
9,0,62
9,0,62
9,0,62
9,0,62
9,0,62
9,0,62
9,0,62
9,0,62
9,0,62
9,0,62
9,0,62
9,0,62
9,0,62
9,0,62
9,0,62
9,0,62
9,0,62
9,0,62
9,0,62
9,0,62
9,0,62
9,0,62
9,0,62
9,0,62
9,0,62
9,0,62
9,0,62
9,0,62
9,0,62
9,0,62
9,0,62
9,0,62
9,0,62
9,0,62
9,0,62
10,0,62
9,0,62
9,0,62
10,0,62
9,0,62
9,0,62
9,0,62
9,0,62
9,0,62
9,0,62
9,0,62
9,0,62
9,0,62
9,0,62
9,0,62
9,0,62
9,0,62
9,0,62
9,0,62
9,0,62
9,0,62
9,0,62
9,0,62
9,0,62
9,0,62
9,0,62
9,0,62
9,0,62
9,0,62
9,0,62
9,0,62
9,0,62
9,0,62
9,0,62
8,0,62
9,0,62
9,0,62
8,0,62
9,0,62
9,0,62
9,0,62
9,0,62
9,0,62
9,0,62
9,0,62
9,0,62
8,0,62
10,0,62
11,0,62
7,1,62
10,0,63
10,0,62
7,0,62
9,0,62
9,0,62
8,0,62
9,0,62
9,0,62
8,0,62
9,0,62
9,0,62
8,0,62
8,0,62
8,0,62
8,0,62
8,0,62
9,0,62
9,0,62
9,0,62
9,0,63
9,0,62
8,0,62
9,0,62
9,0,62
8,0,62
8,0,62
8,0,62
9,0,62
9,0,62
9,0,62
9,0,62
9,0,62
8,0,62
9,0,62
9,0,62
8,0,62
8,0,62
9,0,62
10,0,62
10,0,62
10,0,62
10,0,62
10,0,62
10,0,62
9,0,62
9,0,62
10,0,62
9,0,62
10,0,62
10,0,62
10,0,62
10,0,62
10,0,62
10,0,62
10,0,62
9,0,62
9,0,62
10,0,62
10,0,62
10,0,62
10,0,62
9,0,62
10,0,62
9,0,62
9,0,62
10,0,62
10,0,62
9,0,62
10,0,62
10,0,62
9,0,62
10,0,62
9,0,62
9,0,62
9,0,62
10,0,62
9,0,62
10,0,62
9,0,62
9,0,62
10,0,62
9,0,62
9,0,62
9,0,62
10,0,62
9,0,62
9,0,62
9,0,62
9,0,62
9,0,62
9,0,62
9,0,62
9,0,62
9,0,62
9,0,62
9,0,62
9,0,62
9,0,62
9,0,62
9,0,62
9,0,62
9,0,62
10,0,62
9,0,62
8,0,62
9,0,62
9,0,62
9,0,62
9,0,62
10,0,62
9,0,62
9,0,62
10,0,62
9,0,62
9,0,62
10,0,62
9,0,62
9,0,62
9,0,62
9,0,62
9,0,62
9,0,62
9,0,62
10,0,62
10,0,62
9,0,62
9,0,62
10,0,62
9,0,62
10,0,62
9,0,62
9,0,62
9,0,62
9,0,62
9,0,62
9,0,62
9,0,62
10,0,62
9,0,62
9,0,62
9,0,62
9,0,62
9,0,62
9,0,62
9,0,62
9,0,62
9,0,62
9,0,62
9,0,62
9,0,62
10,0,62
9,0,62
9,0,62
9,0,62
9,0,62
10,0,62
10,0,62
10,0,62
9,0,62
9,0,62
9,0,62
10,0,62
9,0,62
9,0,62
10,0,62
9,0,62
9,0,62
9,0,62
10,0,62
9,0,62
9,0,62
9,0,62
9,0,62
9,0,62
9,0,62
9,0,62
10,0,62
9,0,62
9,0,62
9,0,62
9,0,62
9,0,62
9,0,62
9,0,62
10,0,62
9,0,62
9,0,62
9,0,62
9,0,62
10,0,62
9,0,62
9,0,62
10,0,62
9,0,62
10,0,62
9,0,62
9,0,62
9,0,62
9,0,62
9,0,62
9,0,62
9,0,62
9,0,62
9,0,62
9,0,62
9,0,62
9,0,62
9,0,62
10,0,62
9,0,62
9,0,62
10,0,62
9,0,62
10,0,62
9,0,62
9,0,62
10,0,62
9,0,62
9,0,62
10,0,62
10,0,62
9,0,62
10,0,62
9,0,62
9,0,62
10,0,62
9,0,62
10,0,62
9,0,62
9,0,62
9,0,62
9,0,62
9,0,62
10,0,62
10,0,62
10,0,62
10,0,62
10,0,62
9,0,62
9,0,62
10,0,62
9,0,62
9,0,62
9,0,62
9,0,62
9,0,62
10,0,62
9,0,62
10,0,62
9,0,62
9,0,62
9,0,62
10,0,62
9,0,62
9,0,62
10,0,62
9,0,62
9,0,62
10,0,62
9,0,62
9,0,62
9,0,62
10,0,62
10,0,62
9,0,62
9,0,62
9,0,62
10,0,62
9,0,62
9,0,62
9,0,62
9,0,62
9,0,62
10,0,62
9,0,62
9,0,62
10,0,62
9,0,62
9,0,62
9,0,62
9,0,62
9,0,62
10,0,62
9,0,62
9,0,62
9,0,62
9,0,62
9,0,62
9,0,62
10,0,62
10,0,62
8,0,62
10,0,62
9,0,62
9,0,62
9,0,62
10,0,62
8,0,63
12,-1,62
10,1,62
9,0,62
9,0,62
10,0,62
9,0,62
9,0,62
9,0,62
8,0,62
9,0,62
10,0,62
9,0,62
9,0,62
9,0,62
9,0,62
10,-1,62
8,0,62
8,0,62
9,-1,62
8,0,62
9,0,62
9,0,62
9,0,62
9,0,62
9,0,62
9,0,62
7,0,62
7,0,62
8,0,62
8,0,62
10,0,62
8,0,62
8,0,62
9,0,62
8,0,62
6,0,62
7,1,61
10,0,63
5,0,62
4,-2,61
9,0,63
9,-1,63
4,0,62
4,0,62
8,-1,62
7,-1,62
6,-1,63
5,-1,63
5,0,63
4,0,63
3,-1,63
5,0,63
3,0,63
3,0,63
4,-1,63
3,0,63
5,-1,63
5,-1,63
5,-1,63
4,-1,63
4,-1,62
5,-1,63
5,-1,63
4,0,63
5,-1,62
5,-1,63
5,-1,62
5,-1,62
5,-1,62
5,0,63
7,-1,62
7,-1,62
5,-1,62
5,0,62
6,-1,62
6,0,62
6,0,62
6,-1,62
6,0,62
7,0,62
7,-1,63
6,0,63
6,0,62
7,0,62
6,-1,62
7,-1,62
7,-1,62
7,0,62
7,0,62
7,-1,62
6,-1,62
7,0,63
7,-1,62
6,-1,62
7,0,63
6,-1,62
7,-1,62
7,-1,63
6,-1,62
7,0,62
7,0,63
6,-1,62
6,0,62
7,-1,63
6,-1,62
6,0,62
7,-1,62
6,0,62
6,-1,62
7,0,62
6,-1,63
7,-1,62
7,-1,62
6,0,62
6,0,63
7,0,62
6,-1,63
6,-1,62
6,0,62
7,-1,62
6,0,63
6,0,62
6,-1,62
6,-1,62
7,0,63
6,-1,62
6,-1,63
6,0,62
6,-1,63
6,-1,63
6,-1,63
6,-1,62
6,0,62
6,0,63
6,0,62
6,0,63
7,0,63
6,0,62
6,0,62
6,-1,63
6,-1,62
5,0,62
6,-1,63
6,0,63
5,0,62
6,0,62
6,0,62
6,-1,62
7,0,63
6,0,63
5,-1,62
6,0,62
7,0,62
4,0,62
5,0,62
7,-1,63
5,0,62
5,0,63
7,0,63
5,0,62
5,0,63
7,-1,63
5,0,62
5,0,62
7,-1,63
5,0,62
5,0,63
6,-1,63
6,0,62
5,0,62
6,-1,62
6,-1,63
6,0,62
6,-1,62
5,-1,62
6,0,63
6,0,63
5,-1,62
7,-1,63
6,-1,63
6,-1,63
6,0,62
6,0,63
6,-1,62
6,-1,62
6,-1,63
5,0,62
6,0,63
6,0,63
5,0,62
7,-1,63
5,0,62
4,0,62
7,0,63
5,0,62
5,0,62
6,0,63
5,0,62
5,0,62
6,-1,63
6,0,63
6,0,63
6,-1,63
6,0,63
6,0,62
6,-1,63
6,0,63
5,0,63
5,0,62
6,0,63
6,0,63
5,0,62
7,0,63
6,0,63
5,-1,63
6,0,63
6,0,63
5,0,62
6,0,63
6,-1,63
5,0,63
5,0,63
5,0,63
6,0,63
6,0,63
5,0,63
5,-1,62
6,0,62
6,0,63
5,0,63
6,0,62
7,-1,63
5,0,62
4,0,62
6,0,62
6,0,63
5,0,62
7,-1,63
5,0,63
5,0,62
6,-1,63
5,0,63
6,0,62
6,0,62
5,-1,62
5,0,63
7,0,63
6,0,63
6,-1,63
6,-1,62
6,-1,63
5,-1,62
6,-1,63
6,-1,62
6,0,63
6,-1,63
5,0,62
6,0,63
6,-1,63
5,-1,63
6,-1,62
6,-1,63
5,-1,63
6,0,62
6,-1,63
5,0,62
6,-1,62
6,-1,62
5,0,62
6,0,63
6,-1,63
6,0,63
6,-1,62
5,0,63
5,0,63
6,-1,63
5,-1,62
6,0,63
6,0,63
6,-1,62
6,0,63
7,0,63
6,-1,62
5,-1,62
6,-1,63
5,-1,62
6,0,63
6,0,63
6,-1,62
5,0,62
6,0,63
6,0,63
5,-1,62
6,-1,63
6,-1,63
5,0,62
6,-1,63
7,-1,63
6,0,63
5,-1,62
6,-1,63
6,-1,63
5,0,62
6,0,63
6,-1,63
5,0,62
7,-1,62
7,0,63
6,-1,63
6,0,63
7,-1,63
6,-1,62
6,0,63
7,0,63
6,0,63
7,-1,63
7,0,62
6,-1,62
7,0,63
7,0,63
6,0,62
6,-1,62
6,0,62
6,0,62
7,-1,62
7,0,63
7,0,62
6,-1,62
6,-1,62
7,0,63
6,-1,62
6,-1,62
7,-1,62
6,-1,62
6,0,62
7,0,62
6,-1,62
6,0,62
7,-1,62
6,-1,62
6,0,63
7,-1,62
7,0,62
8,-1,63
6,0,62
7,-1,62
7,-1,62
6,-1,62
6,0,62
7,0,62
7,-1,62
6,0,62
7,-1,62
7,-1,62
7,0,62
6,0,62
7,-1,62
7,-1,62
7,0,62
7,-1,62
7,0,62
7,0,62
6,-1,62
7,0,62
7,0,62
7,-1,62
7,-1,62
6,0,62
7,0,63
7,0,63
6,0,62
8,-1,63
8,0,63
6,0,62
8,-1,63
8,-1,62
7,-1,62
7,0,62
8,0,62
7,0,63
5,-1,62
6,0,62
7,0,63
5,0,62
6,0,62
8,-1,63
6,0,62
6,-1,62
9,-1,63
6,-1,62
6,0,62
8,0,62
6,0,62
6,0,62
8,-1,63
6,0,62
5,0,62
8,-1,62
6,0,62
6,0,62
8,0,63
8,0,62
6,0,62
8,0,63
8,-1,63
5,0,62
7,-1,62
9,-1,63
7,0,62
7,0,62
8,-1,62
9,0,62
7,1,62
8,-1,62
8,-1,63
6,0,62
7,0,62
9,-1,63
6,0,62
8,0,62
9,-1,63
5,0,62
5,0,62
9,0,63
7,0,62
5,0,62
10,0,62
7,0,62
5,0,62
9,-1,63
8,0,62
5,0,62
7,-1,62
9,-1,62
2,0,62
6,-7,61
6,2,62
13,-4,62
9,3,66
12,4,64
6,-5,58
5,-3,62
11,-1,62
13,-5,63
15,-7,62
6,-4,60
12,-3,60
27,-4,63
12,-4,60
4,-2,60
6,-5,61
12,-6,60
13,-5,61
11,-2,61
5,1,59
18,-5,60
18,-3,61
17,-3,61
17,-4,64
10,-2,56
12,-3,58
11,-1,60
12,-1,62
15,-3,64
8,-1,62
6,-2,62
7,-2,63
7,-1,62
8,-1,62
9,-2,62
8,-1,62
9,-3,60
9,-2,61
10,-2,64
9,-2,61
12,-1,63
11,-1,62
9,-1,62
9,-1,62
9,-1,62
10,-1,62
10,-1,62
11,-2,62
9,-1,62
9,-2,62
10,-1,62
10,-1,62
10,-2,62
10,-1,62
10,-2,61
9,-1,62
10,-1,62
10,-1,62
10,-1,62
10,-2,62
11,-2,62
11,-2,62
11,-2,62
10,-1,62
11,-2,62
10,-2,62
10,-1,62
11,-2,62
11,-2,62
10,-2,62
10,-2,61
11,-2,62
11,-1,62
10,-2,62
11,-2,62
10,-1,62
11,-2,62
10,-1,62
10,-2,62
9,-2,61
9,-2,63
9,-2,62
9,-2,61
9,-2,62
9,-2,62
10,-2,62
11,-2,62
10,-2,62
9,-2,62
10,-1,62
10,-2,62
10,-1,62
10,-2,62
11,-2,62
10,-1,62
10,-1,62
9,-2,62
9,-1,62
9,-1,62
11,-1,62
7,-1,62
11,-2,62
10,-2,62
9,-1,62
9,-2,62
9,-1,62
9,-1,62
10,-1,62
10,-1,62
10,-2,62
9,-1,62
9,-2,62
9,-1,62
9,-3,61
10,-1,62
9,-1,62
10,-2,62
10,-2,62
9,-2,62
9,-2,62
9,-2,62
10,-1,62
10,-2,62
10,-2,62
9,-2,62
10,-2,62
10,-1,62
8,-2,61
10,-2,62
10,-1,62
10,-1,62
11,-2,62
11,-1,62
10,-2,62
9,-2,62
10,-2,62
10,-1,62
9,-2,62
11,-2,62
11,-1,62
11,-2,62
9,-2,61
11,-2,62
11,-2,62
10,-2,62
10,-2,62
11,-2,62
11,-2,62
8,-1,62
7,-2,61
10,-2,62
10,-1,62
9,-1,62
10,-1,62
10,-2,62
10,-2,62
9,-1,62
10,-2,62
9,-2,62
10,-2,62
10,-2,62
10,-2,62
10,-2,62
9,-2,62
9,-2,62
10,-2,62
9,-2,62
10,-2,62
10,-2,62
9,-1,61
9,-2,62
10,-2,62
9,-1,62
9,-2,62
10,-2,62
9,-2,62
10,-2,62
9,-2,61
10,-2,62
9,-2,62
9,-2,62
11,-1,62
9,-2,62
10,-2,62
9,-2,62
9,-2,62
10,-2,62
10,-2,62
10,-1,62
9,-2,62
10,-1,62
10,-2,62
9,-2,62
9,-1,62
10,-2,62
10,-2,62
10,-1,62
9,-2,62
10,-2,62
10,-2,62
9,-2,62
10,-2,62
10,-1,62
9,-2,62
10,-2,62
10,-2,62
9,-2,62
9,-2,62
9,-1,62
10,-2,62
9,-2,62
9,-2,62
9,-2,62
10,-2,62
10,-2,62
10,-2,62
10,-2,61
10,-2,62
10,-2,62
10,-2,62
10,-2,62
10,-2,62
10,-2,62
10,-2,62
10,-2,62
9,-2,62
10,-2,62
10,-2,62
10,-2,62
10,-2,62
9,-2,62
10,-2,62
10,-2,62
10,-2,62
10,-2,62
10,-2,62
10,-2,62
9,-2,62
10,-2,62
10,-2,62
11,-2,62
10,-2,62
10,-2,62
10,-2,61
10,-2,62
9,1,61
10,-2,62
9,-2,62
10,-2,62
10,-2,62
10,-2,62
10,-2,62
10,-2,62
10,-2,62
10,-2,62
10,-2,62
10,-2,62
9,-2,62
10,-2,62
10,-2,62
10,-2,62
10,-2,62
10,-2,62
10,-2,62
10,-2,62
10,-2,62
10,-2,62
10,-2,62
10,-2,62
10,-2,62
10,-2,62
10,-2,62
9,-2,62
9,-2,62
10,-2,62
9,-2,62
10,-2,62
10,-2,62
10,-2,62
9,-2,62
10,-2,62
10,-1,62
9,-2,62
10,-2,62
10,-2,62
10,-2,62
10,-2,62
9,-2,62
9,-1,62
10,-2,62
9,-2,62
9,-2,62
10,-2,62
10,-2,62
10,-2,62
9,-2,62
10,-1,62
10,-2,62
10,-2,62
9,-2,62
9,-2,62
10,-2,62
10,-2,62
9,-2,62
10,-2,62
10,-2,62
10,-2,62
10,-2,62
9,-2,62
10,-2,62
10,-2,62
10,-2,62
10,-2,62
9,-2,62
9,-2,62
10,-2,62
9,-2,62
9,-2,62
10,-2,62
10,-2,62
9,-2,62
10,-2,62
12,-2,62
10,-2,62
9,-2,62
11,-2,62
11,-3,62
8,-2,62
11,-2,62
11,-2,62
9,-2,62
10,-2,62
10,-2,62
10,-2,62
9,-2,62
9,-2,62
10,-3,62
9,-2,62
10,-2,62
11,-2,62
10,-2,61
10,-2,61
9,-2,62
10,-2,62
10,-2,62
10,-2,62
10,-2,62
10,-2,62
10,-2,62
10,-2,62
10,-2,62
9,-2,62
10,-2,62
10,-2,62
9,-2,62
10,-2,62
10,-2,62
10,-2,62
9,-2,62
10,-2,62
9,-2,62
9,-2,62
9,-2,62
10,-2,62
9,-2,62
9,-2,62
9,-2,62
9,-2,62
9,-2,62
10,-2,62
9,-2,62
10,-2,62
9,-2,62
9,-2,62
9,-2,62
9,-2,62
9,-2,62
10,-2,62
9,-2,62
10,-2,62
9,-2,62
10,-2,62
10,-2,62
9,-2,62
10,-2,62
10,-2,62
9,-2,62
10,-2,62
10,-2,62
9,-2,62
10,-2,62
10,-2,62
10,-2,62
10,-2,62
10,-2,62
10,-2,62
10,-2,62
10,-2,62
10,-2,62
10,-2,62
10,-2,62
10,-2,62
10,-2,62
10,-2,62
10,-2,62
10,-2,62
10,-2,61
10,-2,62
10,-2,62
10,-2,62
10,-2,62
9,-2,62
10,-2,62
10,-2,62
10,-2,62
10,-2,62
10,-2,62
10,-2,62
11,-2,62
9,-2,62
10,-2,62
10,-2,62
10,-2,62
10,-2,62
10,-2,62
10,-2,62
10,-2,62
10,-2,62
10,-2,62
10,-2,62
10,-2,62
10,-2,62
10,-2,62
10,-2,62
10,-2,62
10,-2,62
9,-2,62
10,-2,62
10,-2,62
9,-2,62
10,-2,62
10,-2,62
10,-2,62
10,-2,62
10,-2,62
10,-2,62
10,-2,62
10,-2,62
10,-2,62
9,-2,62
9,-2,62
10,-2,62
10,-2,62
10,-2,62
10,-2,62
9,-2,62
9,-2,62
10,-2,62
10,-2,62
10,-2,62
10,-2,62
9,-2,62
9,-2,62
10,-2,62
9,-2,62
9,-2,62
10,-2,62
9,-2,62
9,-2,62
10,-2,62
9,-2,62
9,-2,62
9,-2,62
10,-2,62
9,-2,62
10,-2,62
10,-2,62
9,-2,62
10,-2,62
10,-2,62
10,-2,62
10,-2,62
10,-2,62
9,-2,62
10,-2,62
10,-2,62
9,-2,62
10,-2,62
10,-2,62
9,-2,62
10,-2,62
10,-2,62
10,-2,62
10,-2,62
10,-2,62
9,-2,62
10,-2,62
10,-2,62
10,-2,62
10,-2,62
10,-2,62
10,-2,62
10,-2,62
10,-2,62
10,-2,62
9,-2,62
9,-2,62
10,-2,62
10,-2,62
10,-2,62
10,-2,62
10,-2,62
10,-2,62
10,-2,62
10,-2,62
10,-2,62
10,-2,62
10,-2,62
10,-2,62
9,-2,62
10,-2,62
10,-2,62
10,-2,62
10,-2,62
10,-2,62
10,-2,62
10,-2,62
10,-2,62
10,-2,62
10,-2,62
9,-2,62
10,-2,62
10,-2,62
10,-2,62
10,-2,62
10,-2,62
10,-2,62
10,-2,62
10,-2,62
10,-2,62
10,-2,62
10,-2,62
9,-2,62
10,-2,62
10,-2,62
10,-2,62
10,-2,62
10,-2,62
10,-2,62
10,-2,62
9,-2,62
10,-2,62
10,-2,62
9,-2,62
10,-2,62
10,-2,62
11,-2,62
9,-2,62
11,-2,62
10,-2,62
9,-2,62
9,-2,62
9,-2,62
9,-2,62
9,-2,62
9,-2,62
9,-2,62
9,-2,62
9,-2,62
10,-2,62
9,-2,62
9,-2,62
9,-2,62
9,-2,62
9,-2,62
9,-2,62
9,-2,62
9,-2,62
9,-2,62
9,-2,62
9,-2,62
9,-2,62
9,-2,62
9,-2,62
9,-2,62
9,-2,62
9,-2,62
9,-2,62
9,-2,62
9,-2,62
10,-2,62
10,-2,62
9,-2,62
10,-2,62
9,-2,62
10,-2,62
10,-2,62
9,-2,62
10,-2,62
9,-2,62
9,-2,62
9,-2,62
10,-2,62
10,-2,62
9,-2,62
10,-2,62
10,-2,62
9,-2,62
10,-2,62
10,-2,62
10,-2,62
10,-2,62
10,-2,62
9,-2,62
9,-2,62
10,-2,62
10,-3,62
7,-2,61
12,-3,62
7,-2,61
8,-3,62
11,-2,62
11,-2,62
7,-2,63
8,-3,62
6,-3,62
4,-3,62
5,-3,62
2,-3,62
7,-3,62
8,-3,63
3,-3,62
6,-3,63
4,-3,62
3,-3,62
-3,-3,61
0,-3,62
12,-3,62
9,-3,62
9,-3,61
10,-2,61
17,-3,62
16,-2,61
16,-2,62
16,-2,61
14,-2,61
12,-3,61
12,-2,61
13,-2,62
15,-2,61
14,-3,60
14,-3,61
11,-1,62
10,-2,61
12,-2,61
10,-2,61
10,-2,61
11,-2,61
13,-2,62
13,-2,61
11,-2,62
12,-2,61
13,-2,62
11,-2,61
10,-2,61
11,-2,62
13,-2,62
11,-2,62
10,-2,61
11,-2,61
11,-2,62
11,-2,61
11,-2,61
11,-2,62
11,-2,62
11,-2,62
11,-2,61
12,-2,62
11,-2,62
11,-2,61
11,-2,62
11,-2,62
11,-2,62
11,-2,62
12,-2,61
12,-2,62
12,-2,61
12,-2,62
12,-2,61
11,-2,62
12,-2,62
12,-2,61
11,-2,61
11,-2,62
12,-2,61
11,-2,61
12,-2,61
11,-2,63
12,-2,61
11,-2,62
14,-2,62
13,-2,62
11,-2,61
12,-1,62
14,-2,62
11,-2,61
10,-2,61
12,-2,62
13,-2,61
12,-2,62
12,-2,61
11,-2,61
12,-2,61
12,-2,61
12,-2,61
12,-2,61
12,-2,61
12,-2,61
12,-2,61
12,-2,61
12,-2,62
12,-2,61
12,-2,62
12,-2,61
11,-2,61
12,-2,62
12,-2,61
12,-2,62
11,-2,61
12,-2,61
12,-2,61
12,-2,61
11,-2,61
11,-2,61
12,-2,61
11,-2,61
12,-2,62
12,-2,62
11,-2,61
11,-2,61
12,-2,62
12,-2,61
12,-2,62
10,-2,61
11,-2,61
12,-2,62
11,-2,61
11,-2,61
11,-2,61
11,-2,62
11,-2,62
11,-2,62
11,-2,62
11,-2,62
11,-2,61
11,-2,61
11,-2,62
11,-2,61
11,-2,61
11,-2,61
11,-2,62
11,-2,62
11,-2,61
11,-2,61
12,-2,61
11,-2,62
11,-2,61
11,-2,62
11,-2,62
11,-2,62
11,-2,62
11,-2,61
11,-2,61
11,-2,61
11,-2,62
11,-2,62
11,-2,62
11,-2,62
11,-2,62
11,-2,61
11,-2,62
11,-2,61
12,-2,62
12,-2,62
11,-2,61
12,-2,62
11,-2,61
10,-2,61
10,-2,61
13,-2,61
15,-2,62
10,-2,61
9,-2,61
13,-2,61
15,-2,62
13,-2,62
11,-2,61
12,-2,61
11,-2,61
9,-2,62
11,-2,62
11,-2,62
10,-2,61
10,-2,62
11,-2,62
13,-3,62
10,-1,61
9,-2,61
10,-1,61
13,-2,62
15,-1,62
9,-1,61
17,-17,60
15,2,63
8,-2,61
4,-1,61
15,0,62
18,-3,62
7,-1,62
3,0,61
12,-2,61
18,-7,62
15,-1,61
3,1,59
13,-2,60
6,-10,37
17,3,61
12,-1,60
-11,2,57
19,-1,55
42,3,58
48,1,56
24,0,56
17,1,55
23,0,56
31,-2,54
34,-1,52
28,-1,55
25,1,57
33,-3,57
36,-1,56
24,0,56
23,0,56
24,-1,56
27,-1,56
22,-1,56
28,-3,58
31,-3,55
33,-3,56
24,-2,56
25,-1,57
25,-3,57
25,-3,56
24,-3,56
28,-3,56
28,-3,56
28,-2,56
25,-1,56
26,-1,56
32,-1,56
30,-2,55
25,-1,56
27,-1,56
29,-1,56
31,-2,55
25,-1,56
25,-1,56
31,-2,55
29,-2,56
26,-2,56
28,-1,57
31,-3,55
31,-3,55
29,-2,55
25,-1,56
25,-1,56
31,-4,55
29,-4,55
24,-3,55
28,-2,56
33,-2,56
28,-2,56
23,-2,56
26,-2,55
33,-3,55
29,-2,55
27,-2,55
25,-2,55
32,-2,55
31,-2,55
25,-1,55
30,-2,55
32,-3,55
31,-2,55
23,-1,55
24,-3,55
32,-2,55
28,-3,55
25,-2,55
28,-3,55
32,-3,55
27,-3,54
26,-1,55
29,-1,56
30,-1,56
27,-2,55
26,-1,56
28,-2,56
28,-2,56
29,-3,55
30,-2,56
28,-2,55
26,-2,56
26,-3,56
29,-2,56
27,-2,56
26,-2,56
28,-2,56
28,-2,55
28,-2,55
28,-2,56
29,-3,55
28,-2,55
26,-3,55
31,-2,55
32,-2,56
27,-1,55
27,-1,56
28,-1,56
29,-2,55
28,-2,55
28,-2,55
28,-2,56
28,-2,55
28,-2,55
27,-2,56
27,-1,56
28,-2,56
29,-2,55
28,-2,55
29,-2,55
29,-2,55
29,-2,55
28,-1,55
28,-2,56
27,-2,56
29,-2,55
29,-2,55
29,-2,55
29,-2,55
27,-2,55
27,-2,55
27,-2,56
27,-2,56
28,-2,56
27,-3,55
28,-3,56
28,-3,55
28,-2,56
28,-1,56
28,-1,56
28,-1,56
28,-1,56
26,-1,56
27,-1,56
30,-2,56
28,-2,55
26,-2,56
29,-2,56
26,-2,56
25,-1,56
29,-2,56
30,-2,55
28,-2,55
28,-2,55
28,-2,55
28,-2,56
26,-1,56
27,-1,56
30,-2,55
27,-2,56
27,-2,55
29,-2,55
27,-2,56
27,-2,55
29,-2,56
28,-2,56
26,-2,55
29,-2,56
29,-2,55
25,-1,56
29,-1,55
30,-2,56
28,-1,56
26,-1,55
27,-1,56
29,-1,55
29,-2,55
28,-1,55
28,-1,55
30,-1,55
29,-1,55
25,-1,56
29,-1,55
30,-1,56
27,-1,56
26,-1,55
27,-1,56
29,-1,55
26,-1,56
26,-1,56
28,-1,56
29,-1,56
29,-2,56
26,-2,56
27,-2,56
28,-2,56
26,-2,56
27,-2,56
28,-1,56
27,-2,56
27,-2,56
27,-2,56
28,-2,56
27,-2,56
26,-2,56
27,-2,56
28,-2,56
28,-2,56
28,-2,56
27,-2,56
27,-2,56
26,-1,56
27,-2,56
27,-2,56
28,-2,56
27,-2,56
27,-2,56
28,-2,56
27,-2,56
27,-2,56
28,-2,56
28,-2,56
28,-2,56
27,-2,56
28,-2,56
28,-2,56
26,-1,56
26,-2,56
28,-2,56
27,-2,56
26,-2,56
28,-2,56
28,-2,56
27,-2,56
28,-2,56
27,-2,56
27,-2,56
27,-2,56
27,-2,56
27,-1,56
28,-2,55
27,-2,56
27,-2,56
27,-2,56
27,-2,55
27,-2,56
27,-1,56
27,-2,56
27,-2,56
28,-1,56
28,-1,56
27,-2,56
28,-2,56
27,-2,56
27,-1,56
28,-2,55
27,-2,56
27,-2,56
28,-2,56
27,-2,56
27,-1,56
27,-2,56
28,-2,56
27,-2,56
27,-1,56
28,-2,56
27,-1,56
28,-1,55
27,-1,56
27,-1,56
27,-2,56
28,-2,56
28,-2,56
27,-1,56
28,-1,56
28,-1,56
27,-2,56
27,-1,56
27,-2,56
27,-2,56
27,-2,56
27,-1,56
28,-2,56
28,-1,56
27,-2,56
28,-1,56
28,-2,56
27,-2,56
28,-1,56
28,-1,56
28,-1,56
27,-2,56
28,-1,56
28,-1,56
28,-1,56
27,-2,56
27,-2,56
27,-2,56
27,-1,56
27,-2,56
27,-1,56
28,-1,56
28,-2,56
27,-1,56
28,-1,56
27,-1,56
27,-1,56
28,-1,56
27,-2,56
27,-2,56
28,-1,56
27,-1,56
28,-1,56
28,-1,56
27,-1,56
28,-1,56
28,-1,56
27,-1,56
27,-2,56
28,-1,56
27,-1,56
27,-2,56
28,-2,56
28,-1,56
27,-1,56
28,-2,56
27,-1,56
28,-2,56
28,-1,56
27,-2,56
28,-2,56
28,-2,56
27,-2,56
28,-1,56
28,-2,56
27,-2,56
28,-1,56
28,-2,56
27,-1,56
28,-1,56
28,-2,56
27,-1,56
27,-2,55
28,-2,56
27,-1,56
27,-1,56
28,-2,56
27,-2,56
27,-2,56
28,-2,55
27,-2,56
28,-2,55
28,-1,56
28,-2,56
27,-1,56
28,-2,56
27,-1,56
27,-2,56
28,-1,55
28,-2,56
27,-1,56
28,-1,56
28,-2,55
27,-2,56
28,-2,56
28,-1,56
27,-1,55
28,-2,56
28,-1,56
27,-2,56
28,-1,56
28,-1,56
27,-1,56
28,-1,56
29,-1,55
28,-2,55
27,-1,55
29,-2,55
28,-1,56
27,-1,55
28,-2,55
28,-1,56
28,-2,55
28,-2,56
29,-2,55
28,-1,55
28,-2,55
29,-2,56
27,-2,56
27,-1,55
29,-2,56
27,-1,56
28,-1,56
29,-2,55
27,-1,56
28,-1,55
28,-2,56
27,-1,55
27,-1,56
28,-1,55
27,-1,56
28,-2,56
28,-1,55
28,-1,56
28,-1,56
28,-1,56
28,-2,55
28,-1,56
27,-1,55
28,-1,56
28,-1,56
28,-1,56
27,-2,55
27,-1,56
29,-1,56
27,-2,56
27,-1,56
29,-1,56
27,-2,56
27,-1,56
28,-1,56
27,-1,56
27,-1,56
28,-1,56
27,-1,56
27,-2,56
28,-1,56
27,-1,56
28,-2,56
28,-1,56
28,-1,56
27,-1,56
28,-2,55
28,-1,56
27,-1,56
28,-2,56
28,-1,56
27,-2,56
28,-1,56
28,-2,56
27,-1,56
28,-1,56
28,-1,56
27,-2,55
28,-2,55
27,-2,56
28,-1,56
27,-2,56
28,-1,56
29,-2,56
27,-1,56
28,-2,56
28,-1,56
27,-1,56
27,-2,56
28,-1,56
27,-1,56
28,-1,56
28,-1,56
27,-2,56
28,-1,56
28,-1,56
27,-2,56
27,-1,56
28,-1,56
28,-1,56
28,-2,56
28,-2,55
28,-2,56
28,-1,55
27,-1,55
29,-2,56
29,-2,55
27,-2,55
29,-2,55
29,-2,55
27,-2,55
28,-2,55
29,-2,55
29,-2,55
26,-2,55
29,-2,55
29,-2,55
27,-2,55
28,-2,55
29,-2,55
28,-2,55
28,-2,55
29,-2,55
28,-2,55
28,-2,55
29,-2,55
28,-2,55
28,-2,55
29,-2,55
28,-2,55
28,-2,55
29,-2,55
28,-2,55
28,-2,55
28,-2,55
29,-2,55
29,-2,55
29,-2,55
28,-1,55
28,-2,55
29,-2,55
28,-1,56
28,-2,55
28,-2,55
28,-2,55
29,-1,55
28,-2,55
28,-2,55
29,-2,55
28,-2,55
28,-2,55
29,-2,55
28,-1,55
28,-2,56
29,-2,55
28,-2,55
28,-2,55
28,-2,55
28,-1,55
28,-2,55
28,-2,55
28,-2,55
28,-2,55
31,-2,55
25,-1,56
25,-1,56
28,-1,56
27,-1,56
26,-1,56
28,-2,56
28,-1,56
28,-1,56
27,-2,56
28,-1,55
28,-1,56
28,-1,56
28,-1,56
28,-1,56
28,-1,56
28,-2,56
28,-2,56
28,-2,55
28,-2,56
28,-1,56
28,-1,55
28,-1,55
28,-1,56
28,-1,55
28,-1,55
28,-1,55
28,-2,56
28,-1,56
28,-1,56
28,-2,55
28,-1,55
28,-1,55
28,-1,56
28,-1,56
28,-1,56
28,-1,55
28,-2,56
28,-1,55
28,-2,55
28,-1,56
28,-1,55
28,-2,55
27,-1,56
29,-1,55
27,-1,56
27,-1,56
28,-2,56
28,-1,56
28,-1,55
28,-2,55
28,-1,56
28,-1,55
28,-1,55
28,-1,56
27,-2,56
29,-1,56
27,-1,56
28,-1,55
28,-1,56
27,-1,55
28,-1,55
28,-1,56
27,-1,56
27,-1,55
28,-1,56
27,-1,56
27,-1,56
28,-1,56
28,-1,56
28,-1,56
28,-1,56
28,-1,56
28,-1,56
28,-1,56
28,-2,56
28,-1,56
27,-1,56
28,-2,56
28,-1,56
28,-1,55
28,-1,56
28,-1,55
27,-1,56
28,-1,56
29,-1,56
27,-1,55
29,-1,55
28,-1,55
28,-1,55
28,-2,55
28,-1,56
29,-2,55
27,-1,55
28,-1,55
28,-2,55
27,-1,55
28,-1,56
29,-2,56
27,-1,56
28,-1,55
28,-1,56
28,-1,56
28,-1,56
28,-1,56
28,-2,55
27,-1,55
28,-1,55
29,-1,55
27,-1,55
29,-1,55
29,-2,56
27,-1,56
28,-2,55
29,-1,55
28,-1,55
28,-1,55
29,-1,55
28,-2,56
28,-1,55
29,-1,56
28,-1,55
28,-1,55
30,-2,56
27,-1,55
28,-1,55
30,-1,55
27,-1,56
28,-1,56
30,-1,56
27,-1,55
28,-1,56
29,-2,55
28,-1,56
28,-1,55
29,-2,55
27,-2,55
28,-2,55
28,-1,55
27,-1,56
29,-2,55
29,-1,56
27,-2,56
28,-1,56
29,-2,55
27,-2,56
28,-1,55
28,-1,55
28,-1,56
28,-1,56
28,-2,56
28,-1,56
28,-1,56
28,-1,56
28,-1,55
28,-1,55
28,-1,56
28,-1,55
28,-1,55
28,-1,55
28,-2,55
27,-1,56
28,-1,56
28,-1,55
28,-1,56
28,-1,56
28,-1,55
28,-1,55
28,-1,55
28,-1,55
28,-1,55
28,-1,55
28,-1,56
28,-1,56
28,-1,56
28,-1,55
28,-1,56
28,-1,56
28,-1,55
28,-1,56
28,-1,56
28,-1,55
28,-1,56
28,-1,55
28,-1,56
28,-1,56
28,-1,56
28,-1,56
28,-1,55
28,-1,56
28,-1,56
28,-1,56
28,-1,55
28,-1,56
28,-1,56
28,-1,56
28,-1,55
28,-1,56
28,-1,56
28,-1,55
28,-1,55
28,-1,56
28,-1,55
28,-1,55
28,-1,56
28,-1,56
28,-1,55
28,-2,56
28,-1,56
28,-2,56
28,-1,55
28,-1,55
28,-1,56
28,-1,55
28,-2,55
28,-1,56
28,-1,55
28,-1,56
28,-1,56
28,-1,56
28,-1,56
28,-2,56
28,-1,55
28,-1,55
28,-1,56
28,-1,56
28,-1,55
28,-1,55
28,-1,55
28,-1,56
28,-1,56
28,-1,56
28,-2,55
28,-1,55
28,-1,56
28,-1,55
28,-1,55
28,-1,56
28,-1,56
28,-1,55
28,-1,56
28,-1,55
28,-1,55
28,-1,55
28,-1,55
28,-1,55
28,-1,56
28,-1,55
28,-1,56
28,-1,55
28,-1,56
28,-1,55
28,-1,55
28,-1,55
28,-1,55
28,-2,55
28,-1,55
28,-1,55
28,-2,56
28,-1,55
28,-1,55
28,-1,55
28,-1,55
28,-1,55
28,-1,56
28,-1,56
28,-1,56
28,-2,55
28,-1,56
28,-1,56
28,-1,55
29,-1,55
28,-1,56
27,-1,56
29,-1,55
28,-1,56
27,-1,55
28,-1,56
28,-1,55
28,-1,55
28,-1,56
29,-1,56
26,-1,56
28,-1,55
29,-1,56
27,-1,56
28,-1,55
28,-1,56
27,-1,55
28,-1,55
27,-1,56
28,-1,56
28,-1,56
28,-1,56
28,-1,56
28,-1,56
28,-1,55
28,-1,55
28,-1,56
28,-1,56
28,-1,55
28,-1,56
28,-1,55
28,-1,56
27,-1,55
28,-1,56
28,-1,55
28,-1,55
28,-1,55
28,-1,56
28,-1,55
28,-1,56
28,-1,56
28,-1,55
28,-1,56
28,-1,55
28,-1,56
28,-1,55
28,-1,56
28,-1,56
28,-1,56
28,-1,55
28,-1,56
28,-1,55
28,-1,56
28,-1,56
28,-1,56
28,-1,56
28,-1,56
28,-1,55
28,-1,56
28,-1,55
28,-1,56
28,-1,55
28,-1,56
29,-1,56
27,-1,55
28,-1,55
28,-1,55
28,-1,55
28,-1,56
28,-1,55
28,-1,55
27,-1,55
28,-1,55
28,-1,56
28,-1,56
28,-2,55
28,-1,56
28,-1,56
28,-1,55
28,-1,55
28,-1,56
28,-1,55
28,-1,55
28,-1,56
28,-1,56
28,-1,56
28,-1,56
28,-1,56
28,-1,56
28,-1,56
28,-1,55
28,-1,56
28,-1,56
28,-1,55
28,-1,55
28,-1,55
28,-1,55
28,-1,55
28,-1,56
28,-1,56
28,-1,56
28,-1,55
28,-1,56
28,-1,56
28,-1,55
28,-1,55
28,-1,55
28,-1,55
28,-1,55
28,-1,56
28,-1,55
28,-1,56
28,-2,55
28,-1,56
28,-1,55
28,-1,56
28,-1,56
28,-1,55
28,-1,56
28,-1,55
28,-1,55
28,-1,55
28,-1,55
28,-1,55
28,-1,55
28,-1,55
27,-1,55
28,-1,56
29,-1,56
28,-2,56
28,-1,55
28,-1,55
28,-1,55
28,-2,55
28,-1,55
28,-1,55
28,-1,55
27,-1,56
28,-1,55
28,-1,55
27,-1,55
29,-1,55
28,-1,55
28,-2,55
28,-1,55
28,-1,56
28,-1,56
28,-1,55
28,-1,55
28,-1,55
28,-1,55
28,-1,55
28,-1,56
28,-1,55
28,-1,55
28,-1,55
28,-1,55
28,-1,55
28,-1,55
28,-1,55
28,-1,55
28,-1,55
28,-1,55
28,-1,55
28,-1,55
29,-1,55
28,-1,56
28,-1,55
28,-1,56
28,-1,55
28,-1,56
28,-1,56
28,-1,55
28,-1,55
28,-1,56
28,-1,55
28,-1,56
28,-1,55
28,-1,55
28,-1,56
28,-1,56
28,-1,56
28,-1,55
28,-1,56
28,-1,56
28,-1,55
28,-1,56
28,-1,55
28,-1,56
29,-1,55
28,-1,56
28,-1,55
29,-1,55
28,-1,55
28,-1,55
28,-1,55
28,-1,55
28,-1,56
28,-1,56
28,-1,55
28,-1,55
28,-1,55
27,-1,55
29,-1,55
28,-1,56
28,-1,56
28,-1,55
28,-1,55
28,-1,55
28,-1,55
28,-1,56
28,-1,55
28,-1,55
28,-1,56
28,-1,55
28,-1,55
28,-1,56
28,-1,56
28,-1,55
28,-1,55
28,-1,55
28,-1,56
28,-1,56
28,-1,55
28,-1,55
28,-1,55
28,-1,56
28,-1,56
28,-1,55
28,-1,56
28,-1,55
28,-1,56
28,-1,56
28,-1,55
28,-1,56
28,-1,55
28,-1,55
28,-1,55
28,-1,55
28,-1,55
28,-1,55
28,-1,56
28,-1,55
28,-1,55
28,-1,55
28,-1,56
28,-1,55
28,-1,55
28,-1,56
28,-1,56
28,-1,55
28,-1,55
28,-1,56
28,-1,56
27,-1,55
28,-1,56
28,-1,55
28,-1,55
28,-1,55
28,-1,55
28,-1,55
28,-1,55
28,-1,56
28,-1,55
28,-1,56
28,-1,55
28,-1,56
28,-1,56
28,-1,55
28,-1,55
28,-2,56
28,-1,55
28,-1,56
28,-1,56
28,-1,55
28,-1,55
28,-1,55
29,-1,56
27,-1,56
28,-1,56
28,-1,55
28,-1,56
28,-1,56
28,-1,55
28,-1,55
28,-1,55
28,-1,55
28,-1,55
28,-1,55
28,-1,56
28,-1,55
28,-1,56
28,-1,55
28,-1,55
28,-1,56
28,-1,56
28,-1,55
28,-1,55
28,-1,56
28,-1,56
28,-1,55
28,-1,55
28,-1,55
28,-1,56
28,-1,55
28,-1,56
28,-1,55
28,-1,56
28,-1,55
28,-1,55
28,-1,55
28,-1,55
28,-1,55
28,-1,55
28,-1,56
28,-1,56
28,-1,55
28,-1,56
28,-1,56
28,-1,56
28,-1,55
28,-1,55
28,-1,56
28,-1,55
29,-1,55
28,-1,55
28,-1,55
28,-1,55
28,-1,55
28,-1,56
28,-1,55
28,-1,56
27,-1,55
28,-1,56
28,-1,56
28,-1,56
28,-1,56
28,-1,55
28,-1,56
28,-1,55
28,-1,55
28,-1,55
27,-1,55
28,-1,56
28,-1,56
28,-1,55
28,-1,56
28,-1,56
28,-1,55
29,-1,55
28,-1,55
28,-1,56
29,-1,55
28,-1,56
28,-1,56
28,-1,56
28,-1,55
28,-1,55
29,-1,55
28,-1,55
28,-1,56
28,-1,55
28,-1,56
28,-1,56
28,-1,55
28,-1,55
27,-1,55
28,-1,55
28,-1,56
28,-1,55
28,-1,56
28,-1,55
28,-1,55
28,-1,56
28,-1,55
28,-1,56
28,-1,55
28,-1,55
28,-1,55
29,-1,56
28,-1,55
29,-1,55
28,-1,55
28,-1,55
28,-1,56
28,-1,55
28,-1,55
28,-1,55
28,-1,56
28,-1,56
28,-1,55
28,-1,56
28,-1,55
28,-1,55
28,-1,55
28,-1,56
28,-1,56
28,-1,56
28,-1,55
28,-1,56
28,-1,55
28,-1,55
28,-1,55
28,-1,55
28,-1,56
28,-1,55
28,-1,56
28,-1,55
28,-2,55
28,-1,55
28,-1,55
28,-1,55
28,-1,55
29,-1,56
28,-1,55
28,-1,55
28,-1,56
28,-1,55
28,-1,55
28,-1,55
28,-1,55
29,-1,55
28,-1,55
28,-1,55
29,-1,55
28,-1,55
28,-1,55
28,-1,55
28,-1,55
28,-1,55
28,-1,55
28,-1,55
28,-1,55
28,-1,56
28,-1,56
28,-1,55
28,-1,55
28,-1,56
28,-1,55
28,-1,55
28,-1,55
29,-1,56
28,-1,55
28,-1,55
29,-1,55
28,-1,55
28,-1,55
28,-1,56
28,-1,55
28,-1,55
28,-1,55
28,-1,55
29,-1,55
28,-1,56
28,-1,56
28,-1,55
28,-1,55
27,-1,55
29,-1,55
28,-1,55
28,-1,56
28,-1,55
28,-1,55
28,-1,56
28,-1,56
29,-1,55
28,-1,55
28,-1,56
29,-1,56
28,-1,55
28,-1,56
29,-1,55
28,-1,56
28,-1,56
29,-1,55
28,-2,55
28,-1,55
28,-1,55
28,-1,55
28,-1,55
28,-1,55
28,-1,55
28,-1,55
28,-1,55
28,-1,55
28,-1,55
28,-1,55
28,-1,55
28,-1,56
28,-1,55
28,-1,56
28,-1,55
28,-1,55
28,-1,55
28,-1,55
28,-1,56
28,-1,55
28,-1,56
28,-1,55
28,-1,55
28,-1,55
28,-1,55
28,-1,56
28,-1,55
28,-1,55
28,-1,56
28,-1,55
28,-1,56
28,-1,56
28,-1,55
28,-1,55
28,-1,55
28,-1,55
28,-1,55
28,-1,55
28,-1,55
28,-1,55
28,-1,56
28,-1,56
28,-1,56
28,-1,55
28,-2,55
28,-1,55
28,-1,55
28,-1,55
28,-1,55
28,-1,56
28,-1,55
28,-1,55
28,-1,56
28,-1,55
29,-1,55
28,-1,56
28,-1,55
28,-1,56
28,-1,55
28,-1,55
28,-1,55
28,-1,55
28,-1,55
28,-1,56
28,-1,55
28,-1,55
28,-1,56
28,-1,55
27,-1,55
28,-1,56
28,-1,55
28,-1,55
28,-1,56
27,-1,55
28,-1,55
28,-1,55
28,-1,55
28,-1,55
28,-1,55
28,-1,56
28,-1,55
28,-1,56
28,-1,56
28,-1,56
28,-1,55
28,-1,55
28,-1,56
28,-1,56
28,-1,56
28,-1,55
28,-1,55
28,-1,55
28,-1,55
28,-1,55
28,-1,55
28,-1,55
28,-1,55
28,-1,55
28,-1,56
28,-1,55
28,-1,55
28,-1,56
28,-1,55
28,-1,55
28,-1,56
28,-1,55
28,-2,55
28,-1,55
28,-1,55
28,-1,55
28,-1,55
29,-1,55
28,-1,55
28,-1,55
29,-1,55
28,-1,55
28,-1,55
29,-1,55
28,-1,55
28,-1,55
28,-2,55
28,-1,56
28,-1,56
28,-1,55
28,-1,55
28,-1,55
28,-2,55
28,-1,55
28,-1,55
28,-1,55
28,-1,55
28,-1,55
28,-1,56
28,-1,55
28,-1,55
28,-1,55
28,-1,56
28,-1,55
28,-1,56
28,-1,55
28,-1,55
28,-1,56
29,-1,55
28,-1,55
28,-1,55
28,-1,55
28,-1,56
28,-1,55
28,-1,55
28,-1,56
28,-1,55
28,-1,55
28,-1,55
28,-1,56
28,-1,55
28,-1,55
28,-1,55
28,-1,55
28,-1,56
28,-1,56
28,-1,55
28,-1,55
28,-1,55
28,-1,55
28,-1,55
28,-1,56
28,-1,56
28,-1,55
28,-1,56
28,-1,55
28,-1,55
28,-1,55
28,-1,55
28,-1,56
28,-1,56
28,-1,56
28,-1,55
28,-1,55
28,-1,55
28,-1,55
28,-1,56
28,-1,56
28,-1,55
28,-1,55
28,-1,55
28,-1,55
28,-1,55
29,-1,55
28,-1,55
28,-1,55
28,-1,56
28,-1,55
28,-1,56
27,-1,56
28,-1,55
28,-1,56
28,-1,55
28,-1,55
28,-1,56
28,-1,56
28,-1,55
28,-1,55
28,-1,56
28,-1,56
28,-1,55
28,-1,56
28,-1,56
28,-1,55
28,-1,55
28,-1,55
28,-1,56
27,-1,56
29,-1,56
27,-1,56
27,-1,56
29,-1,55
27,-1,55
28,-1,56
28,-1,56
27,-1,55
28,-1,56
28,-1,55
28,-2,56
28,-1,55
28,-1,55
28,-1,55
28,-1,56
28,-1,55
28,-1,55
28,-2,55
28,-1,55
28,-1,56
28,-1,55
28,-1,55
28,-1,56
28,-1,55
28,-1,55
28,-1,55
28,-1,56
27,-1,56
28,-1,55
28,-1,56
28,-1,56
28,-1,56
28,-1,55
28,-1,56
28,-1,55
29,-1,56
27,-1,56
28,-1,56
29,-1,56
27,-1,56
28,-1,56
28,-1,56
28,-1,56
28,-1,56
28,-1,55
27,-1,55
28,-1,55
28,-1,55
27,-1,56
28,-1,56
28,-1,56
28,-1,55
28,-1,55
28,-1,55
28,-2,56
28,-1,55
27,-1,55
29,-1,56
29,-2,56
28,-1,56
28,-1,55
31,-2,55
30,-2,55
25,-1,55
27,-1,55
30,-3,56
33,-3,55
29,-3,55
24,-3,56
27,-3,56
30,-3,55
31,-6,56
21,-4,56
20,-4,56
25,-6,57
27,-5,57
25,-5,57
22,-6,57
23,-6,57
24,-7,57
26,-7,57
22,-7,57
20,-7,57
23,-7,57
25,-7,57
24,-8,58
21,-7,57
22,-7,58
24,-7,58
24,-7,57
22,-7,58
22,-7,58
22,-7,57
23,-7,58
21,-7,57
24,-7,58
25,-6,58
25,-7,57
23,-6,58
23,-7,57
23,-7,58
24,-6,57
24,-7,57
23,-6,58
24,-7,58
24,-7,58
24,-7,57
21,-7,57
21,-7,57
24,-7,58
22,-7,58
21,-7,58
22,-7,58
24,-7,58
24,-7,58
22,-7,58
22,-7,58
23,-7,58
22,-7,58
22,-7,58
22,-7,58
22,-7,58
22,-7,58
23,-7,58
23,-7,58
21,-7,58
21,-8,58
24,-7,58
23,-7,58
22,-7,58
23,-7,58
21,-7,58
22,-7,58
23,-7,58
21,-7,58
20,-7,58
20,-7,58
22,-7,58
22,-7,58
20,-7,58
21,-7,58
22,-7,58
21,-7,58
21,-7,58
21,-7,58
21,-7,58
21,-7,58
22,-7,58
21,-7,58
21,-7,58
22,-7,58
21,-7,58
21,-7,58
22,-7,58
21,-7,58
20,-7,58
21,-7,58
22,-7,58
20,-7,58
21,-7,58
22,-7,58
21,-7,59
21,-7,58
21,-7,58
22,-7,58
21,-7,58
20,-7,58
21,-7,59
22,-7,58
20,-7,58
20,-7,58
22,-7,58
21,-7,58
20,-7,58
21,-7,58
22,-7,59
21,-7,58
21,-7,58
21,-7,58
21,-7,58
21,-7,58
20,-7,59
20,-7,58
20,-7,58
21,-7,59
20,-7,59
21,-7,59
22,-7,58
21,-7,59
20,-7,59
20,-7,58
20,-8,58
20,-7,58
21,-7,59
20,-7,58
20,-7,58
20,-7,59
20,-7,59
20,-6,59
19,-7,59
20,-7,58
21,-7,59
21,-7,58
20,-7,58
20,-7,58
21,-7,59
20,-7,58
19,-7,58
22,-7,59
22,-7,59
19,-7,58
21,-7,58
22,-7,59
20,-7,58
20,-7,59
19,-7,59
22,-7,59
20,-7,58
20,-7,58
20,-7,58
21,-7,59
20,-7,59
20,-7,58
20,-7,59
21,-7,59
20,-7,59
20,-7,59
20,-7,59
20,-7,58
20,-7,58
20,-7,59
20,-7,59
20,-7,58
20,-7,58
20,-7,59
21,-7,59
20,-7,59
20,-7,59
19,-7,59
21,-7,59
20,-7,59
19,-7,58
21,-7,58
20,-7,59
20,-7,58
21,-7,59
21,-7,58
20,-7,58
20,-7,59
21,-7,59
20,-7,58
20,-7,59
21,-7,59
20,-7,59
20,-7,58
21,-7,58
21,-7,59
19,-7,59
20,-7,59
21,-7,58
20,-7,58
20,-7,59
20,-7,59
20,-7,58
20,-7,59
20,-7,59
20,-7,59
21,-7,59
21,-7,59
20,-7,59
20,-7,59
21,-7,59
20,-7,59
20,-7,59
20,-7,58
21,-7,59
19,-7,58
19,-7,58
21,-7,59
21,-7,59
19,-7,58
20,-7,59
21,-7,59
20,-7,59
20,-7,58
20,-7,58
21,-7,59
20,-7,59
19,-7,59
21,-7,59
20,-7,59
21,-7,59
20,-7,58
20,-7,58
20,-7,59
21,-7,59
20,-7,58
20,-7,59
20,-7,59
20,-7,58
20,-7,59
21,-7,59
20,-7,59
20,-7,58
21,-7,59
21,-7,59
20,-7,58
20,-7,59
21,-7,59
21,-7,59
19,-7,58
21,-7,59
21,-7,59
20,-7,59
20,-7,59
20,-7,59
21,-7,59
20,-7,58
20,-7,59
20,-7,59
21,-7,59
20,-7,59
21,-7,59
21,-7,58
20,-7,59
21,-7,58
20,-7,58
20,-7,59
21,-7,58
20,-7,59
20,-7,59
20,-7,59
20,-7,58
20,-7,58
21,-7,59
20,-7,59
20,-7,58
21,-7,59
20,-7,59
20,-7,58
20,-6,59
21,-7,59
21,-7,59
21,-7,58
21,-7,58
21,-7,59
21,-7,59
20,-7,58
20,-7,59
21,-7,59
21,-7,59
20,-7,59
21,-7,58
20,-7,59
20,-7,58
20,-7,58
21,-7,58
20,-7,58
20,-7,59
21,-7,58
21,-7,59
20,-7,58
20,-7,59
21,-7,58
20,-7,58
21,-7,59
21,-7,59
20,-7,59
20,-7,58
21,-7,59
20,-7,58
20,-7,59
21,-7,59
21,-7,58
20,-7,59
20,-7,58
21,-7,59
21,-7,59
20,-7,58
20,-7,59
21,-7,59
20,-7,59
21,-7,59
21,-7,59
20,-7,59
21,-7,59
21,-7,59
20,-7,59
20,-7,58
21,-7,59
21,-6,58
20,-7,58
20,-7,59
21,-7,59
21,-7,58
20,-6,59
21,-6,59
21,-7,59
20,-7,59
21,-6,58
21,-7,59
20,-7,58
21,-7,59
21,-7,59
20,-7,58
21,-7,59
21,-7,59
20,-7,58
20,-7,59
20,-7,59
20,-7,58
21,-7,59
20,-7,58
21,-7,59
20,-7,59
20,-6,59
21,-6,59
20,-7,58
20,-6,59
21,-7,59
20,-7,59
20,-7,59
20,-7,59
21,-7,59
20,-7,59
20,-7,59
20,-7,58
20,-7,59
21,-7,59
20,-7,59
20,-6,58
21,-7,59
21,-7,59
21,-7,59
20,-7,58
21,-6,59
20,-7,59
20,-7,58
21,-7,59
21,-7,58
20,-7,59
20,-7,59
21,-7,59
20,-7,59
20,-7,59
21,-7,59
21,-7,59
20,-7,58
19,-7,58
21,-7,59
21,-7,58
20,-7,59
20,-7,58
20,-7,59
20,-7,59
21,-6,59
20,-7,58
20,-7,59
21,-7,59
20,-7,59
21,-7,58
20,-7,58
20,-7,59
19,-7,58
21,-7,59
21,-6,59
19,-7,59
19,-7,58
20,-7,58
21,-7,59
20,-7,59
20,-7,59
21,-7,59
20,-7,59
20,-7,58
21,-7,59
20,-7,59
20,-7,59
21,-7,59
20,-7,59
20,-7,59
21,-7,58
20,-7,58
20,-7,59
21,-7,59
20,-7,59
20,-7,59
20,-7,59
20,-7,58
20,-7,59
20,-7,59
20,-7,59
21,-7,59
21,-7,58
19,-7,59
20,-7,59
21,-7,59
20,-7,59
20,-7,59
20,-7,59
20,-7,59
20,-7,59
21,-7,59
20,-7,59
20,-7,59
21,-7,59
20,-7,58
20,-7,59
21,-7,59
20,-7,59
20,-7,59
20,-6,58
20,-7,59
21,-7,59
20,-6,58
20,-6,59
21,-7,59
20,-7,59
20,-6,59
20,-7,59
20,-7,58
20,-7,59
20,-7,59
20,-7,59
20,-7,59
20,-7,59
21,-7,59
20,-7,59
20,-6,59
20,-7,58
21,-7,59
20,-7,58
20,-7,59
21,-7,58
20,-7,59
20,-7,59
21,-7,58
20,-7,59
20,-7,58
20,-7,58
21,-7,59
20,-7,59
20,-7,59
21,-7,59
20,-7,59
20,-7,58
20,-7,58
21,-7,59
20,-7,59
20,-7,59
21,-7,59
21,-7,58
20,-7,58
20,-7,59
21,-7,59
20,-7,59
20,-7,58
20,-6,59
21,-7,58
20,-7,59
20,-7,59
21,-7,59
20,-7,59
20,-7,59
20,-7,59
21,-7,59
20,-7,59
20,-7,59
20,-7,59
21,-7,59
21,-7,59
20,-7,59
20,-7,58
21,-7,58
20,-7,59
20,-7,58
21,-7,58
21,-7,59
20,-7,59
20,-7,58
21,-7,59
20,-7,59
20,-6,59
20,-7,59
20,-7,59
20,-7,59
21,-9,58
19,-8,58
20,-7,59
21,-7,59
20,-7,59
20,-7,59
20,-7,59
21,-7,59
21,-7,58
20,-6,59
20,-7,59
20,-7,58
20,-7,58
21,-7,59
20,-7,59
20,-7,58
20,-7,58
20,-7,58
21,-6,58
21,-7,58
20,-6,58
20,-7,59
21,-7,58
20,-7,58
20,-7,58
21,-6,58
21,-7,58
20,-7,58
20,-6,59
21,-7,58
21,-7,59
21,-7,58
21,-7,59
21,-6,59
21,-7,58
21,-7,58
21,-7,58
21,-7,58
21,-7,58
20,-7,58
21,-6,59
21,-7,58
21,-7,59
21,-7,59
21,-7,59
20,-6,58
21,-7,58
21,-7,58
20,-7,58
21,-7,58
21,-7,59
20,-7,58
21,-7,58
21,-7,58
21,-7,58
21,-6,58
21,-7,59
21,-7,59
21,-7,59
21,-7,58
21,-7,58
21,-7,58
20,-7,58
21,-7,58
21,-6,58
21,-7,58
21,-7,59
21,-6,58
20,-7,58
21,-7,58
20,-7,58
21,-7,58
21,-7,58
20,-6,58
21,-6,58
21,-7,58
21,-7,58
21,-7,58
21,-7,58
21,-6,58
21,-7,58
21,-7,58
21,-6,58
21,-6,58
21,-7,58
20,-7,58
21,-7,58
21,-7,58
21,-6,59
21,-6,58
20,-6,58
21,-6,58
21,-7,59
21,-6,59
21,-6,58
21,-7,58
20,-6,58
21,-6,58
21,-6,58
20,-6,59
21,-7,58
21,-6,58
21,-6,59
21,-7,59
21,-6,58
20,-7,58
20,-6,58
22,-7,58
21,-6,58
20,-6,58
21,-7,58
21,-6,58
21,-7,58
21,-6,58
21,-6,58
21,-7,58
21,-7,58
21,-6,59
21,-6,58
21,-7,59
21,-6,58
21,-6,58
21,-6,58
21,-6,58
21,-6,58
21,-6,58
21,-6,58
21,-6,58
21,-6,58
22,-6,58
21,-7,58
20,-6,58
22,-7,58
21,-7,59
20,-6,58
21,-6,58
21,-6,58
21,-6,59
21,-6,58
20,-6,58
21,-7,58
21,-7,58
20,-6,58
21,-7,58
21,-7,58
20,-6,58
21,-7,58
21,-7,58
21,-6,58
21,-6,58
21,-7,58
21,-6,58
21,-6,58
21,-6,58
21,-6,58
21,-6,59
21,-6,59
21,-6,58
21,-6,58
21,-7,58
21,-6,58
21,-7,58
21,-6,58
21,-6,58
21,-7,58
21,-7,58
21,-6,58
21,-6,58
21,-7,58
21,-7,59
21,-7,58
21,-6,59
21,-7,59
21,-7,58
21,-7,58
21,-6,58
21,-6,58
21,-6,58
21,-6,59
21,-6,58
21,-6,58
21,-6,59
21,-7,58
21,-6,59
21,-6,58
21,-6,58
21,-6,59
21,-6,59
21,-6,58
21,-6,58
21,-6,58
21,-6,59
20,-6,58
21,-6,59
21,-6,58
20,-6,58
21,-6,58
21,-6,58
20,-6,59
21,-6,58
21,-6,58
20,-6,58
21,-6,59
21,-7,58
21,-6,58
21,-6,59
21,-6,58
20,-6,58
22,-6,59
21,-6,58
20,-6,58
21,-6,59
22,-6,58
20,-6,59
21,-7,58
21,-6,58
21,-6,59
21,-7,59
21,-6,58
21,-6,59
21,-7,58
21,-6,58
21,-6,58
21,-6,58
21,-7,58
21,-6,58
21,-6,58
21,-6,58
21,-7,58
21,-6,58
21,-6,59
21,-6,58
21,-6,59
21,-6,58
21,-7,58
21,-6,58
21,-7,58
21,-6,58
21,-6,58
21,-6,58
21,-6,58
21,-6,58
21,-7,58
21,-6,58
21,-6,58
21,-6,58
21,-6,58
21,-6,58
21,-6,58
21,-6,58
21,-6,58
21,-6,58
21,-6,58
21,-6,58
22,-6,58
21,-6,58
21,-6,58
21,-6,59
21,-6,58
21,-6,58
21,-6,58
21,-6,58
21,-6,58
21,-6,58
21,-6,59
21,-6,58
21,-6,59
21,-6,58
21,-7,58
21,-6,58
22,-6,58
21,-6,58
21,-6,58
22,-6,59
21,-6,58
21,-6,58
21,-6,58
21,-6,58
21,-6,58
21,-6,58
21,-6,58
21,-6,58
21,-6,58
21,-6,58
21,-6,58
21,-6,58
21,-6,58
21,-6,58
21,-7,58
21,-6,58
21,-6,58
21,-6,59
22,-6,58
21,-6,58
21,-6,58
21,-6,58
21,-6,58
21,-6,58
21,-6,58
21,-6,58
21,-6,58
21,-7,58
21,-6,58
21,-6,58
21,-6,58
21,-6,58
21,-6,58
21,-6,58
21,-7,58
21,-6,58
21,-6,58
21,-6,58
21,-6,58
21,-6,58
22,-6,58
21,-6,58
20,-6,58
22,-7,58
21,-6,58
21,-6,58
21,-6,58
21,-6,58
21,-6,58
21,-7,58
20,-6,58
21,-6,59
21,-6,58
21,-7,58
22,-7,58
21,-6,58
21,-7,58
20,-6,58
21,-6,58
21,-6,58
20,-6,58
21,-6,58
21,-6,59
20,-6,58
21,-6,59
21,-6,58
20,-6,58
21,-6,58
22,-6,58
21,-6,58
22,-6,59
21,-6,58
20,-6,58
22,-6,58
22,-6,58
20,-6,58
21,-6,58
22,-6,59
21,-6,59
20,-6,58
21,-6,58
21,-6,59
20,-6,59
21,-6,59
20,-6,58
21,-6,59
21,-6,59
20,-7,58
20,-6,58
22,-5,59
23,-6,59
21,-5,58
21,-6,58
22,-6,58
22,-5,58
22,-6,58
22,-6,58
20,-6,58
21,-5,58
22,-6,58
20,-6,58
21,-5,58
21,-6,58
20,-6,59
22,-6,59
19,-6,58
21,-5,59
22,-6,58
22,-6,59
21,-6,58
22,-6,58
20,-6,58
20,-5,59
21,-6,59
22,-6,57
20,-6,58
21,-6,58
22,-6,58
22,-6,58
22,-6,58
21,-6,58
21,-5,59
21,-5,58
21,-6,58
21,-6,58
21,-7,58
20,-6,58
22,-6,58
22,-6,58
21,-6,58
21,-6,58
22,-6,58
22,-6,58
21,-6,58
22,-6,58
21,-6,58
21,-6,58
22,-6,58
22,-6,58
21,-6,58
21,-6,58
22,-6,58
22,-6,58
22,-6,58
23,-5,58
21,-6,58
21,-6,58
22,-6,58
21,-6,58
22,-6,58
22,-6,58
22,-6,58
22,-6,58
22,-6,58
22,-6,58
22,-6,58
22,-6,58
21,-6,58
22,-6,58
22,-6,58
22,-6,58
22,-6,58
22,-5,58
22,-6,58
23,-6,58
21,-6,58
22,-6,58
23,-6,58
22,-6,58
21,-5,58
23,-6,58
22,-5,58
21,-6,58
22,-6,58
22,-6,58
21,-6,58
22,-6,58
22,-6,58
21,-6,58
21,-6,58
22,-6,58
22,-6,58
22,-6,58
21,-5,58
22,-6,58
22,-6,58
22,-6,58
22,-6,58
22,-6,58
22,-6,58
22,-6,58
22,-6,58
22,-6,58
21,-6,58
22,-6,58
22,-6,58
22,-6,58
21,-6,58
21,-6,58
23,-6,58
21,-6,58
21,-6,58
23,-6,58
20,-6,58
21,-6,58
23,-6,58
21,-6,58
21,-6,58
23,-6,58
23,-6,58
22,-6,58
22,-6,58
22,-6,58
21,-6,58
21,-6,58
22,-6,58
22,-6,58
21,-6,58
22,-6,58
23,-6,58
22,-6,58
23,-6,58
22,-6,58
21,-6,58
21,-6,58
23,-6,58
20,-5,58
21,-6,58
23,-6,58
22,-6,58
21,-6,58
22,-6,58
21,-6,58
21,-5,58
22,-6,58
19,-6,58
19,-5,58
23,-6,58
23,-6,58
22,-6,59
22,-5,58
23,-5,58
22,-6,58
21,-6,58
21,-6,58
22,-6,58
21,-6,58
21,-6,58
22,-6,58
21,-6,58
21,-6,58
22,-6,58
21,-6,58
20,-6,58
21,-6,58
22,-6,58
20,-5,58
22,-6,58
23,-6,59
21,-6,58
21,-6,58
22,-6,58
22,-6,58
21,-6,58
21,-6,58
22,-6,58
22,-5,58
21,-5,58
22,-6,58
22,-6,58
22,-5,58
22,-5,58
21,-5,58
22,-5,58
23,-5,58
22,-5,58
22,-5,58
22,-6,58
22,-5,58
22,-5,58
22,-5,58
21,-5,58
22,-6,58
22,-6,58
22,-6,58
22,-6,58
23,-5,58
22,-5,58
23,-5,58
23,-6,58
21,-6,58
22,-6,58
22,-6,58
21,-6,58
21,-6,58
22,-5,58
22,-5,58
22,-5,58
22,-6,58
22,-5,58
22,-5,58
22,-5,58
21,-5,58
22,-5,58
22,-5,58
22,-5,58
23,-5,58
22,-5,58
21,-6,58
22,-5,58
23,-6,58
22,-5,58
21,-5,58
22,-6,58
22,-6,58
22,-5,58
22,-5,58
22,-6,58
21,-6,58
21,-5,58
22,-6,58
21,-6,58
21,-6,58
22,-6,58
22,-6,58
22,-6,58
22,-6,58
22,-6,58
22,-6,58
22,-6,58
22,-5,58
22,-6,58
21,-6,58
22,-6,58
23,-6,58
21,-6,58
21,-6,58
22,-6,58
22,-6,58
21,-6,59
20,-6,58
22,-5,58
25,-6,58
21,-7,57
16,-7,58
19,-6,58
25,-5,59
21,-6,58
19,-5,59
21,-6,59
23,-6,58
21,-6,59
20,-6,58
21,-6,58
21,-6,58
21,-6,58
19,-5,59
20,-5,59
23,-5,59
20,-6,58
19,-5,59
22,-5,59
21,-6,58
19,-5,58
21,-6,59
22,-5,59
20,-6,59
21,-5,59
23,-5,59
21,-5,58
20,-5,59
21,-6,58
20,-6,59
21,-6,59
21,-5,59
21,-5,59
21,-5,58
21,-5,58
21,-5,59
21,-6,59
20,-5,58
21,-5,58
21,-6,58
21,-5,58
21,-5,59
22,-5,58
21,-5,58
21,-5,59
21,-6,59
21,-5,59
20,-5,58
21,-5,59
21,-5,58
21,-5,58
21,-5,58
22,-6,59
20,-5,58
21,-5,59
22,-5,59
21,-5,59
21,-5,59
22,-5,58
21,-5,58
21,-5,58
22,-5,58
21,-5,58
21,-5,58
21,-5,58
21,-5,58
22,-5,58
21,-5,58
21,-5,58
22,-5,58
21,-5,58
21,-5,59
21,-5,58
21,-5,58
21,-5,58
22,-5,58
22,-5,58
21,-5,59
22,-5,58
22,-5,59
21,-5,58
22,-5,58
22,-5,58
21,-5,58
22,-5,58
22,-5,58
21,-5,58
22,-5,58
23,-5,58
21,-5,58
23,-5,58
23,-5,59
21,-5,58
22,-5,58
24,-5,58
21,-5,58
21,-5,58
23,-5,58
22,-5,58
20,-5,58
21,-5,58
22,-5,58
20,-5,58
21,-5,59
21,-5,59
20,-5,58
22,-5,58
22,-6,59
20,-5,59
21,-5,59
21,-6,58
19,-5,58
22,-5,59
22,-6,59
20,-5,58
21,-5,59
21,-5,59
20,-5,59
20,-5,58
20,-5,59
20,-6,58
21,-5,59
21,-5,59
20,-5,58
19,-5,58
22,-6,58
23,-6,59
19,-5,59
21,-6,59
22,-5,59
21,-5,59
21,-5,59
21,-5,58
20,-5,59
20,-5,58
20,-6,58
23,-6,58
22,-5,59
21,-5,59
21,-5,59
20,-5,58
20,-5,58
20,-5,59
22,-5,59
21,-5,59
20,-5,58
21,-5,59
21,-6,59
21,-5,59
20,-5,59
21,-5,59
22,-5,59
21,-6,59
20,-5,58
22,-5,59
20,-5,59
20,-5,59
21,-5,58
21,-5,59
21,-5,59
21,-5,58
21,-5,58
21,-5,59
21,-5,59
21,-5,59
20,-5,58
22,-9,58
22,-5,59
21,-5,58
20,-5,58
21,-5,59
21,-5,59
21,-5,59
21,-5,59
21,-5,58
22,-5,58
22,-5,59
21,-5,58
21,-5,59
21,-5,59
21,-5,58
22,-5,58
22,-5,58
21,-5,58
21,-5,58
21,-6,58
21,-6,59
22,-6,58
21,-5,58
21,-6,58
22,-5,58
22,-5,58
21,-6,58
22,-6,58
22,-6,58
22,-5,58
21,-5,58
22,-5,58
21,-6,58
21,-5,58
22,-6,58
21,-6,58
21,-6,58
22,-6,58
22,-6,58
21,-6,58
21,-6,58
22,-6,58
21,-6,58
22,-6,58
22,-5,58
21,-6,58
21,-6,58
22,-6,58
22,-6,58
22,-6,58
21,-6,58
22,-5,58
22,-6,58
22,-6,58
22,-5,58
22,-6,58
22,-6,58
22,-6,58
22,-6,58
22,-6,58
22,-6,58
22,-6,58
22,-6,58
22,-6,58
22,-6,58
22,-6,58
22,-6,58
22,-6,58
22,-6,58
22,-6,58
22,-6,58
22,-6,58
22,-6,58
21,-6,58
22,-6,58
23,-6,58
21,-6,58
22,-6,58
23,-6,58
21,-6,58
22,-6,58
23,-6,58
22,-6,58
21,-6,58
22,-6,58
22,-6,58
22,-6,58
22,-6,58
21,-6,58
23,-6,58
22,-6,58
21,-6,58
22,-6,58
22,-6,58
22,-6,58
22,-6,58
23,-6,58
22,-6,58
22,-6,58
23,-6,58
23,-6,58
22,-6,58
22,-6,58
23,-6,58
21,-6,58
22,-6,58
23,-6,58
21,-6,58
22,-6,58
23,-6,58
22,-6,58
22,-6,58
23,-6,58
22,-6,58
22,-6,58
22,-6,58
22,-6,58
22,-6,58
22,-5,58
22,-5,58
22,-6,58
22,-6,58
22,-6,58
22,-5,58
22,-5,58
22,-6,58
22,-6,58
22,-6,58
22,-6,58
21,-6,58
23,-6,58
22,-6,58
22,-6,58
23,-6,58
22,-6,58
21,-6,58
23,-6,58
22,-6,58
22,-6,58
22,-6,58
22,-6,58
22,-6,58
23,-6,58
22,-6,58
21,-6,58
22,-6,58
23,-6,58
21,-6,58
22,-6,58
22,-6,58
21,-6,58
22,-6,58
23,-6,58
21,-6,58
22,-6,58
23,-6,58
21,-6,58
22,-6,58
22,-6,58
22,-6,58
22,-6,58
22,-6,58
22,-6,58
22,-6,58
23,-6,58
22,-6,58
22,-6,58
22,-6,58
22,-6,58
22,-6,58
22,-6,58
22,-6,58
22,-6,58
22,-6,58
22,-6,58
22,-6,58
22,-6,58
22,-6,58
22,-6,58
22,-6,58
22,-6,58
22,-6,58
22,-6,58
22,-6,58
22,-6,58
22,-6,58
22,-6,58
22,-6,58
22,-6,58
22,-6,58
22,-6,58
22,-6,58
21,-6,58
22,-6,58
22,-6,58
22,-6,58
22,-6,58
22,-6,58
22,-6,58
22,-6,58
21,-6,58
22,-6,58
22,-6,58
21,-6,58
23,-6,58
22,-6,58
21,-6,58
22,-6,58
22,-6,58
22,-6,58
21,-6,58
21,-6,58
22,-6,58
22,-6,58
21,-6,58
22,-6,58
21,-5,58
22,-6,58
22,-6,58
22,-6,58
22,-6,58
22,-6,58
22,-6,58
22,-6,58
21,-6,58
22,-6,58
22,-5,58
21,-6,58
22,-6,58
22,-6,58
22,-6,58
22,-6,58
22,-6,58
22,-6,58
22,-6,58
22,-6,58
22,-6,58
22,-6,58
22,-6,58
22,-6,58
22,-6,58
22,-6,58
21,-6,58
22,-6,58
22,-6,58
22,-6,58
22,-6,58
22,-6,58
22,-6,58
22,-6,58
22,-6,58
22,-6,58
22,-6,58
22,-6,58
22,-6,58
22,-6,58
22,-6,58
22,-6,58
21,-6,58
22,-6,58
22,-6,58
22,-6,58
22,-5,58
22,-6,58
22,-6,58
22,-6,58
22,-6,58
22,-6,58
22,-6,58
22,-6,58
22,-6,58
22,-6,58
22,-6,58
22,-6,58
22,-6,58
22,-6,58
22,-6,58
21,-5,58
22,-5,58
22,-6,58
22,-6,58
22,-6,58
22,-6,58
22,-6,58
22,-6,58
22,-6,58
22,-6,58
22,-6,58
22,-6,58
22,-6,58
22,-6,58
22,-6,58
22,-6,58
22,-6,58
22,-6,58
22,-6,58
22,-6,58
22,-6,58
22,-6,58
22,-6,58
22,-6,58
22,-6,58
22,-6,58
22,-6,58
21,-6,58
22,-6,58
22,-6,58
22,-6,58
22,-6,58
22,-6,58
22,-6,58
22,-5,58
22,-6,58
22,-6,58
22,-6,58
22,-6,58
22,-6,58
22,-6,58
22,-6,58
22,-6,58
21,-6,58
22,-6,58
22,-6,58
22,-6,58
22,-6,58
22,-6,58
22,-6,58
22,-6,58
22,-6,58
22,-5,58
22,-5,58
22,-5,58
23,-5,59
21,-6,58
21,-5,58
21,-6,59
21,-6,58
21,-5,58
20,-5,58
20,-5,58
24,-6,58
23,-5,58
21,-5,58
22,-5,58
22,-5,58
22,-6,58
23,-5,58
21,-5,58
22,-5,58
21,-5,58
21,-6,58
23,-5,59
21,-5,58
21,-5,58
22,-5,58
21,-5,58
21,-5,58
23,-5,58
23,-5,58
21,-5,58
22,-5,58
22,-5,58
21,-5,58
22,-5,58
22,-5,58
21,-5,58
22,-5,58
22,-5,58
21,-5,58
23,-5,58
22,-5,58
21,-5,58
22,-5,59
22,-5,58
21,-5,58
22,-5,58
22,-5,58
22,-5,58
22,-5,58
22,-5,58
21,-5,58
22,-5,59
22,-6,58
21,-5,58
22,-5,58
22,-5,58
20,-5,58
22,-5,58
22,-5,59
20,-5,58
22,-6,58
23,-5,58
21,-5,58
21,-5,58
22,-5,58
22,-5,58
21,-5,58
22,-5,58
22,-5,58
21,-5,58
21,-5,58
22,-5,58
22,-5,58
22,-5,59
21,-5,58
22,-5,58
22,-6,58
22,-5,58
21,-5,58
22,-5,58
21,-5,58
21,-5,58
22,-5,58
21,-5,58
21,-5,58
22,-5,58
21,-6,58
21,-5,58
22,-5,58
22,-5,58
21,-5,58
21,-5,58
22,-5,58
22,-6,58
22,-5,58
22,-5,58
21,-5,58
21,-5,58
22,-5,58
22,-6,58
21,-6,58
21,-5,58
21,-5,58
22,-5,58
21,-5,58
21,-6,58
22,-5,58
22,-5,58
21,-5,58
22,-5,58
22,-5,58
22,-6,58
22,-5,58
21,-5,58
21,-6,58
22,-6,58
22,-6,58
21,-6,58
22,-5,58
21,-6,58
21,-6,58
22,-5,58
21,-6,58
21,-6,58
22,-6,58
21,-6,58
21,-6,59
22,-5,58
22,-5,59
19,-6,58
23,-6,58
24,-6,58
20,-5,58
21,-6,58
22,-6,58
21,-5,58
22,-6,59
21,-6,58
21,-6,58
22,-6,59
21,-6,58
20,-6,58
21,-5,58
21,-6,59
21,-6,58
23,-6,58
22,-6,58
22,-5,58
21,-6,58
21,-6,58
22,-5,58
21,-6,59
20,-5,58
21,-6,58
21,-6,58
22,-6,58
23,-6,59
21,-6,58
21,-6,58
22,-6,58
21,-6,58
21,-6,58
21,-6,58
21,-6,58
22,-6,58
22,-6,58
21,-6,58
21,-6,58
22,-6,59
21,-6,58
22,-6,58
22,-6,58
22,-6,59
22,-6,58
21,-6,58
22,-6,58
21,-6,58
21,-6,58
21,-6,58
22,-6,58
21,-6,58
21,-6,58
22,-6,58
21,-6,58
21,-5,58
21,-6,58
22,-6,58
22,-6,58
21,-5,58
21,-6,58
21,-6,58
21,-5,59
21,-6,59
21,-6,58
21,-6,58
21,-6,58
21,-6,58
22,-5,58
21,-5,59
21,-5,58
21,-5,58
22,-6,58
21,-6,58
21,-6,58
21,-5,58
21,-6,58
21,-6,58
21,-5,59
20,-5,58
21,-5,58
21,-5,58
21,-6,58
21,-6,58
21,-5,58
21,-5,58
22,-6,59
21,-6,58
21,-6,58
22,-6,58
21,-5,59
21,-6,58
22,-5,58
21,-6,58
21,-5,58
22,-6,58
21,-6,58
21,-5,58
21,-5,58
21,-6,58
22,-6,58
22,-6,58
21,-6,58
21,-6,58
21,-5,58
21,-6,58
22,-6,58
21,-5,59
22,-6,58
22,-6,58
22,-6,58
22,-5,58
22,-6,58
22,-6,58
22,-6,58
21,-6,58
21,-6,58
22,-6,58
22,-6,58
21,-6,58
21,-6,58
22,-6,58
22,-6,58
21,-6,58
22,-6,58
22,-6,58
21,-6,58
22,-6,58
21,-5,58
21,-6,58
22,-6,58
21,-6,58
21,-6,58
22,-6,58
21,-6,58
21,-6,58
22,-6,58
22,-6,58
21,-6,58
22,-6,58
22,-5,58
21,-6,58
22,-6,58
22,-6,58
21,-6,58
22,-6,58
22,-6,58
21,-6,58
22,-6,58
22,-6,58
21,-6,58
22,-6,58
22,-6,58
21,-6,58
22,-6,58
22,-6,58
21,-6,58
21,-6,58
21,-6,58
22,-6,58
22,-6,58
21,-6,58
22,-6,58
22,-6,58
21,-6,58
21,-6,58
21,-6,58
22,-6,59
22,-6,58
21,-6,58
22,-6,58
21,-6,58
21,-6,58
22,-6,58
22,-6,58
21,-5,58
21,-6,59
22,-5,58
21,-5,58
21,-5,58
21,-6,58
21,-5,58
21,-6,58
22,-6,58
21,-5,58
21,-5,58
22,-5,59
21,-5,59
21,-6,58
21,-6,58
21,-6,58
21,-5,59
22,-6,58
21,-6,58
21,-6,58
23,-6,58
21,-6,58
21,-6,58
21,-6,59
21,-6,58
21,-6,58
21,-6,59
22,-6,58
21,-6,58
21,-6,58
21,-5,59
20,-6,58
21,-6,58
21,-6,58
21,-6,58
21,-6,58
21,-6,58
21,-6,58
21,-6,58
21,-6,58
21,-6,59
21,-6,58
21,-6,58
21,-6,58
21,-6,58
21,-6,58
21,-6,58
21,-6,59
21,-6,58
21,-6,58
21,-6,59
21,-6,58
21,-6,58
21,-6,58
22,-6,58
21,-6,58
21,-6,59
21,-6,59
20,-6,58
22,-6,58
21,-6,58
20,-6,58
21,-6,59
21,-6,59
21,-6,58
21,-6,59
21,-6,58
21,-6,58
22,-6,59
21,-6,58
20,-6,58
21,-6,58
21,-6,58
21,-6,58
21,-6,58
21,-6,58
21,-6,59
21,-6,58
21,-6,58
21,-6,59
22,-6,58
21,-6,58
21,-6,58
22,-6,58
21,-6,58
21,-6,58
21,-6,59
20,-6,58
21,-6,59
21,-6,59
21,-6,59
21,-6,59
20,-6,58
21,-6,59
21,-6,59
20,-6,58
21,-6,58
22,-6,58
20,-6,58
20,-6,58
22,-6,58
21,-6,59
20,-6,59
21,-6,59
22,-7,59
22,-6,59
20,-7,59
19,-7,59
20,-7,58
21,-7,59
20,-8,59
19,-7,59
19,-8,59
17,-8,59
17,-9,59
20,-9,59
20,-9,59
18,-8,60
18,-9,59
18,-9,59
16,-10,59
12,-10,59
14,-9,60
17,-9,60
14,-9,59
13,-9,59
17,-10,60
17,-10,60
15,-10,60
14,-8,60
18,-9,60
19,-8,60
15,-9,59
16,-9,59
19,-8,60
18,-9,60
15,-8,59
16,-9,60
18,-9,60
17,-8,60
16,-8,60
17,-8,60
17,-8,59
17,-9,59
17,-8,60
17,-8,60
16,-8,59
17,-8,60
17,-8,60
16,-8,59
18,-8,60
17,-8,60
17,-8,60
17,-8,60
16,-8,60
17,-8,60
17,-9,59
16,-8,59
16,-8,59
18,-8,60
16,-8,59
17,-8,60
18,-8,59
17,-8,60
17,-8,59
16,-9,59
17,-8,60
17,-8,60
17,-8,60
17,-8,59
17,-8,60
17,-8,60
17,-8,60
17,-8,60
17,-8,59
17,-8,60
17,-8,60
17,-8,60
16,-8,60
17,-8,60
17,-8,60
17,-8,59
17,-8,59
18,-8,60
17,-8,59
16,-8,60
18,-8,60
17,-8,59
17,-8,60
18,-8,60
17,-7,60
16,-8,60
18,-8,60
17,-8,60
15,-8,60
18,-8,60
17,-8,60
16,-8,59
18,-8,60
17,-8,59
17,-8,59
17,-8,59
18,-8,60
18,-7,59
16,-7,60
16,-8,60
17,-8,60
18,-8,60
18,-8,60
16,-8,59
17,-8,60
18,-8,60
16,-8,59
16,-8,60
18,-8,60
17,-8,60
16,-8,60
17,-8,60
18,-8,60
16,-8,59
16,-7,59
17,-8,59
17,-7,60
17,-8,60
17,-8,59
18,-7,60
18,-8,60
17,-7,60
17,-8,59
18,-8,60
17,-7,60
17,-7,60
17,-7,60
18,-8,59
17,-8,59
16,-8,60
18,-8,59
18,-7,60
16,-7,59
18,-8,60
18,-8,59
16,-7,59
18,-8,60
18,-8,59
17,-8,59
18,-7,60
18,-8,60
16,-7,59
17,-8,59
18,-8,59
17,-7,59
17,-7,59
18,-8,60
17,-7,60
17,-7,59
18,-8,59
17,-7,59
17,-8,59
18,-8,59
17,-7,59
18,-8,60
18,-8,60
17,-8,59
17,-8,60
18,-7,59
17,-8,60
17,-8,59
17,-8,59
17,-8,59
17,-8,60
17,-8,60
16,-8,59
18,-7,60
18,-8,60
15,-8,59
17,-8,59
19,-8,60
16,-8,59
17,-8,59
18,-8,60
17,-7,60
16,-7,60
18,-8,59
17,-7,59
17,-7,60
18,-8,60
17,-7,60
17,-7,59
18,-7,60
17,-7,60
16,-8,60
17,-7,60
17,-7,60
17,-8,60
16,-7,60
18,-8,60
17,-8,60
16,-7,60
18,-8,60
18,-8,60
16,-7,59
17,-8,60
18,-7,60
17,-8,60
16,-8,59
17,-8,60
17,-8,60
16,-8,60
17,-7,59
17,-7,59
17,-8,60
17,-7,59
17,-8,60
17,-8,60
17,-7,60
17,-8,59
18,-8,59
17,-8,59
17,-8,59
17,-8,60
17,-8,59
17,-8,60
17,-8,59
17,-7,60
17,-7,59
18,-7,60
18,-8,60
17,-8,60
17,-7,60
18,-8,60
17,-8,60
17,-8,59
17,-8,60
18,-8,60
16,-8,60
17,-8,59
17,-8,60
17,-7,60
17,-8,59
16,-8,59
18,-7,60
19,-8,60
17,-7,59
17,-7,59
18,-8,59
17,-7,59
16,-7,59
18,-8,60
17,-7,60
17,-7,59
18,-7,60
19,-8,60
17,-7,60
16,-7,59
19,-7,59
18,-7,59
17,-8,59
19,-7,59
17,-7,60
17,-8,59
18,-8,59
18,-7,59
18,-7,60
18,-7,60
17,-8,59
17,-7,60
18,-8,60
17,-8,59
17,-7,59
18,-8,59
17,-8,59
18,-7,59
18,-7,59
17,-8,59
17,-7,59
18,-7,59
18,-7,59
17,-7,59
18,-7,60
18,-8,59
18,-8,59
18,-7,59
17,-8,59
17,-8,59
18,-7,59
18,-8,59
18,-8,59
17,-7,59
18,-8,59
18,-7,60
17,-7,60
17,-7,59
18,-7,59
17,-7,59
17,-7,59
18,-7,59
17,-8,59
18,-7,59
17,-7,59
18,-8,59
18,-7,60
17,-7,59
18,-7,59
18,-7,59
17,-7,59
17,-7,59
18,-7,60
17,-7,59
17,-7,59
18,-8,59
18,-7,59
17,-8,60
17,-7,59
18,-7,60
18,-7,59
17,-7,59
18,-7,60
17,-7,60
18,-7,60
17,-7,59
17,-7,59
18,-7,59
18,-7,60
17,-7,60
17,-7,59
18,-7,60
18,-7,59
17,-7,60
18,-7,60
18,-8,59
17,-7,59
18,-7,59
18,-7,59
17,-7,59
18,-7,59
17,-7,60
18,-7,59
17,-7,59
18,-7,59
17,-7,60
18,-8,59
18,-7,59
17,-7,59
18,-7,60
18,-7,59
17,-7,59
18,-7,59
18,-7,59
17,-7,60
18,-7,59
18,-7,59
18,-7,59
18,-7,59
18,-7,59
17,-7,59
18,-7,60
18,-7,60
17,-7,59
18,-8,60
18,-7,59
17,-7,59
17,-7,59
18,-8,59
18,-7,60
18,-8,59
18,-7,59
18,-7,60
18,-7,59
18,-7,59
17,-7,59
18,-7,59
18,-7,59
18,-7,59
19,-7,59
17,-7,59
18,-7,59
18,-7,59
17,-7,59
18,-7,60
18,-7,59
17,-7,59
19,-8,59
17,-7,59
17,-7,60
18,-7,59
18,-7,59
17,-7,59
18,-7,59
18,-7,59
17,-7,59
17,-7,59
18,-7,60
18,-7,59
17,-7,60
18,-7,59
18,-7,59
17,-7,59
18,-7,59
18,-7,60
17,-7,60
18,-7,59
17,-7,59
18,-7,60
18,-7,60
17,-7,59
18,-7,59
18,-7,60
18,-7,59
17,-7,59
17,-7,59
18,-7,60
17,-7,59
17,-7,59
18,-7,60
17,-7,59
17,-7,59
18,-7,59
17,-7,60
17,-7,59
18,-7,60
18,-7,60
17,-7,59
18,-7,59
18,-7,59
17,-7,59
18,-7,60
18,-7,59
17,-7,59
18,-7,60
18,-7,60
18,-7,60
18,-7,60
17,-7,59
18,-7,59
18,-7,60
17,-7,59
18,-7,59
17,-7,59
17,-7,59
18,-7,59
18,-7,59
17,-7,59
18,-7,60
18,-7,59
17,-7,59
18,-7,60
18,-7,59
17,-7,59
18,-7,59
18,-7,59
17,-7,59
18,-7,59
17,-7,59
18,-7,59
18,-7,59
18,-7,59
18,-7,59
18,-7,59
18,-7,59
18,-7,59
18,-7,59
18,-7,59
18,-7,60
17,-7,59
18,-7,59
18,-7,59
18,-7,59
18,-7,60
18,-7,60
18,-7,59
18,-7,59
18,-7,59
18,-7,59
18,-7,59
18,-7,59
18,-7,59
18,-8,59
17,-7,59
18,-7,59
18,-7,59
18,-7,59
18,-7,60
18,-7,60
18,-7,60
18,-7,60
18,-7,59
18,-7,59
18,-7,60
18,-7,59
18,-7,60
18,-7,59
18,-7,60
17,-7,59
18,-7,59
18,-7,60
17,-7,59
18,-7,59
18,-7,60
17,-7,59
18,-7,59
19,-7,60
17,-7,60
18,-7,59
18,-7,59
18,-7,59
18,-7,59
18,-7,59
17,-7,60
18,-7,60
18,-7,59
17,-7,59
18,-7,60
18,-7,60
17,-7,60
17,-7,59
18,-7,60
18,-7,59
18,-7,59
18,-7,59
18,-7,59
17,-7,59
18,-7,59
18,-7,59
18,-7,59
18,-7,60
18,-7,60
18,-7,59
18,-7,60
18,-7,59
17,-7,59
18,-7,59
18,-7,59
18,-7,59
18,-7,59
18,-7,59
18,-7,59
18,-7,59
18,-7,59
17,-7,60
18,-7,59
18,-7,60
18,-7,60
18,-7,59
18,-7,59
17,-7,59
18,-7,59
18,-7,59
17,-7,59
18,-7,59
18,-7,60
18,-7,59
18,-7,59
18,-7,60
18,-7,60
17,-7,59
18,-7,59
18,-7,59
17,-7,59
18,-7,59
18,-7,59
17,-7,59
19,-7,59
18,-7,59
17,-7,59
19,-7,59
18,-7,60
17,-7,59
19,-7,59
18,-7,59
17,-7,59
18,-7,59
18,-7,59
18,-7,59
18,-7,59
18,-7,59
18,-7,59
18,-7,60
17,-7,59
18,-7,59
18,-7,60
17,-7,59
18,-7,59
19,-7,59
17,-7,59
18,-7,59
18,-7,60
17,-7,59
18,-7,59
18,-7,60
17,-7,59
18,-7,59
18,-7,59
17,-7,59
18,-7,59
18,-7,59
18,-7,59
18,-7,59
18,-7,59
18,-7,59
18,-7,59
18,-7,59
18,-7,60
17,-7,59
17,-7,59
18,-7,59
18,-7,59
18,-7,60
18,-7,59
18,-7,60
17,-7,60
17,-7,59
18,-7,59
18,-7,59
17,-7,59
18,-7,59
18,-7,59
17,-7,59
18,-7,59
18,-7,60
17,-7,59
18,-7,59
18,-7,59
18,-7,59
18,-7,59
18,-7,59
18,-7,59
18,-7,59
18,-7,59
17,-7,59
18,-7,60
18,-7,59
18,-7,59
18,-7,59
18,-7,59
18,-7,60
18,-7,59
18,-7,59
17,-7,59
18,-7,59
18,-7,59
18,-7,59
18,-7,60
18,-7,59
17,-7,59
18,-7,59
18,-7,59
18,-7,59
18,-7,59
18,-7,59
17,-7,59
18,-7,59
18,-7,60
17,-7,59
18,-7,60
18,-7,59
17,-7,59
17,-7,59
18,-7,60
17,-7,59
18,-7,59
18,-7,60
17,-7,59
18,-7,59
18,-7,59
17,-7,59
18,-7,59
18,-7,59
17,-7,59
18,-7,59
18,-7,60
18,-7,59
18,-7,59
18,-7,59
17,-7,59
17,-7,59
18,-7,59
18,-7,59
18,-7,60
18,-7,59
17,-7,60
17,-7,59
18,-7,59
18,-8,59
18,-7,59
18,-7,59
17,-7,60
17,-7,59
17,-7,59
18,-7,59
18,-7,60
17,-7,60
18,-7,59
18,-7,59
18,-7,59
17,-7,59
17,-7,59
19,-7,60
17,-7,59
17,-7,59
19,-7,59
17,-7,59
17,-7,59
18,-7,59
17,-7,59
18,-7,59
18,-7,59
18,-7,59
18,-7,59
17,-7,59
17,-7,59
19,-7,59
17,-7,59
17,-7,59
19,-7,59
17,-7,59
18,-7,59
18,-7,59
17,-7,59
18,-7,59
18,-7,60
17,-7,60
18,-7,59
19,-7,60
17,-7,59
17,-7,59
19,-7,59
17,-7,59
17,-7,60
19,-7,59
16,-7,59
17,-7,59
19,-7,59
17,-7,59
18,-7,59
18,-7,60
17,-7,59
18,-7,59
18,-7,59
17,-7,59
18,-7,59
19,-7,59
17,-7,59
17,-7,59
19,-7,59
17,-7,59
17,-7,59
18,-7,60
17,-7,59
18,-7,59
18,-7,59
17,-7,59
18,-7,59
18,-7,59
18,-7,59
18,-7,59
18,-7,59
18,-7,59
18,-7,60
17,-7,59
18,-7,60
18,-7,59
17,-7,59
18,-7,60
18,-7,60
17,-7,59
18,-7,59
18,-7,59
17,-7,59
18,-7,59
18,-7,59
17,-7,59
18,-7,59
18,-7,59
18,-7,59
18,-7,59
18,-7,60
18,-7,59
18,-7,59
18,-7,59
18,-7,59
18,-7,60
18,-7,60
18,-7,59
18,-7,59
18,-7,59
17,-7,59
18,-7,59
18,-7,59
17,-7,59
18,-7,59
18,-7,59
17,-7,59
18,-7,59
18,-7,60
17,-7,59
18,-7,59
19,-7,59
17,-7,60
17,-7,59
19,-7,60
18,-7,59
18,-7,59
18,-7,59
18,-7,59
18,-7,59
18,-7,59
18,-7,59
18,-7,59
18,-7,59
18,-7,59
17,-7,59
18,-7,60
18,-7,59
18,-7,59
18,-7,60
18,-7,59
17,-7,59
18,-7,59
18,-7,59
17,-7,59
18,-7,59
18,-7,59
18,-7,59
18,-7,59
18,-7,59
18,-7,59
18,-7,59
18,-7,59
18,-7,59
18,-7,59
18,-7,59
18,-7,60
18,-7,59
18,-7,59
18,-7,60
17,-7,59
18,-7,59
18,-7,59
17,-7,60
18,-7,59
18,-7,60
18,-7,60
18,-7,60
17,-7,60
18,-7,59
18,-7,59
17,-7,59
18,-7,60
18,-7,60
17,-7,59
18,-7,59
18,-7,59
18,-7,60
18,-7,60
18,-7,59
18,-7,59
17,-7,59
18,-7,59
19,-7,59
17,-7,59
18,-7,59
18,-7,60
17,-7,59
17,-7,59
18,-7,59
17,-7,59
18,-7,59
18,-7,59
18,-7,59
18,-7,59
18,-7,60
18,-7,59
18,-7,60
18,-7,60
18,-7,59
18,-7,59
18,-7,59
18,-7,59
18,-7,59
18,-7,59
18,-7,59
18,-7,59
18,-7,59
18,-7,59
18,-7,60
18,-7,59
18,-7,59
18,-7,59
18,-7,59
18,-7,59
18,-7,59
18,-7,60
18,-7,59
18,-7,59
18,-7,59
18,-7,59
18,-7,59
18,-7,59
18,-7,59
18,-7,59
18,-7,59
17,-7,59
19,-7,59
18,-7,59
17,-7,59
19,-7,59
18,-7,59
17,-7,59
18,-7,59
18,-7,59
17,-7,59
18,-7,59
18,-7,59
17,-7,59
18,-7,59
18,-7,59
17,-7,59
18,-7,59
18,-7,59
18,-7,59
18,-7,59
19,-7,59
18,-7,59
17,-7,59
19,-7,59
18,-7,59
18,-7,59
18,-7,59
18,-7,59
18,-7,59
18,-7,59
18,-7,59
18,-7,59
19,-7,59
18,-7,60
17,-7,59
18,-7,59
18,-7,59
18,-7,59
18,-7,59
18,-7,59
18,-7,59
18,-7,59
18,-7,59
18,-7,59
18,-7,59
18,-7,59
17,-7,59
17,-7,59
18,-7,59
18,-7,59
17,-7,59
18,-7,59
18,-7,59
18,-7,59
18,-7,59
18,-7,59
18,-7,59
18,-7,59
18,-7,59
18,-7,59
18,-7,59
18,-7,59
18,-7,59
18,-7,59
18,-7,59
18,-7,59
18,-7,59
18,-7,59
18,-7,59
18,-7,59
18,-7,59
18,-7,59
18,-7,59
18,-7,59
18,-7,59
18,-7,59
18,-7,59
18,-7,59
18,-7,59
18,-7,59
18,-7,59
18,-7,59
18,-7,59
18,-7,59
19,-7,59
18,-7,59
17,-7,59
18,-7,59
18,-7,59
18,-7,59
18,-7,59
18,-7,59
18,-7,59
18,-7,59
18,-7,59
18,-7,59
18,-7,59
18,-7,59
18,-7,59
18,-7,59
18,-7,59
18,-7,59
18,-7,59
18,-7,59
18,-7,59
18,-7,60
18,-7,59
18,-7,59
18,-7,59
18,-7,60
17,-7,59
18,-7,59
19,-7,59
18,-7,59
18,-7,59
18,-7,59
18,-7,59
18,-7,59
17,-7,59
18,-7,59
18,-7,59
18,-7,59
18,-7,59
18,-7,60
18,-7,59
18,-7,59
18,-7,59
18,-7,59
18,-7,59
18,-7,59
18,-7,60
18,-7,59
18,-7,60
18,-7,59
18,-7,59
18,-7,59
18,-7,59
18,-7,59
18,-7,59
18,-7,59
18,-7,59
18,-7,59
18,-7,59
18,-7,59
17,-7,59
18,-7,59
18,-7,59
18,-7,60
18,-7,59
18,-7,59
18,-7,59
18,-7,59
19,-7,59
18,-7,59
18,-7,59
18,-7,59
18,-7,59
18,-7,59
18,-7,59
18,-7,59
18,-7,59
18,-7,59
18,-7,59
18,-7,59
18,-7,59
18,-7,59
18,-7,59
18,-7,59
18,-7,59
18,-7,59
18,-7,59
18,-7,59
18,-7,59
18,-7,59
18,-7,60
18,-7,59
19,-7,59
19,-7,59
18,-7,59
19,-7,59
18,-7,59
18,-7,59
18,-7,59
18,-7,59
18,-7,59
19,-7,59
18,-7,59
18,-7,59
19,-7,59
18,-7,59
18,-7,59
18,-7,59
18,-7,59
18,-7,59
18,-7,59
18,-7,59
19,-7,59
18,-7,59
18,-7,59
18,-7,59
18,-7,59
18,-7,59
18,-7,59
18,-7,59
18,-7,59
18,-7,60
18,-7,59
18,-7,59
18,-7,59
18,-7,59
18,-7,59
18,-7,59
18,-7,59
18,-7,59
18,-7,59
18,-7,59
19,-7,59
18,-7,59
18,-7,59
19,-7,59
18,-7,59
18,-7,59
19,-7,59
18,-7,59
18,-7,59
19,-7,59
18,-7,60
18,-7,59
18,-7,59
18,-7,59
18,-7,59
18,-7,59
18,-7,59
18,-7,59
18,-7,59
18,-7,59
18,-7,59
18,-7,59
18,-7,59
18,-7,59
18,-7,59
18,-7,59
18,-7,59
18,-7,59
18,-7,59
18,-7,59
18,-7,59
18,-7,59
18,-7,59
18,-7,59
18,-7,59
19,-7,59
18,-7,59
18,-7,59
19,-7,59
18,-7,59
18,-7,59
18,-7,59
18,-7,59
18,-7,59
19,-7,59
18,-7,59
18,-7,59
18,-7,59
19,-7,59
19,-7,59
18,-7,59
18,-7,59
19,-7,59
18,-7,59
18,-7,59
19,-7,59
18,-7,59
19,-7,59
19,-7,59
18,-7,59
19,-7,59
18,-7,59
18,-7,59
18,-7,59
18,-7,59
19,-7,59
19,-7,59
18,-7,59
19,-7,59
18,-7,59
18,-7,59
19,-7,59
18,-7,59
17,-7,59
19,-7,59
18,-7,59
18,-7,59
19,-7,59
18,-7,59
18,-7,59
19,-7,59
18,-7,59
18,-7,59
18,-7,59
18,-7,59
19,-7,59
18,-7,59
18,-7,59
19,-7,59
18,-7,59
18,-7,59
19,-7,59
19,-7,59
18,-7,59
18,-7,59
18,-7,59
18,-7,59
18,-7,59
19,-7,59
18,-7,59
18,-7,59
18,-7,59
18,-7,59
19,-7,59
19,-7,59
18,-7,59
19,-7,59
19,-7,59
18,-7,59
19,-7,59
18,-7,59
19,-7,59
19,-7,59
18,-7,59
19,-7,59
19,-7,59
18,-7,59
19,-7,59
18,-7,59
18,-7,59
19,-7,59
18,-7,59
18,-7,59
19,-7,59
18,-7,59
19,-7,59
19,-7,59
18,-7,59
19,-7,59
19,-7,59
18,-7,59
19,-7,59
19,-7,59
18,-7,59
18,-7,59
19,-7,59
19,-7,59
19,-7,59
18,-7,59
18,-7,59
19,-7,59
19,-7,59
18,-7,59
18,-7,59
19,-7,59
19,-7,59
18,-7,59
18,-7,59
19,-7,59
18,-7,59
19,-7,59
19,-7,59
18,-7,59
18,-7,59
19,-7,59
19,-7,59
18,-7,59
18,-7,59
19,-7,59
18,-7,59
18,-7,59
19,-7,59
18,-7,59
18,-7,59
18,-7,59
18,-7,59
18,-7,59
18,-7,59
18,-7,59
18,-7,59
19,-7,59
18,-7,59
19,-7,59
18,-7,59
18,-7,59
19,-7,59
18,-7,59
19,-7,59
19,-7,59
18,-7,59
18,-7,59
19,-7,59
18,-7,59
19,-7,59
19,-7,59
18,-7,59
19,-7,59
18,-7,59
18,-7,59
19,-7,59
19,-7,59
18,-7,59
19,-7,59
18,-7,59
19,-7,59
19,-7,59
18,-7,59
18,-7,59
19,-7,59
18,-7,59
18,-7,59
19,-7,59
18,-7,59
18,-7,59
19,-7,59
18,-7,59
18,-7,59
19,-7,59
18,-7,59
19,-7,59
19,-7,59
18,-7,59
19,-7,59
19,-7,59
19,-7,59
19,-7,59
19,-7,59
18,-7,59
18,-7,59
18,-7,59
19,-7,59
18,-7,59
18,-7,59
18,-7,59
19,-7,59
19,-7,59
18,-7,59
18,-7,59
19,-7,59
18,-7,59
18,-7,59
18,-7,59
18,-7,59
18,-7,59
18,-7,59
18,-7,59
19,-7,59
18,-7,59
18,-7,59
18,-7,59
18,-7,59
18,-7,59
19,-7,59
19,-7,59
18,-7,59
18,-7,59
18,-7,59
19,-7,59
17,-7,59
18,-7,59
18,-7,59
18,-7,59
18,-7,59
19,-7,59
18,-7,59
18,-7,59
19,-7,59
18,-7,59
18,-7,59
19,-7,59
18,-7,59
19,-7,59
19,-7,59
18,-7,59
18,-7,59
18,-7,59
18,-7,59
19,-7,59
19,-7,59
18,-7,59
19,-7,59
19,-7,59
18,-7,59
18,-7,59
19,-7,59
18,-7,59
19,-7,59
19,-7,59
18,-7,59
19,-7,59
19,-7,59
18,-7,59
19,-7,59
19,-7,59
18,-7,59
18,-7,60
18,-7,59
18,-7,59
19,-7,59
18,-7,59
18,-7,59
19,-7,59
19,-7,59
18,-7,59
18,-7,59
19,-7,59
18,-7,59
18,-7,59
19,-7,60
18,-7,59
18,-7,59
18,-7,59
19,-7,59
19,-7,59
18,-7,59
19,-7,59
18,-7,59
18,-7,59
19,-7,59
19,-7,59
18,-7,59
18,-7,59
19,-7,59
18,-6,59
19,-7,59
19,-7,59
19,-7,59
17,-7,59
16,-7,59
20,-7,59
18,-7,60
16,-7,59
18,-7,60
18,-7,59
16,-6,60
15,-6,60
19,-7,59
18,-7,60
18,-7,59
17,-8,59
18,-7,59
19,-7,60
17,-6,60
16,-6,59
18,-7,60
18,-8,59
19,-7,60
17,-6,60
17,-7,59
17,-7,59
18,-7,60
17,-7,60
17,-7,60
20,-7,60
19,-7,59
17,-7,59
18,-7,60
17,-7,59
17,-7,59
19,-7,59
19,-7,59
18,-7,59
18,-7,59
17,-7,59
18,-7,59
18,-7,59
17,-7,60
18,-7,60
18,-7,59
18,-7,59
17,-7,60
19,-7,59
19,-7,60
17,-7,59
19,-7,59
19,-7,60
17,-7,59
18,-7,59
19,-7,59
18,-7,59
18,-7,60
18,-7,59
18,-7,59
18,-7,59
18,-7,59
18,-7,59
18,-7,59
19,-7,59
18,-7,59
18,-7,59
18,-7,59
18,-7,59
18,-7,59
18,-7,59
18,-7,59
19,-7,60
18,-7,59
18,-7,59
18,-7,59
18,-7,59
18,-7,59
18,-7,59
18,-7,59
18,-7,59
18,-7,59
18,-7,59
18,-7,59
17,-7,59
18,-7,60
18,-7,59
17,-7,59
18,-7,59
18,-7,59
17,-7,59
18,-7,59
18,-7,60
17,-7,59
18,-7,59
18,-7,59
18,-7,59
18,-7,59
18,-7,60
18,-7,60
18,-7,59
18,-7,59
18,-7,59
18,-7,59
18,-7,59
18,-7,60
18,-7,59
18,-7,60
18,-7,59
18,-7,59
18,-7,59
18,-7,59
18,-7,59
18,-7,59
18,-7,59
18,-7,59
18,-7,59
18,-7,59
17,-7,60
19,-7,59
18,-7,59
17,-7,59
19,-7,59
18,-7,59
17,-7,59
19,-7,59
18,-7,59
17,-7,59
18,-7,60
19,-7,59
17,-7,59
18,-7,59
19,-7,59
18,-7,59
17,-7,59
18,-7,59
18,-7,59
19,-7,59
18,-7,59
18,-7,59
19,-7,59
18,-7,59
18,-7,60
18,-7,59
18,-7,59
18,-7,59
19,-6,59
19,-7,59
18,-7,59
19,-7,59
18,-7,59
16,-7,59
18,-7,59
19,-7,60
17,-6,59
18,-7,59
18,-7,59
18,-6,59
18,-6,59
19,-7,60
18,-7,59
18,-7,59
18,-6,59
18,-7,59
18,-7,59
18,-7,59
18,-7,59
18,-6,59
18,-7,60
18,-6,59
17,-7,59
18,-7,59
19,-6,59
19,-7,59
18,-6,59
20,-6,60
18,-7,59
18,-6,59
19,-7,60
16,-6,59
17,-4,60
17,-11,58
13,-5,59
19,-9,59
18,-7,59
18,-5,60
17,-9,60
18,-8,59
16,-7,59
16,-8,58
24,-7,59
22,-6,59
19,-7,59
18,-6,59
19,-7,59
19,-6,59
19,-6,59
18,-7,59
18,-7,59
19,-7,59
18,-7,59
18,-6,59
19,-7,59
18,-7,59
19,-7,59
19,-7,59
19,-7,59
19,-7,59
19,-6,59
19,-6,59
19,-7,59
19,-6,59
19,-7,59
18,-7,59
19,-6,59
19,-7,59
18,-7,59
19,-7,59
19,-7,59
19,-6,59
19,-6,59
19,-7,59
19,-7,59
19,-7,59
19,-7,59
19,-6,59
19,-7,59
19,-7,59
18,-7,59
19,-6,59
19,-7,59
18,-7,59
20,-7,59
19,-6,59
18,-7,59
19,-7,59
20,-6,59
18,-6,59
18,-7,59
20,-7,59
18,-7,59
18,-7,59
19,-7,59
18,-7,59
18,-7,59
20,-7,59
18,-6,59
18,-7,59
19,-7,59
18,-7,59
19,-7,59
19,-7,59
18,-7,59
19,-7,59
19,-7,59
18,-7,59
19,-6,59
19,-7,59
17,-7,59
19,-7,59
19,-7,59
18,-6,59
18,-7,59
18,-7,59
19,-7,59
19,-7,59
18,-6,59
18,-7,59
19,-7,59
19,-6,59
18,-7,59
18,-7,59
19,-7,59
18,-7,59
18,-7,59
19,-7,59
18,-6,59
18,-7,59
18,-7,60
19,-7,59
18,-6,59
18,-7,59
18,-6,59
18,-7,59
18,-6,59
19,-7,59
19,-7,59
18,-7,59
18,-7,59
19,-7,59
18,-7,59
18,-7,59
19,-7,59
18,-7,59
19,-7,59
19,-6,59
18,-6,59
19,-7,59
19,-7,59
18,-7,59
19,-7,59
18,-7,59
19,-7,59
18,-7,59
18,-7,59
19,-7,59
19,-7,59
18,-7,59
19,-7,59
18,-7,59
19,-7,59
19,-7,59
18,-7,59
19,-7,59
19,-7,59
18,-6,59
18,-7,59
19,-7,59
18,-7,59
19,-7,59
19,-7,59
18,-7,59
18,-7,59
19,-7,59
18,-7,59
18,-7,59
19,-7,59
19,-7,59
18,-7,59
19,-7,59
19,-7,59
19,-7,59
19,-7,59
18,-7,59
18,-7,59
19,-7,59
18,-7,59
19,-7,59
19,-7,59
18,-7,59
19,-7,59
19,-7,59
18,-7,59
19,-7,59
19,-7,59
18,-7,59
19,-7,59
19,-7,59
18,-7,59
18,-7,59
19,-7,59
18,-6,59
18,-6,59
19,-7,59
18,-7,59
19,-6,59
19,-7,59
18,-7,59
19,-7,59
19,-7,59
18,-7,59
19,-7,60
19,-7,60
18,-7,59
18,-7,59
19,-7,59
18,-7,59
18,-7,59
19,-7,59
18,-7,59
19,-7,59
19,-7,59
18,-7,59
18,-7,59
19,-7,59
19,-7,59
18,-7,59
19,-7,59
19,-7,59
18,-7,59
19,-7,59
18,-7,59
18,-7,59
19,-7,59
18,-7,59
19,-7,59
19,-7,59
18,-6,59
19,-7,59
19,-7,59
18,-7,59
19,-7,59
19,-7,59
18,-7,59
18,-7,59
19,-7,59
18,-7,59
18,-7,59
19,-7,59
18,-6,59
19,-7,59
19,-7,60
17,-7,59
17,-6,59
21,-9,60
13,-6,59
14,-6,59
21,-7,60
19,-7,60
16,-7,60
17,-6,60
20,-7,60
18,-7,60
15,-7,59
19,-7,59
19,-7,60
16,-7,59
18,-7,59
18,-7,60
17,-7,59
19,-7,59
20,-7,59
16,-7,59
17,-7,60
19,-7,60
17,-7,59
16,-7,59
19,-7,60
18,-7,60
16,-6,59
17,-7,59
20,-7,60
16,-7,59
16,-7,59
19,-7,59
20,-7,59
17,-7,60
16,-7,59
18,-6,60
18,-7,59
17,-7,60
18,-7,59
20,-7,59
17,-7,59
17,-7,60
16,-7,60
21,-8,59
19,-8,59
14,-7,59
19,-7,59
22,-8,59
18,-7,59
15,-7,60
16,-5,59
23,-8,60
16,-7,59
11,-8,59
15,-9,59
20,-8,60
16,-8,60
14,-8,59
20,-8,60
19,-8,60
14,-7,59
19,-8,60
19,-8,60
16,-7,59
18,-7,60
18,-8,60
17,-7,60
17,-8,59
17,-8,60
18,-8,60
17,-8,59
18,-8,59
17,-7,60
17,-7,60
18,-8,59
18,-8,59
17,-8,59
18,-8,59
18,-7,60
17,-8,59
18,-7,60
18,-7,59
18,-7,59
17,-7,59
18,-7,59
17,-7,59
17,-8,59
19,-7,59
19,-7,60
17,-7,59
18,-7,59
19,-7,59
18,-8,59
18,-7,59
19,-7,60
18,-8,59
18,-7,59
18,-7,59
18,-8,59
18,-7,59
18,-7,60
18,-7,59
18,-7,59
18,-7,59
18,-8,59
18,-7,59
18,-7,59
18,-7,59
18,-7,59
18,-7,59
18,-7,59
18,-7,59
18,-7,59
18,-7,59
18,-7,59
18,-7,59
18,-7,59
18,-7,59
18,-7,59
18,-7,59
18,-7,59
18,-7,59
18,-7,59
18,-7,59
19,-7,59
18,-7,59
18,-7,59
18,-7,59
19,-8,59
17,-7,59
18,-7,59
18,-8,59
17,-7,59
17,-7,60
18,-7,59
18,-7,60
18,-7,59
17,-7,59
18,-7,60
18,-7,59
17,-7,60
18,-7,60
18,-7,59
18,-7,59
18,-7,60
17,-7,59
18,-7,60
18,-7,59
17,-7,59
18,-7,59
19,-7,60
17,-7,59
17,-7,60
18,-7,60
18,-7,59
18,-7,59
18,-7,59
18,-7,60
17,-7,59
18,-7,59
19,-7,60
17,-7,59
18,-7,59
19,-7,60
17,-7,59
18,-7,59
18,-7,59
18,-7,59
18,-7,59
17,-7,59
18,-7,59
16,-6,59
18,-7,60
19,-7,60
17,-7,59
18,-7,60
18,-7,59
17,-7,60
18,-7,59
18,-7,59
18,-7,59
18,-7,59
18,-7,59
18,-7,60
18,-7,59
18,-7,59
18,-7,59
17,-7,60
18,-7,60
18,-7,59
18,-7,59
18,-7,59
18,-7,59
18,-7,59
18,-7,59
18,-7,59
18,-7,59
18,-7,59
18,-7,59
18,-7,60
18,-7,59
18,-7,59
18,-7,59
18,-7,59
18,-7,59
18,-7,59
17,-7,59
18,-7,59
18,-7,59
17,-7,59
18,-7,59
18,-7,59
18,-7,59
17,-7,59
18,-7,59
18,-7,60
17,-7,59
18,-7,59
18,-7,59
17,-7,59
18,-7,59
18,-7,60
18,-7,59
18,-7,59
18,-7,60
18,-7,59
17,-7,59
17,-7,60
19,-7,59
17,-7,59
17,-7,59
19,-7,59
18,-7,59
17,-7,59
19,-7,59
18,-7,59
17,-7,59
18,-7,59
19,-7,59
18,-7,59
17,-7,59
19,-7,60
18,-7,60
17,-7,59
19,-7,59
18,-7,60
18,-7,59
18,-7,59
18,-7,59
17,-7,59
19,-7,59
19,-7,59
17,-7,59
19,-7,59
19,-7,59
18,-7,59
19,-7,59
19,-7,60
17,-7,59
17,-7,59
19,-7,59
17,-7,59
17,-7,59
19,-7,60
18,-7,60
18,-7,59
19,-7,59
18,-6,60
17,-7,59
19,-7,59
18,-7,59
18,-7,59
18,-7,59
18,-7,59
18,-7,59
18,-7,59
18,-7,59
18,-7,59
19,-7,60
17,-7,59
17,-7,59
19,-7,59
17,-7,59
17,-7,59
19,-7,59
18,-7,59
18,-7,59
18,-7,59
19,-7,59
17,-6,59
18,-7,59
19,-7,60
17,-6,59
18,-7,59
19,-7,59
18,-7,60
18,-7,59
19,-8,59
18,-6,60
18,-9,58
19,-7,59
17,-7,59
18,-7,59
18,-7,59
18,-7,59
18,-7,59
18,-7,60
18,-7,59
19,-7,59
18,-6,59
18,-7,59
18,-6,59
18,-7,59
18,-7,60
19,-7,59
19,-7,59
18,-6,59
19,-6,60
19,-7,59
18,-7,59
18,-7,59
19,-7,59
18,-6,59
18,-7,59
18,-7,59
18,-7,59
18,-7,59
19,-7,59
18,-7,59
18,-7,59
19,-7,59
19,-7,59
18,-7,59
19,-6,59
19,-6,59
18,-6,59
19,-7,59
19,-7,59
18,-7,59
19,-7,59
19,-7,59
18,-6,59
18,-7,60
18,-7,59
18,-7,59
19,-6,60
19,-7,59
17,-6,59
19,-7,59
19,-6,59
19,-6,59
19,-7,59
18,-7,59
18,-6,59
19,-7,59
18,-7,59
19,-7,59
19,-7,59
18,-7,59
19,-7,59
19,-7,59
18,-7,59
19,-6,59
19,-7,59
18,-7,59
19,-7,59
19,-7,59
19,-6,59
19,-7,59
18,-7,59
19,-7,59
18,-7,59
18,-7,59
19,-7,59
19,-7,59
19,-7,59
19,-6,59
18,-7,59
18,-7,59
19,-7,59
19,-7,59
19,-7,59
18,-6,59
19,-7,59
19,-7,59
19,-7,59
19,-6,59
19,-7,59
18,-7,59
19,-7,59
18,-7,59
19,-7,59
19,-7,59
18,-7,59
19,-7,59
19,-7,59
19,-7,59
19,-7,59
18,-7,59
18,-6,59
19,-7,59
19,-7,59
18,-7,59
19,-7,59
19,-7,59
19,-7,59
18,-7,59
18,-7,59
19,-7,59
18,-7,59
18,-7,59
18,-7,59
19,-6,59
19,-7,59
18,-7,59
18,-7,59
19,-7,59
18,-6,59
18,-7,59
18,-7,59
18,-7,59
19,-7,59
19,-7,59
18,-7,59
18,-6,59
18,-6,59
19,-7,59
18,-7,59
18,-7,59
19,-7,59
19,-7,59
18,-6,59
19,-7,59
18,-7,59
18,-7,59
19,-7,59
18,-7,59
18,-7,59
19,-7,59
19,-7,59
18,-7,59
19,-7,59
18,-7,59
19,-6,59
19,-6,59
18,-7,59
18,-7,59
19,-6,59
19,-6,59
18,-6,59
18,-7,59
19,-7,59
19,-6,59
19,-7,59
19,-7,59
19,-7,59
18,-7,59
19,-6,59
18,-7,59
19,-7,59
19,-7,59
19,-6,59
19,-7,59
19,-7,59
19,-7,59
19,-7,59
19,-7,59
18,-7,59
19,-7,59
19,-7,59
19,-7,59
19,-7,59
19,-7,59
19,-7,59
19,-7,59
19,-7,59
19,-7,59
19,-7,59
19,-7,59
19,-7,59
19,-7,59
19,-7,59
19,-7,59
19,-7,59
19,-7,59
19,-7,59
19,-7,59
19,-7,59
19,-7,59
19,-7,59
19,-7,59
18,-7,59
18,-6,59
19,-6,59
19,-7,59
19,-7,59
19,-7,59
19,-7,59
18,-6,59
19,-7,59
18,-7,59
19,-7,59
19,-7,59
18,-6,59
19,-7,59
19,-7,59
18,-7,59
19,-7,59
19,-6,59
18,-7,59
19,-7,59
19,-7,59
19,-6,59
19,-7,59
18,-6,59
18,-7,59
19,-7,59
19,-6,59
19,-7,59
19,-6,59
18,-6,59
19,-6,59
19,-6,59
19,-6,59
19,-6,59
19,-6,59
19,-6,59
18,-6,59
19,-7,59
19,-7,59
18,-7,59
19,-7,59
19,-7,59
19,-7,59
19,-7,59
19,-6,59
19,-6,59
19,-7,59
19,-6,59
19,-7,59
18,-7,59
19,-7,59
19,-7,59
18,-7,59
20,-7,59
19,-6,59
18,-7,59
20,-7,59
19,-7,59
19,-7,59
19,-7,59
19,-7,59
19,-6,59
19,-6,59
19,-7,59
18,-7,59
19,-6,59
19,-7,59
18,-7,59
19,-7,59
19,-6,59
19,-7,59
19,-7,59
19,-7,59
18,-7,59
19,-7,59
19,-7,59
18,-7,59
19,-7,59
19,-7,59
18,-7,59
19,-7,59
19,-6,59
18,-7,59
19,-7,59
19,-7,59
18,-7,59
19,-7,59
19,-7,59
19,-7,59
19,-7,59
19,-7,59
19,-7,59
19,-7,59
18,-7,59
19,-7,59
19,-6,59
18,-7,59
19,-7,59
19,-6,59
18,-7,59
19,-7,59
19,-6,59
18,-7,59
19,-7,59
19,-6,59
18,-7,59
19,-7,59
18,-6,59
18,-7,59
19,-7,59
18,-7,59
18,-6,59
19,-7,59
19,-7,59
18,-6,59
19,-6,59
19,-6,59
19,-6,59
18,-7,59
18,-7,59
19,-7,59
19,-6,59
19,-7,59
18,-7,59
19,-6,59
19,-7,59
19,-7,59
19,-7,59
19,-7,59
18,-7,59
19,-7,59
20,-6,59
18,-7,59
19,-7,59
19,-7,59
18,-7,59
19,-7,59
19,-7,59
19,-7,59
19,-7,59
19,-6,59
18,-7,59
18,-6,59
19,-7,59
19,-7,59
18,-7,59
18,-7,59
19,-7,59
18,-7,59
18,-7,59
19,-6,59
18,-6,59
18,-7,59
19,-7,59
18,-7,59
18,-7,59
19,-7,59
19,-7,59
18,-7,59
19,-7,59
19,-7,59
19,-7,59
19,-7,59
19,-7,59
19,-6,59
18,-7,59
19,-7,59
19,-6,59
19,-7,59
18,-6,59
19,-7,59
19,-7,59
19,-7,59
19,-7,59
19,-7,59
19,-7,59
18,-7,59
18,-7,59
20,-7,59
18,-6,59
18,-6,59
19,-7,60
18,-7,59
19,-7,59
19,-7,60
18,-6,59
19,-7,59
19,-6,59
17,-6,59
19,-7,59
20,-7,59
18,-6,59
19,-6,60
19,-6,59
18,-6,59
19,-6,60
19,-7,59
18,-6,59
18,-6,59
18,-6,59
18,-6,60
18,-6,59
18,-6,59
19,-6,59
18,-6,59
19,-6,59
19,-7,60
18,-6,59
18,-7,59
19,-6,59
18,-6,59
19,-7,60
18,-6,59
19,-7,59
19,-6,59
18,-6,59
19,-6,59
18,-6,59
18,-6,59
19,-6,59
18,-6,59
18,-6,59
19,-6,59
18,-6,59
18,-6,59
18,-6,59
18,-6,59
18,-6,59
18,-6,59
18,-6,59
18,-6,59
18,-6,59
19,-6,59
18,-7,59
18,-6,59
19,-6,59
18,-6,59
18,-6,59
19,-6,59
18,-6,59
18,-6,59
19,-6,59
18,-6,59
18,-6,59
19,-7,59
19,-7,59
18,-6,59
19,-6,59
19,-6,59
19,-7,59
18,-6,59
19,-7,59
19,-6,59
18,-6,59
19,-7,59
19,-6,59
18,-7,59
18,-6,59
19,-6,59
19,-6,59
19,-7,59
19,-6,59
19,-6,59
19,-7,59
19,-7,59
18,-6,59
20,-7,59
19,-7,59
18,-6,59
20,-7,59
19,-6,60
18,-6,59
20,-7,59
19,-7,59
17,-6,59
19,-6,59
19,-7,59
17,-7,59
20,-7,59
20,-6,59
17,-6,59
17,-6,59
20,-6,59
18,-6,59
18,-6,59
19,-7,59
18,-6,59
18,-7,59
19,-6,59
18,-6,59
18,-6,59
18,-6,59
19,-7,59
18,-7,59
18,-6,59
19,-6,60
19,-7,59
18,-6,59
19,-6,59
19,-6,59
18,-6,59
18,-6,59
19,-6,60
18,-7,59
18,-6,59
18,-6,59
19,-6,59
18,-6,59
18,-6,59
19,-7,60
18,-6,59
18,-6,59
20,-7,59
18,-6,59
18,-6,59
19,-7,59
18,-6,59
18,-6,59
18,-7,59
19,-6,59
19,-7,59
18,-6,59
18,-6,59
19,-6,60
18,-6,59
19,-6,59
19,-6,59
18,-6,59
19,-6,59
19,-7,59
18,-6,59
19,-6,59
19,-6,59
18,-7,59
19,-6,59
19,-6,59
18,-6,59
18,-6,59
19,-6,59
19,-7,59
18,-7,59
18,-7,59
19,-6,59
19,-7,59
18,-7,59
19,-6,59
19,-6,59
18,-6,59
18,-7,59
19,-6,59
19,-6,59
18,-6,59
19,-7,59
18,-6,59
18,-6,59
19,-6,59
18,-7,59
18,-7,59
19,-6,59
19,-6,59
17,-6,59
18,-6,59
19,-7,59
17,-6,59
18,-6,59
21,-7,59
17,-6,59
17,-6,59
21,-7,60
17,-6,59
17,-6,59
20,-7,59
17,-6,59
17,-6,59
20,-7,59
17,-6,59
17,-6,59
20,-6,60
17,-6,59
17,-6,59
20,-6,60
18,-6,59
18,-6,59
19,-6,59
18,-6,59
18,-6,59
19,-6,59
18,-6,59
18,-6,59
19,-6,59
18,-6,59
18,-6,59
19,-6,59
18,-6,59
18,-6,59
18,-6,59
18,-6,59
19,-6,60
18,-6,59
18,-6,59
18,-6,60
19,-6,59
19,-7,59
18,-6,59
19,-6,59
19,-6,59
18,-6,59
19,-6,59
19,-6,59
18,-6,59
18,-7,59
19,-6,59
18,-7,59
19,-6,59
19,-6,59
18,-6,59
18,-6,59
19,-6,59
18,-7,59
19,-6,59
19,-6,59
18,-7,59
18,-6,59
19,-6,59
18,-7,59
18,-7,59
18,-6,59
19,-7,59
18,-7,59
18,-6,59
19,-6,60
18,-7,59
18,-6,59
19,-7,59
18,-6,59
18,-6,59
19,-7,59
18,-7,59
18,-7,59
19,-6,59
19,-6,59
18,-6,59
18,-7,59
19,-6,59
18,-6,59
19,-7,59
18,-6,59
18,-7,59
19,-6,59
18,-6,59
18,-6,59
18,-6,59
18,-6,60
18,-6,59
19,-6,59
18,-6,59
18,-6,59
19,-6,59
19,-6,59
18,-7,59
19,-7,59
20,-6,59
17,-6,59
19,-6,59
20,-6,59
17,-6,59
19,-6,59
20,-6,59
18,-6,59
18,-6,59
19,-6,59
18,-6,59
18,-6,59
18,-6,59
19,-6,59
18,-6,59
18,-6,59
19,-6,59
18,-6,59
18,-6,59
18,-7,59
18,-6,59
18,-6,59
19,-6,60
18,-6,59
18,-6,60
18,-6,59
18,-6,59
18,-7,59
19,-6,59
18,-6,59
18,-7,59
19,-7,59
18,-6,59
18,-7,59
19,-6,59
18,-6,59
18,-7,59
18,-6,59
19,-6,59
18,-7,59
18,-6,59
19,-7,59
18,-7,59
18,-6,59
19,-6,60
18,-7,59
19,-7,59
18,-7,59
19,-6,59
18,-6,59
18,-7,59
18,-6,59
19,-6,59
18,-7,59
18,-6,60
19,-7,60
19,-6,59
18,-6,59
19,-6,59
19,-6,59
18,-7,59
19,-7,59
18,-6,59
18,-7,59
19,-6,60
19,-6,59
18,-7,59
18,-6,59
19,-7,59
19,-7,59
18,-6,59
19,-7,59
18,-7,59
18,-7,59
18,-6,59
19,-6,59
18,-6,59
19,-7,59
19,-7,59
18,-7,59
19,-6,59
18,-6,59
18,-6,59
18,-7,59
18,-6,59
18,-6,59
18,-7,59
18,-6,59
18,-6,59
18,-6,60
19,-6,59
18,-6,59
18,-6,59
19,-6,59
18,-6,59
18,-6,59
19,-7,60
17,-6,59
18,-6,59
19,-6,59
17,-6,59
18,-6,59
19,-7,59
18,-6,59
18,-6,59
19,-6,59
18,-6,59
18,-6,59
18,-6,59
18,-6,59
19,-6,59
18,-7,59
18,-6,59
19,-6,59
18,-6,59
18,-7,59
19,-6,59
19,-6,59
18,-6,59
18,-6,59
19,-6,59
18,-6,59
18,-7,59
18,-6,59
18,-6,59
19,-6,59
18,-6,59
18,-6,59
18,-6,59
19,-6,59
18,-6,59
18,-6,59
18,-7,59
18,-6,59
19,-6,59
18,-6,59
18,-6,59
18,-7,59
18,-6,59
18,-6,59
18,-6,59
19,-6,59
18,-7,59
19,-6,60
18,-6,59
18,-6,59
19,-6,59
18,-7,59
18,-6,59
18,-6,59
19,-6,59
19,-6,59
18,-6,59
19,-6,59
18,-6,59
19,-7,59
18,-6,59
18,-6,59
19,-7,59
18,-7,59
19,-6,59
18,-6,59
19,-6,59
19,-6,59
18,-6,59
19,-7,59
19,-6,59
18,-7,59
18,-6,59
19,-6,59
18,-6,59
18,-6,59
19,-6,59
18,-6,59
18,-6,60
18,-6,59
18,-6,59
19,-6,59
18,-6,59
18,-6,59
18,-6,59
18,-6,59
18,-6,59
18,-6,59
18,-6,59
18,-6,59
18,-6,59
18,-6,59
18,-6,59
18,-6,59
19,-6,60
18,-6,59
18,-6,59
19,-6,59
18,-7,59
18,-6,59
18,-6,59
18,-6,59
18,-6,59
19,-6,59
18,-6,59
19,-6,59
19,-6,59
18,-6,59
18,-6,59
19,-6,59
18,-6,59
18,-6,59
18,-6,59
19,-6,59
18,-6,59
18,-6,59
19,-6,59
18,-6,59
19,-6,59
18,-6,60
18,-6,59
19,-6,59
18,-6,59
18,-6,59
19,-6,59
18,-6,59
18,-6,59
19,-6,59
18,-6,59
18,-6,59
19,-6,59
19,-6,59
18,-6,59
19,-6,59
19,-6,59
18,-6,59
19,-6,59
19,-6,59
18,-6,59
19,-6,59
19,-6,59
18,-6,59
19,-7,59
19,-6,59
18,-6,59
19,-6,59
18,-6,59
18,-6,59
19,-6,59
19,-6,59
18,-6,59
19,-6,59
19,-6,59
18,-6,59
19,-7,59
19,-6,59
18,-6,59
19,-6,59
19,-6,59
18,-6,59
19,-6,59
18,-6,60
18,-6,59
19,-6,59
18,-6,59
18,-6,59
19,-6,59
18,-6,59
18,-6,59
18,-6,59
18,-6,59
18,-6,59
18,-6,59
19,-6,59
18,-6,59
18,-6,59
19,-6,59
18,-6,59
18,-6,59
19,-6,59
19,-6,59
18,-6,59
19,-6,59
18,-6,59
19,-6,59
19,-6,59
18,-6,59
18,-6,59
19,-6,59
18,-6,59
19,-6,59
18,-6,59
18,-6,59
19,-6,59
18,-6,59
18,-6,59
19,-6,59
18,-6,59
18,-6,59
19,-6,59
19,-6,59
18,-6,59
18,-6,59
19,-6,59
18,-6,59
18,-6,59
19,-6,59
18,-6,59
18,-6,59
18,-6,59
19,-6,59
18,-6,59
19,-6,59
19,-6,59
19,-6,59
18,-6,59
19,-6,59
19,-6,59
18,-6,59
18,-6,59
18,-6,59
20,-6,59
17,-5,59
16,-6,59
20,-6,59
17,-6,59
17,-6,60
20,-6,60
19,-7,59
20,-8,60
15,-5,60
17,-5,60
18,-7,59
17,-6,59
17,-6,60
18,-6,60
18,-6,60
17,-6,59
17,-6,59
19,-6,60
17,-6,60
17,-6,59
18,-6,60
17,-6,59
18,-6,59
17,-6,60
18,-6,59
18,-6,60
17,-6,60
17,-6,60
19,-6,60
17,-6,60
17,-6,60
18,-6,59
18,-6,59
18,-6,59
17,-6,59
17,-6,60
18,-6,60
18,-6,60
18,-6,59
18,-6,60
18,-6,59
18,-6,59
18,-6,60
18,-6,59
18,-6,60
17,-6,60
18,-6,60
18,-6,60
18,-6,60
18,-6,60
18,-6,59
19,-7,59
17,-6,60
18,-6,60
18,-6,60
18,-6,59
18,-6,60
18,-6,60
17,-6,60
18,-6,59
17,-6,59
18,-6,59
18,-6,60
18,-6,60
18,-6,60
18,-6,60
19,-6,60
17,-6,59
18,-6,60
19,-6,60
17,-6,59
19,-6,60
19,-6,60
17,-6,59
18,-6,60
19,-6,60
17,-6,60
17,-6,59
18,-6,60
18,-6,59
17,-6,60
18,-6,59
19,-6,60
17,-6,60
18,-6,59
19,-6,60
18,-6,60
18,-6,60
18,-6,60
17,-6,59
18,-6,60
18,-6,59
17,-6,59
18,-6,59
18,-6,60
18,-6,60
18,-6,60
18,-6,60
18,-6,59
18,-6,60
18,-6,60
18,-6,59
17,-6,59
18,-6,60
18,-6,60
17,-6,60
18,-6,60
18,-6,60
17,-6,59
18,-6,60
18,-6,60
17,-6,60
18,-6,60
19,-6,60
17,-6,59
18,-6,60
19,-6,60
17,-6,60
17,-6,59
18,-6,60
18,-6,60
18,-6,60
18,-6,60
17,-6,60
18,-6,60
18,-6,60
17,-6,59
18,-6,60
18,-6,60
17,-6,59
18,-6,59
18,-6,60
18,-6,60
17,-6,59
17,-6,59
19,-6,60
17,-6,60
17,-6,60
19,-6,60
18,-6,59
17,-6,59
19,-6,60
17,-6,59
18,-6,60
18,-6,60
17,-6,59
18,-6,59
18,-6,60
17,-6,60
19,-6,60
18,-6,60
17,-6,59
19,-6,60
18,-6,60
17,-6,59
19,-6,59
18,-6,60
17,-6,59
19,-6,59
18,-6,59
17,-6,59
18,-6,59
18,-6,59
18,-6,60
18,-6,60
18,-6,59
17,-6,60
18,-6,60
18,-6,60
17,-6,60
18,-6,59
19,-6,59
18,-6,59
18,-6,60
18,-6,60
17,-6,60
18,-6,59
18,-6,60
17,-6,60
18,-7,59
19,-6,59
19,-6,59
18,-6,60
18,-6,60
17,-6,59
18,-6,59
18,-7,59
18,-6,60
18,-6,59
19,-7,59
18,-6,59
18,-6,60
19,-6,60
18,-6,59
17,-6,59
19,-6,59
18,-6,59
17,-6,59
18,-6,59
19,-6,59
17,-6,59
18,-6,59
19,-6,59
18,-6,59
18,-6,59
19,-6,59
18,-6,59
18,-6,59
19,-6,59
19,-6,59
18,-6,59
18,-6,59
19,-6,59
19,-6,59
18,-6,59
19,-6,60
20,-6,60
17,-6,59
19,-6,59
19,-6,59
18,-6,59
18,-6,59
19,-6,59
18,-6,59
18,-6,59
19,-6,59
18,-6,59
18,-6,59
18,-6,59
18,-6,59
18,-6,59
18,-6,59
19,-6,59
19,-6,59
18,-6,59
18,-6,59
19,-6,59
19,-6,59
18,-6,59
19,-6,59
19,-6,59
19,-6,59
19,-6,59
19,-6,59
18,-6,59
19,-6,59
19,-6,59
18,-6,59
18,-6,59
19,-6,59
18,-6,59
18,-6,59
18,-6,59
19,-6,59
19,-6,59
18,-6,59
19,-6,59
19,-6,59
18,-6,59
19,-6,59
19,-6,59
19,-6,59
19,-6,60
19,-6,59
18,-6,59
18,-6,59
19,-6,59
18,-6,59
19,-6,59
19,-6,59
18,-6,59
19,-6,59
19,-6,59
18,-6,59
19,-6,59
19,-6,59
18,-6,59
19,-6,59
19,-6,59
18,-6,59
19,-6,59
19,-6,59
18,-6,59
19,-6,60
19,-6,59
18,-6,59
19,-6,59
18,-6,59
18,-6,59
19,-6,60
18,-6,59
19,-6,59
18,-6,59
18,-6,59
19,-6,59
18,-6,59
18,-6,59
19,-6,59
18,-6,59
18,-6,59
19,-6,59
18,-6,59
19,-6,59
19,-6,59
18,-6,59
19,-6,59
19,-6,59
18,-6,59
19,-6,59
19,-6,59
18,-6,60
19,-6,60
18,-6,59
19,-6,59
19,-6,59
18,-6,59
18,-6,59
20,-6,59
18,-6,59
18,-6,59
20,-6,59
18,-6,59
18,-6,59
20,-6,59
17,-6,59
18,-6,59
20,-6,59
18,-6,59
18,-6,59
20,-6,59
18,-6,59
18,-6,59
19,-6,59
18,-6,59
18,-6,59
19,-6,60
19,-6,59
18,-6,59
19,-6,59
19,-6,59
19,-6,59
19,-6,59
19,-6,59
18,-6,59
19,-6,59
19,-6,59
18,-6,59
19,-6,59
19,-6,59
19,-6,59
19,-6,59
18,-6,59
19,-6,59
19,-6,59
18,-6,59
19,-6,59
19,-6,59
19,-6,59
18,-6,59
19,-6,59
18,-6,59
18,-6,59
19,-6,59
18,-6,60
18,-6,59
19,-6,59
18,-6,59
18,-6,59
21,-5,60
17,-6,59
17,-5,59
20,-5,60
20,-7,59
19,-7,59
16,-6,59
17,-6,59
19,-6,59
18,-6,59
20,-7,59
18,-6,59
19,-6,59
19,-6,60
18,-7,59
17,-6,59
18,-7,59
18,-6,59
18,-6,59
18,-6,60
18,-6,60
18,-7,59
18,-7,59
18,-6,59
18,-7,59
19,-6,59
18,-7,59
17,-6,59
18,-7,59
19,-6,59
18,-6,59
18,-6,59
19,-7,59
17,-6,59
18,-6,59
19,-6,59
18,-6,59
17,-6,59
18,-7,59
19,-7,59
19,-6,59
18,-6,59
19,-6,60
19,-6,59
18,-6,59
19,-6,59
19,-6,59
18,-6,59
19,-6,59
19,-6,59
18,-6,59
18,-6,59
18,-6,59
19,-6,59
19,-6,59
18,-6,59
19,-6,59
18,-6,59
18,-6,59
18,-6,59
19,-6,59
19,-6,59
19,-6,59
17,-6,59
18,-6,59
19,-6,59
18,-6,59
18,-6,59
20,-6,59
19,-6,59
18,-6,59
19,-6,59
18,-6,59
18,-6,59
19,-6,59
18,-6,59
18,-6,59
19,-6,59
18,-6,59
18,-6,59
19,-6,59
19,-6,59
18,-6,59
19,-6,59
18,-6,59
18,-6,59
18,-6,59
19,-6,59
19,-6,60
18,-6,59
18,-6,59
18,-6,59
19,-6,59
19,-6,59
18,-6,59
19,-6,60
18,-6,59
18,-6,59
19,-6,59
20,-6,59
17,-6,59
19,-6,59
20,-6,60
18,-6,59
18,-6,59
19,-6,59
18,-6,59
18,-6,59
18,-6,59
19,-6,59
18,-6,60
18,-6,59
19,-6,59
18,-6,59
18,-6,59
19,-6,60
19,-6,59
18,-6,59
19,-6,59
19,-6,59
18,-6,59
20,-6,59
19,-6,59
18,-6,59
20,-6,59
19,-6,59
18,-6,59
19,-6,59
19,-6,59
18,-6,59
19,-6,59
19,-6,59
18,-6,59
19,-6,59
19,-6,59
18,-6,59
19,-6,59
20,-6,59
19,-6,59
18,-6,59
19,-6,59
19,-6,59
19,-6,59
18,-6,59
19,-6,59
19,-6,59
18,-6,59
18,-6,59
20,-6,59
19,-6,59
18,-6,59
20,-6,59
19,-6,59
19,-6,59
19,-6,59
19,-6,59
18,-6,59
19,-6,59
18,-6,59
18,-6,59
18,-6,59
18,-6,59
19,-6,59
19,-6,59
18,-6,59
19,-6,59
19,-6,59
18,-6,59
19,-6,59
18,-6,59
18,-6,59
19,-6,59
19,-6,59
19,-7,59
18,-6,59
19,-6,60
19,-6,59
18,-6,59
18,-6,59
18,-6,60
18,-6,59
18,-6,59
18,-6,59
19,-6,59
19,-6,60
17,-6,59
18,-6,59
19,-6,60
17,-7,59
17,-5,59
20,-6,60
18,-5,60
14,-5,60
17,-5,60
20,-6,60
15,-5,59
16,-5,60
19,-6,60
16,-6,60
16,-6,60
18,-6,59
19,-7,59
18,-6,60
19,-6,59
18,-6,59
17,-6,60
18,-6,60
19,-6,59
18,-6,59
18,-6,59
20,-6,59
19,-6,59
18,-5,59
17,-5,59
17,-6,60
19,-6,59
19,-6,59
19,-5,59
20,-6,59
18,-6,59
19,-6,59
20,-6,59
18,-6,59
20,-6,59
20,-6,59
19,-6,58
18,-5,60
20,-6,59
20,-6,59
19,-6,59
19,-6,59
22,-7,59
20,-6,59
17,-6,59
19,-6,59
21,-6,59
20,-6,59
20,-6,59
20,-6,59
18,-6,59
19,-6,59
20,-6,59
19,-7,59
20,-6,59
18,-6,59
18,-6,59
19,-6,59
20,-6,59
18,-6,59
19,-6,59
20,-6,59
19,-6,59
19,-6,59
19,-6,59
19,-6,59
19,-6,59
19,-6,59
20,-6,59
19,-6,59
19,-6,59
20,-6,59
19,-6,59
19,-6,59
20,-6,59
19,-6,59
19,-6,59
19,-6,59
19,-6,59
20,-6,59
18,-6,59
19,-6,59
20,-6,59
20,-6,59
20,-6,59
19,-6,59
19,-6,59
19,-6,59
20,-6,59
19,-6,59
19,-6,59
20,-6,59
20,-6,59
20,-6,59
19,-6,59
19,-6,59
19,-6,59
20,-6,59
19,-6,59
18,-6,59
20,-6,59
20,-6,59
19,-6,59
19,-6,59
20,-6,59
19,-6,59
20,-6,59
20,-6,59
18,-6,59
19,-6,59
20,-6,59
19,-6,59
19,-6,59
19,-6,59
19,-6,59
19,-6,59
19,-6,59
18,-6,59
19,-6,59
19,-6,59
18,-6,59
20,-6,59
19,-6,59
18,-6,59
20,-6,59
20,-6,59
19,-6,59
19,-6,59
19,-6,59
19,-6,59
20,-6,59
20,-6,59
19,-6,59
19,-6,59
19,-6,59
19,-6,59
19,-6,59
19,-6,59
19,-6,59
20,-6,59
19,-6,59
19,-6,59
19,-6,59
20,-6,59
19,-6,59
19,-6,59
19,-6,59
19,-6,59
19,-6,59
20,-6,59
19,-6,59
19,-6,59
20,-6,59
19,-6,59
19,-6,59
19,-6,59
19,-6,59
19,-6,59
19,-6,59
19,-6,59
20,-6,59
19,-6,59
19,-6,59
19,-6,59
19,-6,59
20,-6,59
19,-6,59
19,-6,59
19,-6,59
19,-6,59
19,-6,59
20,-6,59
19,-6,59
19,-6,59
20,-6,59
19,-6,59
19,-6,59
20,-6,59
19,-6,59
19,-6,59
20,-6,59
19,-6,59
19,-6,59
20,-6,59
19,-6,59
19,-6,59
19,-6,59
19,-6,59
19,-6,59
19,-6,59
19,-6,59
19,-6,59
19,-6,59
19,-6,59
18,-6,59
20,-6,59
20,-6,59
18,-6,59
19,-6,59
20,-6,59
19,-6,59
19,-6,59
20,-6,59
18,-6,59
19,-6,59
19,-6,59
18,-6,59
20,-6,59
20,-6,59
19,-6,59
19,-6,59
19,-6,59
19,-6,59
19,-6,59
19,-6,59
19,-6,59
20,-6,59
19,-6,59
19,-6,59
19,-6,59
19,-6,59
20,-6,59
20,-6,59
19,-6,59
19,-6,59
19,-6,59
19,-6,59
19,-6,59
19,-6,59
19,-6,59
19,-6,59
19,-6,59
19,-6,59
19,-6,59
19,-6,59
19,-6,59
19,-6,59
19,-6,59
19,-6,59
19,-6,59
19,-6,59
19,-6,59
19,-6,59
19,-6,59
20,-6,59
19,-6,59
20,-6,59
20,-6,59
19,-6,59
19,-6,59
20,-6,59
19,-6,59
19,-6,59
19,-6,59
19,-6,59
19,-6,59
20,-6,59
19,-6,59
19,-6,59
19,-6,59
19,-6,59
19,-6,59
19,-6,59
19,-6,59
19,-6,59
19,-6,59
19,-6,59
19,-6,59
19,-6,59
19,-6,59
19,-6,59
19,-6,59
19,-6,59
19,-6,59
19,-6,59
19,-6,59
19,-6,59
18,-6,59
19,-6,59
19,-6,59
19,-6,59
19,-6,59
19,-6,59
19,-6,59
19,-6,59
19,-6,59
18,-6,59
19,-6,59
20,-6,59
18,-6,59
18,-6,59
19,-6,59
19,-6,59
19,-6,59
19,-6,59
19,-6,59
19,-6,59
19,-6,59
19,-6,59
19,-6,59
19,-6,59
19,-6,59
19,-6,59
19,-6,59
19,-6,59
19,-6,59
19,-6,59
19,-6,59
19,-6,59
19,-6,59
19,-6,59
19,-6,59
20,-6,59
19,-6,59
19,-6,59
19,-6,59
19,-6,59
19,-6,59
19,-6,59
19,-6,59
20,-6,59
19,-6,59
19,-6,59
19,-6,59
19,-6,59
19,-6,59
20,-6,59
19,-6,59
19,-6,59
20,-6,59
19,-6,59
19,-6,59
20,-6,59
19,-6,59
19,-6,59
19,-6,59
19,-6,59
19,-6,59
20,-6,59
19,-6,59
19,-6,59
19,-6,59
19,-6,59
19,-6,59
19,-6,59
20,-6,59
19,-6,59
19,-6,59
20,-6,59
19,-6,59
19,-6,59
19,-6,59
19,-6,59
20,-6,59
19,-6,59
19,-6,59
19,-6,59
21,-6,59
20,-6,59
19,-6,59
21,-6,59
19,-6,59
19,-6,59
19,-6,59
19,-6,59
19,-6,59
19,-6,59
18,-6,59
19,-6,59
19,-6,59
18,-6,59
19,-6,59
19,-6,59
18,-6,59
19,-6,59
19,-6,59
19,-6,59
19,-6,59
19,-6,59
19,-6,59
19,-6,59
20,-6,59
19,-6,59
19,-6,59
19,-6,59
19,-6,59
19,-6,59
19,-6,59
19,-6,59
19,-6,59
19,-6,59
19,-6,59
20,-6,59
20,-6,59
18,-6,59
20,-6,59
19,-6,59
19,-6,59
19,-6,59
19,-6,59
18,-6,59
20,-6,59
19,-6,59
19,-6,59
19,-6,59
19,-6,59
19,-6,59
19,-6,59
19,-6,59
19,-6,59
19,-6,59
18,-6,59
20,-6,59
19,-6,59
19,-6,59
20,-6,59
19,-6,59
18,-6,59
19,-6,59
19,-6,59
19,-6,59
19,-6,59
19,-6,59
19,-6,59
20,-6,59
19,-6,59
19,-6,59
19,-6,59
19,-6,59
19,-6,59
20,-6,59
19,-6,59
19,-6,59
19,-6,59
19,-6,59
19,-6,59
19,-6,59
19,-6,59
20,-6,59
19,-6,59
19,-6,59
20,-6,59
19,-6,59
19,-6,59
19,-6,59
19,-6,59
20,-6,59
19,-6,59
19,-6,59
19,-6,59
19,-6,59
20,-6,59
19,-6,59
19,-6,59
19,-6,59
19,-6,59
19,-6,59
20,-6,59
19,-6,59
20,-6,59
19,-6,59
19,-5,59
20,-6,59
18,-6,59
18,-6,59
20,-6,59
18,-6,59
18,-6,59
20,-6,59
19,-6,59
20,-6,59
20,-6,59
19,-6,59
19,-6,59
20,-6,59
18,-6,59
18,-6,59
20,-6,59
19,-6,59
19,-6,59
19,-6,59
19,-6,59
18,-6,59
20,-6,59
18,-6,59
18,-6,59
20,-6,59
19,-6,59
19,-6,59
19,-6,59
19,-6,59
19,-6,59
19,-6,59
19,-6,59
19,-6,59
19,-6,59
20,-6,59
19,-6,59
20,-6,59
19,-6,59
19,-6,59
20,-6,59
19,-6,59
19,-6,59
19,-6,59
20,-6,59
19,-6,59
19,-6,59
19,-6,59
19,-6,59
19,-6,59
19,-6,59
19,-6,59
19,-6,59
19,-6,59
19,-6,59
20,-6,59
19,-6,59
19,-6,59
19,-6,59
19,-6,59
19,-6,59
19,-6,59
19,-6,59
19,-6,59
19,-6,59
19,-6,59
20,-6,59
19,-6,59
19,-6,59
20,-6,59
19,-6,59
18,-6,59
20,-6,59
19,-6,59
19,-6,59
19,-6,59
19,-6,59
19,-6,59
19,-6,59
20,-6,59
19,-6,59
19,-6,59
20,-6,59
19,-6,59
19,-6,59
19,-6,59
19,-6,59
19,-6,59
19,-6,59
19,-6,59
19,-6,59
19,-6,59
19,-6,59
20,-6,59
19,-6,59
19,-6,59
20,-6,59
19,-6,60
19,-6,59
20,-6,59
19,-6,59
19,-6,59
20,-6,59
19,-6,59
19,-6,59
19,-6,59
19,-6,59
19,-6,59
19,-6,59
19,-6,59
19,-6,59
19,-6,59
19,-6,59
20,-6,59
19,-6,59
19,-6,59
19,-6,59
19,-6,59
19,-6,59
19,-6,59
19,-6,59
20,-6,59
19,-6,59
19,-6,59
19,-6,59
19,-6,59
19,-6,59
19,-6,59
20,-6,59
20,-6,59
19,-6,59
19,-6,59
20,-6,59
20,-6,59
19,-6,59
20,-6,59
20,-6,59
19,-6,59
20,-6,59
20,-6,59
19,-6,59
19,-6,59
19,-6,59
19,-6,59
20,-6,59
19,-6,59
19,-6,59
20,-6,59
19,-6,59
19,-6,59
20,-6,59
19,-6,59
19,-6,59
20,-6,59
19,-6,59
19,-6,59
20,-6,59
20,-6,59
19,-6,59
19,-6,59
19,-6,59
20,-6,59
20,-6,59
19,-6,59
19,-6,59
20,-6,59
18,-5,59
20,-6,59
20,-6,59
19,-6,59
20,-6,59
19,-6,59
18,-6,59
20,-6,59
20,-6,59
19,-6,59
19,-5,59
20,-6,59
18,-6,59
20,-6,59
20,-6,59
18,-5,59
20,-6,59
20,-6,59
18,-5,59
20,-6,59
20,-5,59
18,-6,59
19,-5,59
22,-6,59
18,-5,59
20,-6,59
21,-6,59
18,-6,59
20,-6,59
20,-6,59
18,-6,59
19,-6,59
19,-6,59
19,-6,59
20,-6,59
18,-6,59
19,-6,59
20,-6,59
19,-6,59
18,-6,59
21,-6,59
19,-6,59
17,-6,59
20,-7,59
19,-7,59
18,-6,59
19,-6,59
19,-6,59
18,-6,59
19,-6,59
19,-6,59
19,-6,59
18,-6,59
18,-6,59
19,-6,59
18,-6,59
18,-6,59
19,-6,59
19,-6,59
18,-6,59
19,-6,59
19,-6,59
18,-6,59
19,-6,59
19,-7,59
19,-6,59
19,-6,59
19,-6,59
18,-6,59
19,-6,59
19,-6,59
18,-6,59
19,-6,59
19,-6,59
19,-6,59
19,-6,59
18,-6,59
19,-6,60
19,-7,59
17,-6,59
20,-6,59
19,-6,59
17,-6,59
19,-7,59
19,-6,59
18,-6,59
19,-7,59
19,-6,59
18,-6,59
19,-6,59
19,-6,59
19,-6,59
19,-6,59
19,-6,59
18,-6,59
18,-6,59
19,-6,59
19,-6,59
19,-6,59
18,-6,59
18,-6,59
19,-6,59
19,-6,59
19,-6,59
18,-6,59
19,-6,59
19,-6,59
18,-6,59
19,-6,59
19,-6,59
18,-6,59
19,-6,59
19,-6,59
18,-6,59
18,-6,59
20,-6,59
18,-6,59
18,-6,59
20,-6,59
18,-6,59
18,-6,59
19,-6,59
18,-6,59
19,-6,59
19,-6,59
18,-6,59
19,-6,59
19,-6,59
18,-6,59
19,-6,59
19,-6,59
19,-6,59
19,-6,59
19,-6,59
19,-6,59
19,-6,59
19,-6,59
19,-6,59
19,-6,59
19,-6,59
19,-6,59
19,-6,59
19,-6,59
19,-6,59
19,-6,59
19,-6,59
20,-6,59
19,-6,59
18,-6,59
19,-6,59
18,-6,59
19,-6,59
19,-6,59
19,-6,59
19,-6,59
19,-6,60
19,-6,59
19,-6,59
19,-6,59
19,-6,59
19,-6,59
19,-6,59
19,-6,59
19,-6,59
18,-6,59
18,-6,59
19,-6,59
18,-6,59
18,-6,59
19,-6,59
19,-6,59
18,-6,59
19,-6,59
18,-6,59
18,-6,59
19,-6,59
19,-6,59
19,-6,59
19,-6,59
18,-6,59
19,-6,59
19,-6,59
19,-6,59
19,-6,59
19,-6,59
19,-6,59
19,-6,59
19,-6,59
19,-6,59
19,-6,59
19,-6,59
19,-6,59
19,-6,59
19,-6,59
18,-6,59
19,-6,59
19,-6,59
19,-6,59
19,-6,59
19,-6,59
19,-6,59
19,-6,59
19,-6,59
19,-6,59
19,-6,59
18,-6,59
18,-6,59
19,-6,59
19,-6,59
19,-6,59
19,-6,59
19,-6,59
19,-6,59
19,-6,59
19,-6,59
19,-6,59
19,-6,59
19,-6,59
19,-6,59
19,-6,59
19,-6,59
19,-6,59
19,-6,59
19,-6,59
19,-6,59
19,-6,59
19,-6,59
19,-6,59
19,-6,59
19,-6,59
20,-6,59
19,-6,59
19,-6,59
19,-6,59
19,-6,59
19,-6,59
20,-6,59
19,-6,59
19,-6,59
19,-6,59
19,-6,59
19,-6,59
19,-6,59
19,-6,59
19,-6,59
19,-6,59
19,-6,59
19,-6,59
19,-6,59
19,-6,59
19,-6,59
19,-6,59
19,-6,59
19,-6,59
19,-6,59
19,-6,59
19,-6,59
19,-6,59
19,-6,59
19,-6,59
19,-6,59
18,-6,59
19,-6,59
19,-6,59
18,-6,59
19,-6,59
20,-6,59
18,-6,59
19,-6,59
19,-6,59
19,-6,59
19,-6,59
19,-6,59
19,-6,59
19,-6,59
19,-6,59
19,-6,59
18,-6,59
19,-6,59
19,-6,59
19,-6,59
19,-6,59
19,-6,59
18,-6,59
19,-6,59
19,-6,59
19,-6,59
19,-6,59
19,-6,59
19,-6,59
19,-6,59
18,-6,59
19,-6,59
19,-6,59
18,-6,59
19,-6,59
19,-6,59
18,-6,59
19,-6,59
19,-6,59
19,-6,59
19,-6,59
19,-6,59
19,-6,59
19,-6,59
19,-6,59
19,-6,59
19,-6,59
19,-6,59
20,-6,59
19,-6,59
19,-6,59
19,-6,59
19,-6,59
18,-6,59
19,-6,59
19,-6,59
18,-6,59
19,-6,59
19,-6,59
19,-6,59
19,-6,59
19,-6,59
19,-6,59
19,-6,59
19,-6,59
19,-6,59
19,-6,59
19,-6,59
19,-6,59
19,-6,59
18,-6,59
19,-6,59
19,-6,59
18,-6,59
19,-6,59
19,-6,59
18,-6,59
19,-6,59
19,-6,59
19,-6,59
20,-6,59
19,-6,59
19,-6,59
19,-6,59
19,-6,59
18,-6,59
19,-6,59
19,-6,59
19,-6,59
18,-6,59
19,-6,59
19,-6,59
19,-6,59
18,-6,59
20,-6,59
19,-6,59
18,-6,59
20,-6,59
19,-6,59
18,-6,59
19,-6,59
19,-6,59
18,-6,59
19,-6,59
19,-6,59
19,-6,59
19,-6,59
18,-6,59
19,-6,59
19,-6,59
18,-6,59
19,-6,59
18,-6,59
18,-6,59
19,-6,59
19,-6,59
18,-6,59
19,-6,59
18,-6,59
18,-6,59
19,-6,59
19,-6,59
19,-6,59
19,-6,59
19,-6,59
19,-6,59
18,-6,59
19,-6,59
19,-6,59
19,-6,59
18,-6,59
18,-6,59
19,-6,59
19,-6,59
19,-6,59
19,-6,59
19,-6,59
19,-6,59
18,-6,59
19,-6,59
20,-7,59
18,-6,59
18,-6,59
20,-6,59
18,-6,59
19,-6,59
19,-6,59
19,-6,59
19,-6,59
19,-6,59
18,-6,59
18,-6,59
20,-6,59
18,-6,59
18,-6,59
20,-6,59
18,-6,59
18,-6,59
20,-6,59
18,-6,59
18,-6,59
20,-6,59
19,-6,59
18,-6,59
19,-6,59
18,-6,59
18,-6,59
19,-6,59
18,-6,59
18,-6,59
19,-6,59
18,-6,59
18,-6,59
19,-6,59
19,-6,59
18,-6,59
19,-6,59
19,-6,59
18,-6,59
18,-6,59
19,-6,59
19,-6,59
18,-6,59
18,-6,59
18,-6,59
19,-6,59
18,-6,59
18,-6,59
19,-6,59
19,-6,60
18,-6,59
18,-6,59
18,-6,59
19,-6,59
19,-6,59
19,-6,59
19,-6,59
18,-6,60
19,-6,59
19,-6,59
18,-6,59
18,-6,59
18,-6,59
19,-6,59
19,-6,59
19,-6,59
19,-6,59
18,-6,59
19,-6,59
19,-6,59
18,-6,59
19,-6,59
19,-6,59
19,-6,59
19,-6,59
18,-6,59
18,-6,59
18,-6,59
18,-6,59
18,-6,59
19,-6,59
19,-6,59
18,-6,59
18,-6,59
19,-6,59
19,-6,59
18,-6,59
19,-6,59
19,-6,59
18,-6,59
19,-6,59
19,-6,59
18,-6,59
18,-6,60
19,-6,59
19,-6,59
19,-6,59
18,-6,60
18,-6,59
19,-6,59
19,-6,59
18,-6,59
19,-6,59
19,-6,60
18,-6,59
19,-6,59
18,-6,59
19,-6,59
20,-6,59
19,-6,59
18,-6,59
19,-6,59
19,-6,59
19,-6,59
19,-6,59
18,-6,59
19,-6,59
19,-6,59
19,-6,59
18,-6,59
19,-6,59
19,-6,59
18,-6,59
19,-6,59
19,-6,59
19,-6,59
19,-6,59
19,-6,59
19,-6,59
19,-6,59
18,-6,59
19,-6,60
20,-6,59
18,-6,59
19,-6,59
19,-6,59
19,-6,59
19,-6,59
18,-6,59
19,-6,59
19,-6,59
18,-6,59
19,-6,59
19,-6,59
18,-6,59
19,-6,59
20,-6,59
19,-6,59
18,-6,59
19,-6,59
19,-6,59
19,-6,59
19,-6,59
18,-6,59
19,-6,59
19,-6,59
18,-6,59
19,-6,59
18,-6,59
18,-6,59
19,-6,59
19,-6,59
19,-6,59
19,-6,60
19,-6,59
19,-6,59
18,-6,59
19,-6,59
19,-6,59
19,-6,59
18,-6,59
19,-6,59
19,-6,59
19,-6,59
19,-6,59
19,-6,59
19,-6,59
19,-6,59
18,-6,59
18,-6,59
19,-6,59
19,-6,59
19,-6,59
19,-6,59
19,-6,59
19,-6,59
19,-6,59
19,-6,59
19,-6,59
18,-6,59
19,-6,59
19,-6,59
18,-6,59
19,-6,59
18,-6,59
19,-6,59
19,-6,59
19,-6,59
18,-6,59
19,-6,59
19,-6,59
18,-6,59
18,-6,59
19,-6,59
19,-6,59
18,-6,59
19,-6,59
19,-6,59
19,-6,60
19,-6,59
18,-6,59
19,-6,59
19,-6,60
18,-6,59
19,-6,59
19,-6,59
18,-6,59
19,-6,59
19,-6,59
18,-6,59
19,-6,59
19,-6,59
18,-6,59
19,-6,59
19,-6,59
18,-6,59
19,-6,59
19,-6,59
18,-6,59
19,-6,59
19,-6,59
19,-6,59
19,-6,59
18,-6,59
19,-6,59
19,-6,59
19,-6,59
18,-6,59
18,-6,59
19,-6,59
18,-6,59
18,-6,59
19,-6,59
19,-6,59
19,-6,59
19,-6,59
18,-6,59
19,-6,59
19,-6,59
19,-6,59
19,-6,59
19,-6,59
19,-6,59
19,-6,59
19,-6,59
19,-6,59
19,-6,59
19,-6,59
19,-6,59
19,-6,59
18,-6,59
19,-6,59
19,-6,59
18,-6,59
19,-6,59
19,-6,59
19,-6,59
19,-6,59
19,-6,59
19,-6,59
19,-6,59
19,-6,59
19,-6,59
19,-6,59
18,-6,59
19,-6,59
19,-6,59
18,-6,59
19,-6,59
19,-6,59
19,-6,59
19,-6,59
19,-6,59
19,-6,59
19,-6,59
19,-6,59
18,-6,59
18,-6,59
19,-6,59
18,-6,59
19,-6,59
19,-6,59
18,-6,59
19,-6,59
19,-6,59
18,-6,59
19,-6,59
19,-6,59
19,-6,59
19,-6,59
19,-6,59
19,-6,59
18,-6,59
19,-6,59
19,-6,59
19,-6,59
20,-6,59
19,-6,59
18,-6,59
19,-6,59
19,-6,60
18,-6,59
19,-6,59
19,-6,59
19,-6,59
19,-6,59
18,-5,59
19,-6,59
19,-6,59
18,-6,59
19,-6,59
19,-6,59
18,-6,59
20,-6,59
19,-6,59
18,-6,59
19,-6,59
19,-6,59
18,-6,59
19,-6,59
20,-6,59
18,-6,59
19,-6,59
20,-6,59
18,-6,59
19,-6,59
20,-6,59
18,-6,59
19,-6,59
19,-6,59
19,-6,59
19,-6,59
19,-6,59
19,-6,59
19,-6,59
19,-6,59
19,-6,59
19,-6,59
19,-6,59
19,-6,59
19,-6,59
19,-6,59
18,-6,59
18,-6,59
19,-6,59
19,-6,59
19,-6,59
19,-6,60
18,-6,59
19,-6,59
19,-6,60
18,-6,59
19,-6,59
19,-6,59
19,-6,59
19,-6,59
18,-6,59
19,-6,59
19,-6,60
18,-6,59
19,-6,59
19,-6,59
19,-6,59
19,-6,59
19,-6,59
18,-6,59
19,-6,59
18,-6,59
19,-6,59
19,-6,59
19,-6,59
19,-6,59
19,-6,59
19,-6,59
19,-6,59
19,-6,59
19,-6,59
18,-6,59
19,-6,59
19,-6,59
18,-6,59
19,-6,59
19,-6,59
18,-6,59
19,-6,59
19,-6,59
19,-6,59
19,-6,59
19,-6,59
18,-6,59
19,-6,59
19,-6,59
18,-6,59
19,-6,59
19,-6,59
18,-6,59
19,-6,59
19,-6,59
19,-6,59
18,-6,59
19,-6,59
19,-6,59
19,-6,59
19,-6,59
18,-6,59
19,-6,59
19,-6,59
18,-6,59
19,-6,59
19,-6,59
18,-6,59
19,-6,59
19,-6,59
18,-6,59
19,-6,59
19,-6,59
19,-6,59
19,-6,60
18,-6,59
19,-6,59
19,-6,59
19,-6,59
19,-6,59
19,-6,60
19,-6,59
19,-6,59
19,-6,59
19,-6,59
19,-6,59
19,-6,59
19,-6,59
18,-6,59
18,-6,59
19,-6,59
18,-6,59
19,-6,59
19,-6,59
18,-6,59
19,-6,59
19,-6,59
19,-6,59
19,-6,59
19,-6,59
19,-6,59
19,-6,59
18,-6,59
19,-6,59
19,-6,59
19,-6,59
19,-6,59
19,-6,59
18,-6,59
18,-6,59
19,-6,59
19,-6,59
18,-6,59
18,-5,59
19,-6,59
19,-6,59
18,-6,59
19,-6,59
19,-6,59
19,-6,59
19,-6,59
18,-6,59
19,-6,59
18,-5,59
18,-6,59
19,-6,59
18,-6,59
18,-6,59
19,-6,59
19,-6,59
19,-6,59
19,-6,59
19,-6,59
19,-6,59
19,-6,59
19,-6,59
19,-6,59
18,-6,59
19,-6,59
19,-5,59
18,-6,59
19,-6,59
19,-6,59
19,-6,59
19,-6,59
18,-6,59
19,-6,59
19,-6,59
19,-6,59
19,-6,59
19,-6,59
19,-6,59
19,-6,59
19,-6,59
19,-6,59
18,-6,59
19,-6,59
19,-6,59
19,-6,59
19,-6,59
19,-6,59
19,-6,59
18,-6,59
18,-6,59
19,-6,59
18,-6,59
18,-6,59
19,-6,59
19,-6,59
18,-6,59
19,-6,59
19,-6,59
18,-6,59
19,-6,59
19,-6,59
18,-6,59
19,-6,59
19,-6,60
18,-6,59
18,-6,59
19,-6,59
19,-6,59
18,-6,59
18,-6,59
19,-6,59
18,-6,59
18,-6,60
19,-6,59
18,-5,59
18,-6,59
19,-6,59
19,-6,59
18,-6,59
18,-5,59
19,-6,59
19,-6,59
18,-5,59
19,-6,59
19,-6,59
18,-6,59
19,-6,59
19,-6,59
19,-6,60
19,-6,59
18,-6,59
19,-6,59
19,-5,59
18,-6,59
19,-6,59
19,-6,59
19,-6,59
19,-5,60
19,-6,59
19,-6,59
18,-6,59
19,-6,59
19,-5,59
18,-6,60
19,-6,59
19,-6,59
19,-6,59
18,-6,59
19,-6,59
18,-6,59
19,-6,59
19,-6,59
19,-6,59
19,-6,59
19,-6,59
19,-6,59
19,-6,59
19,-5,59
19,-5,59
19,-6,59
18,-6,59
20,-6,59
19,-6,59
18,-6,59
20,-6,59
19,-6,59
18,-6,59
20,-6,59
20,-6,59
18,-6,59
19,-6,59
20,-6,59
19,-6,59
18,-5,59
18,-6,59
19,-6,59
18,-6,59
19,-6,59
19,-6,59
18,-6,59
18,-6,59
19,-6,59
18,-6,59
18,-6,59
20,-6,59
18,-6,59
18,-6,59
19,-6,59
19,-6,59
18,-6,59
19,-5,59
20,-6,60
19,-5,59
18,-5,59
19,-6,59
19,-6,59
18,-6,59
19,-6,59
18,-6,59
19,-6,59
19,-6,59
18,-6,59
19,-6,59
18,-6,59
19,-5,59
19,-6,59
19,-6,59
19,-6,59
18,-6,59
19,-6,59
19,-6,60
18,-5,59
19,-6,59
19,-6,59
18,-6,59
19,-6,60
19,-5,59
18,-6,59
19,-5,59
19,-6,59
18,-5,59
19,-6,59
19,-6,59
19,-6,60
19,-6,59
18,-6,59
19,-6,59
19,-5,59
19,-6,59
19,-6,59
18,-6,59
19,-6,59
19,-6,59
18,-5,59
19,-6,59
19,-6,59
18,-5,59
19,-6,59
19,-6,60
19,-6,59
19,-6,59
19,-6,59
19,-6,59
19,-6,59
19,-6,59
19,-6,59
19,-6,59
19,-6,59
19,-6,59
19,-6,59
19,-6,59
19,-6,59
19,-6,59
18,-6,59
19,-6,59
19,-6,59
19,-6,59
19,-6,59
19,-6,59
18,-6,59
19,-6,59
19,-6,59
18,-6,59
19,-6,59
19,-6,59
19,-6,59
20,-6,59
18,-6,59
19,-6,59
19,-6,59
19,-6,59
19,-6,59
19,-6,59
19,-6,59
19,-5,59
19,-6,59
19,-5,59
19,-6,59
18,-6,59
19,-6,59
19,-6,59
19,-5,59
18,-5,59
18,-6,59
18,-6,59
19,-5,59
18,-6,59
18,-6,59
18,-6,59
18,-5,60
19,-6,59
19,-6,59
18,-5,59
18,-6,59
19,-5,59
19,-5,59
19,-6,59
19,-5,59
18,-6,59
19,-6,59
19,-6,59
18,-6,59
19,-6,59
19,-6,59
18,-6,60
18,-6,59
19,-6,59
18,-6,59
18,-6,59
19,-6,59
19,-5,59
19,-6,59
19,-6,59
19,-6,59
19,-6,59
19,-6,59
19,-6,59
19,-6,59
19,-6,59
19,-6,59
19,-6,59
18,-6,59
18,-6,59
19,-6,59
18,-6,59
18,-6,59
19,-6,59
19,-6,59
18,-6,59
19,-6,59
19,-6,59
18,-6,59
19,-6,59
19,-6,59
18,-6,59
19,-6,59
19,-6,59
18,-6,59
19,-6,59
19,-6,59
19,-6,59
19,-6,59
19,-6,59
19,-6,59
18,-5,59
19,-6,59
19,-5,59
18,-5,59
18,-6,60
18,-6,59
18,-6,59
18,-6,59
19,-6,60
17,-6,59
18,-5,59
19,-5,60
18,-6,59
18,-6,59
19,-6,59
18,-6,59
18,-6,59
19,-6,59
18,-5,60
18,-6,59
19,-6,60
18,-5,60
17,-5,59
18,-6,59
19,-5,59
18,-5,59
18,-5,59
19,-6,59
18,-5,60
18,-6,59
18,-6,59
18,-5,59
18,-5,60
18,-5,59
18,-5,59
18,-5,59
19,-5,60
18,-6,59
18,-5,59
18,-5,59
18,-5,60
18,-5,59
18,-5,60
18,-5,60
19,-6,59
19,-5,59
18,-5,59
19,-5,59
19,-6,59
18,-5,60
19,-5,59
19,-6,59
18,-5,59
19,-5,59
18,-5,59
18,-6,59
19,-6,59
19,-5,59
18,-6,60
19,-5,59
18,-5,59
18,-6,59
18,-5,59
18,-5,59
19,-6,59
18,-5,59
19,-6,59
19,-6,59
18,-5,59
19,-5,59
19,-5,59
18,-5,59
19,-5,59
18,-6,59
18,-5,59
19,-5,59
18,-5,59
18,-6,59
19,-5,60
18,-5,59
19,-5,60
19,-5,59
18,-5,59
18,-5,59
19,-5,60
19,-5,59
18,-5,59
18,-5,59
18,-5,60
19,-6,59
18,-5,59
18,-5,60
19,-6,59
18,-5,60
18,-5,59
19,-5,60
18,-5,59
18,-5,59
19,-5,60
18,-6,59
19,-5,59
18,-5,59
18,-5,59
18,-5,59
19,-5,59
18,-5,59
18,-5,59
18,-5,59
19,-5,60
18,-5,59
18,-6,60
18,-6,60
18,-5,59
18,-5,59
18,-5,59
18,-5,59
18,-5,59
19,-5,59
18,-5,59
18,-6,59
18,-5,60
19,-5,59
18,-5,59
18,-6,59
19,-5,59
19,-5,59
18,-5,59
19,-6,59
19,-5,59
18,-5,59
19,-5,60
19,-5,59
18,-5,59
19,-6,59
18,-5,59
18,-5,59
18,-6,59
18,-5,59
19,-5,59
18,-5,59
19,-6,59
18,-5,59
18,-5,59
19,-6,59
19,-5,59
18,-5,59
18,-6,59
19,-5,59
18,-5,59
18,-6,59
19,-5,59
19,-5,60
18,-5,59
18,-6,59
19,-5,59
19,-5,60
19,-5,59
18,-5,59
19,-6,59
18,-6,59
19,-5,59
19,-6,59
18,-6,59
18,-5,59
19,-5,59
18,-5,59
18,-6,59
19,-5,59
18,-5,59
18,-6,59
19,-6,60
18,-5,59
17,-5,59
19,-6,59
19,-6,59
16,-4,59
17,-5,59
19,-5,60
18,-6,59
19,-5,59
19,-5,59
18,-5,59
19,-6,60
18,-5,59
17,-5,59
18,-5,60
20,-6,59
18,-5,60
16,-5,59
19,-5,60
20,-6,59
17,-5,59
19,-5,59
19,-5,59
18,-5,59
18,-5,60
18,-5,59
18,-5,59
18,-5,59
18,-5,60
19,-5,60
17,-6,59
17,-5,60
20,-5,60
17,-6,59
16,-5,59
19,-5,60
19,-5,60
18,-5,59
18,-5,59
19,-5,59
18,-5,60
18,-6,60
18,-5,59
19,-6,60
18,-6,59
17,-5,59
18,-5,59
19,-5,60
17,-5,59
18,-5,60
19,-5,60
18,-5,59
18,-5,59
18,-5,60
17,-5,59
18,-4,60
19,-5,60
18,-5,60
17,-5,60
19,-5,60
18,-5,60
17,-5,60
18,-5,60
18,-5,60
17,-4,60
19,-5,60
17,-5,60
16,-5,59
17,-5,60
18,-5,60
18,-5,60
18,-4,60
17,-5,60
16,-5,60
17,-4,60
19,-5,60
18,-5,60
16,-4,60
17,-5,60
19,-5,60
16,-5,60
17,-5,60
16,-4,60
17,-5,60
16,-4,60
16,-4,60
20,-5,60
18,-5,60
16,-5,60
18,-5,60
18,-5,60
17,-4,60
17,-5,60
17,-4,60
17,-5,60
17,-5,60
18,-5,60
18,-6,60
18,-5,60
18,-5,60
16,-5,60
17,-4,60
17,-5,60
17,-6,60
17,-5,60
17,-5,60
17,-5,60
16,-5,60
17,-5,60
18,-5,60
17,-5,60
17,-5,60
16,-5,60
16,-5,60
19,-6,60
19,-5,60
17,-4,60
18,-5,60
18,-5,60
17,-5,60
18,-5,60
18,-5,59
18,-5,60
19,-6,60
17,-5,59
17,-5,59
21,-6,60
16,-5,59
16,-5,59
20,-6,59
17,-5,59
17,-5,60
19,-5,59
19,-5,59
18,-5,59
18,-5,60
19,-6,60
19,-6,59
19,-5,60
18,-5,60
19,-6,59
18,-5,59
18,-5,60
20,-5,59
18,-5,60
18,-5,59
19,-6,59
19,-6,60
17,-6,59
18,-6,59
19,-5,60
18,-5,60
18,-6,59
19,-6,59
19,-6,59
18,-5,59
19,-6,59
18,-5,59
19,-6,59
19,-6,59
18,-6,59
18,-5,59
19,-6,59
19,-6,59
18,-6,59
19,-6,59
19,-5,59
18,-6,59
19,-6,59
18,-6,59
18,-6,59
19,-5,59
18,-6,59
18,-6,59
19,-6,59
19,-5,59
18,-6,59
18,-6,59
19,-6,59
19,-6,59
18,-6,59
19,-6,59
19,-6,59
18,-6,59
19,-5,59
19,-6,59
19,-6,59
19,-6,59
19,-6,59
19,-6,59
19,-6,59
18,-6,59
19,-6,59
19,-6,60
18,-5,59
18,-6,59
18,-6,59
18,-6,59
19,-6,59
19,-6,59
18,-6,59
19,-6,59
21,-6,59
18,-5,59
18,-5,60
17,-4,59
20,-6,59
18,-5,59
17,-5,59
20,-6,60
18,-6,59
17,-5,59
19,-6,59
17,-5,59
17,-5,59
20,-6,60
18,-6,60
17,-5,59
20,-6,59
18,-6,59
17,-5,60
19,-6,59
20,-6,60
17,-5,59
18,-5,59
19,-5,59
20,-6,59
20,-5,59
16,-4,59
18,-5,59
21,-6,60
19,-5,60
18,-5,59
19,-5,59
18,-5,59
17,-5,59
19,-6,60
19,-5,59
17,-5,60
19,-6,60
19,-6,60
18,-5,59
18,-6,59
18,-5,59
18,-5,60
18,-5,59
18,-5,59
19,-6,59
20,-5,59
20,-6,59
20,-6,59
18,-5,59
17,-5,60
18,-5,60
17,-5,59
16,-5,59
18,-6,60
18,-5,60
18,-5,59
20,-6,59
19,-6,59
18,-6,59
18,-5,60
18,-5,60
17,-5,59
17,-5,59
18,-5,60
18,-5,59
19,-6,60
19,-6,59
19,-5,59
18,-5,60
18,-5,60
17,-5,59
18,-5,60
19,-5,59
18,-5,59
18,-5,59
19,-5,59
18,-5,59
19,-5,59
18,-5,59
18,-5,59
18,-5,60
18,-5,59
18,-5,59
19,-5,59
19,-5,60
18,-5,59
18,-5,59
18,-5,59
19,-5,59
18,-5,59
17,-5,60
19,-5,60
18,-5,59
18,-5,59
18,-5,59
18,-5,59
18,-6,59
18,-5,59
18,-5,60
18,-5,60
19,-5,59
18,-5,59
18,-5,59
18,-5,59
18,-5,60
18,-5,59
18,-5,59
18,-5,60
18,-5,60
18,-5,59
19,-5,60
18,-6,59
18,-5,59
19,-5,59
19,-5,59
18,-5,59
19,-5,60
18,-5,59
18,-5,59
19,-5,60
18,-5,60
19,-5,60
19,-5,59
18,-5,59
18,-5,59
18,-5,59
18,-5,59
18,-5,60
18,-5,59
18,-5,59
19,-5,59
18,-5,59
18,-5,60
19,-5,59
18,-5,59
18,-5,60
19,-5,59
18,-5,59
18,-5,59
19,-5,59
18,-5,59
18,-6,59
18,-5,60
18,-5,59
19,-5,59
18,-5,59
18,-5,60
19,-5,60
18,-5,59
18,-5,59
18,-5,59
19,-5,59
18,-5,60
18,-5,59
18,-5,60
18,-5,59
18,-5,60
18,-6,60
18,-5,60
18,-5,59
18,-5,60
18,-5,60
17,-5,59
18,-5,59
19,-5,60
18,-5,60
18,-6,59
19,-5,60
17,-5,60
19,-5,60
19,-5,60
17,-5,59
19,-5,59
20,-5,60
18,-6,59
18,-5,59
18,-5,59
19,-6,60
18,-5,59
17,-6,60
18,-5,59
20,-6,60
19,-5,60
17,-5,59
19,-5,59
19,-5,59
18,-5,59
16,-5,59
19,-5,60
20,-5,60
17,-5,59
16,-5,59
19,-5,60
18,-4,59
18,-5,59
20,-6,59
20,-6,59
19,-5,59
17,-5,60
17,-5,59
18,-5,60
16,-5,59
17,-5,59
20,-5,60
17,-5,59
17,-5,60
19,-5,60
19,-5,59
17,-4,60
18,-5,60
20,-6,59
19,-5,60
16,-5,59
18,-6,59
18,-5,60
17,-5,60
18,-4,59
20,-5,60
19,-5,59
18,-5,59
19,-5,59
19,-5,60
17,-5,60
17,-5,60
19,-5,60
21,-5,60
15,-4,60
15,-5,60
20,-5,60
19,-5,60
17,-5,60
20,-6,60
20,-5,60
16,-4,60
16,-4,60
18,-5,60
18,-4,60
18,-5,60
18,-5,60
18,-5,60
18,-5,60
17,-5,59
18,-5,60
18,-5,60
17,-5,60
18,-5,60
18,-5,60
17,-5,59
19,-5,60
17,-5,60
17,-5,60
18,-5,60
18,-5,60
18,-5,60
18,-5,60
18,-5,60
18,-5,60
18,-5,60
18,-5,60
18,-5,60
18,-5,60
18,-5,60
18,-5,60
18,-5,60
18,-5,60
18,-5,60
18,-5,60
18,-5,59
18,-5,60
18,-5,60
18,-5,59
17,-5,59
19,-5,60
18,-5,60
18,-5,59
18,-5,60
18,-5,60
18,-5,60
18,-5,60
18,-5,60
19,-5,60
17,-5,60
18,-5,59
19,-5,60
18,-5,59
18,-5,60
18,-5,60
18,-5,60
18,-5,59
18,-5,60
18,-5,60
18,-5,60
18,-5,60
18,-5,60
18,-5,60
18,-5,60
18,-5,60
18,-5,60
18,-5,60
18,-5,60
18,-5,60
18,-5,59
18,-5,59
18,-5,60
18,-5,60
17,-5,59
18,-5,60
19,-5,60
18,-5,59
17,-5,60
19,-5,60
18,-5,60
18,-5,60
18,-5,60
18,-5,59
18,-5,59
18,-5,60
18,-5,60
18,-5,60
19,-5,60
19,-5,60
17,-5,59
18,-5,60
18,-5,60
17,-5,59
19,-5,60
19,-5,60
18,-5,59
18,-5,60
18,-5,60
19,-5,60
18,-5,60
17,-5,60
19,-5,60
18,-5,60
17,-5,60
18,-5,60
18,-5,60
18,-5,60
18,-5,59
19,-5,60
18,-5,59
18,-5,60
19,-5,60
18,-5,60
17,-5,60
18,-5,59
18,-5,60
18,-5,60
17,-5,60
18,-5,60
19,-5,60
17,-5,60
17,-5,60
18,-5,60
18,-5,60
17,-5,60
18,-5,60
18,-5,60
18,-5,60
18,-5,60
18,-5,60
17,-5,60
18,-5,60
19,-5,60
18,-5,60
17,-5,60
19,-5,60
18,-5,60
17,-5,60
18,-5,60
18,-5,60
18,-5,59
18,-5,60
18,-5,60
18,-5,60
18,-5,60
17,-4,60
19,-5,60
18,-4,60
17,-4,60
19,-5,60
19,-5,59
17,-5,60
19,-5,60
18,-5,60
17,-5,59
18,-5,59
19,-5,60
18,-5,60
18,-5,60
18,-5,60
18,-5,60
18,-5,59
18,-5,60
18,-5,60
18,-5,60
18,-5,60
18,-5,60
17,-4,59
18,-5,60
18,-5,60
17,-4,60
18,-5,60
19,-5,60
17,-4,60
18,-5,59
20,-5,59
16,-4,60
17,-6,59
19,-5,59
17,-5,60
17,-5,59
19,-5,60
18,-4,60
18,-5,59
18,-5,60
17,-5,60
18,-5,59
18,-5,60
18,-5,60
18,-5,59
18,-5,60
18,-5,60
18,-5,59
18,-5,60
18,-5,60
18,-5,59
18,-5,60
18,-5,60
18,-5,59
18,-5,59
18,-5,60
18,-5,59
18,-5,60
18,-5,60
18,-5,60
18,-5,60
18,-5,59
19,-5,59
18,-4,60
19,-5,60
19,-5,60
18,-5,60
18,-5,60
19,-5,60
18,-5,60
17,-5,60
19,-5,60
18,-5,59
18,-5,59
19,-5,60
18,-4,60
18,-5,60
18,-5,60
19,-5,60
19,-5,60
18,-5,59
18,-5,59
18,-5,59
18,-4,60
19,-5,59
18,-5,60
18,-5,60
18,-5,60
18,-5,60
19,-5,60
17,-5,60
18,-4,59
19,-5,60
18,-5,60
18,-5,60
18,-5,60
18,-5,59
18,-5,60
18,-5,60
18,-5,60
18,-5,60
18,-5,60
18,-5,60
19,-5,60
18,-4,60
18,-5,60
19,-5,60
17,-5,60
17,-4,60
19,-5,60
17,-5,60
18,-5,60
19,-5,60
17,-4,60
17,-5,60
19,-5,60
17,-5,60
17,-5,60
18,-5,60
17,-5,60
18,-4,59
19,-5,60
18,-5,60
18,-4,60
18,-5,60
18,-5,59
18,-5,60
18,-5,60
18,-5,60
18,-5,60
18,-5,60
18,-5,60
18,-4,59
18,-4,60
17,-5,60
18,-5,60
18,-4,60
18,-5,60
18,-5,60
17,-5,59
19,-5,59
19,-5,60
17,-4,60
19,-5,60
18,-5,60
17,-4,60
19,-5,60
19,-5,60
18,-5,59
19,-5,60
18,-4,59
19,-5,60
19,-5,60
18,-4,59
18,-5,60
18,-5,60
17,-4,60
18,-5,59
19,-5,60
18,-4,60
18,-5,59
19,-5,59
18,-4,59
18,-5,59
19,-5,60
19,-4,59
18,-4,60
18,-5,59
18,-5,60
18,-5,59
18,-5,59
18,-5,59
18,-5,60
18,-4,60
18,-5,60
18,-5,60
18,-5,60
18,-4,60
18,-5,60
17,-4,60
18,-5,60
18,-5,59
18,-5,60
18,-5,60
18,-4,60
18,-5,60
18,-5,60
18,-5,60
17,-4,60
18,-5,60
18,-4,60
18,-5,60
18,-5,60
18,-5,60
19,-5,60
18,-4,60
18,-5,59
18,-5,60
18,-4,59
18,-5,59
19,-5,60
18,-5,60
18,-5,59
18,-5,59
18,-4,60
19,-5,60
18,-5,60
18,-4,59
18,-5,60
18,-5,60
18,-4,60
18,-5,60
18,-5,60
18,-4,60
18,-4,60
18,-5,60
18,-5,59
18,-5,60
18,-5,60
17,-4,60
19,-5,60
19,-5,60
18,-4,60
18,-4,60
19,-4,60
17,-4,60
18,-4,60
19,-4,60
18,-4,60
18,-4,59
18,-5,60
18,-4,59
18,-4,60
19,-5,60
18,-4,59
18,-4,60
19,-4,60
18,-5,59
18,-4,60
19,-4,60
18,-5,60
17,-4,60
18,-5,60
18,-4,60
17,-4,60
19,-4,60
17,-4,60
17,-4,59
19,-4,60
18,-4,59
18,-4,60
18,-5,60
19,-4,60
18,-4,60
17,-4,60
18,-4,59
19,-5,60
18,-4,60
17,-5,59
19,-5,60
18,-4,60
17,-4,60
18,-4,60
19,-4,60
18,-4,60
18,-5,59
18,-4,59
17,-4,60
18,-4,60
19,-4,60
18,-4,59
18,-5,59
19,-4,59
18,-5,60
18,-5,59
19,-6,60
15,-5,59
18,-4,60
19,-5,60
18,-4,59
18,-4,59
18,-5,60
17,-4,59
18,-4,60
18,-4,60
17,-5,60
19,-4,60
18,-4,60
19,-5,60
19,-4,60
19,-4,59
18,-5,60
19,-4,59
19,-4,59
19,-4,60
18,-4,60
19,-4,60
19,-4,59
18,-4,59
19,-5,60
19,-4,60
17,-4,59
19,-5,60
19,-4,60
19,-4,60
18,-4,60
19,-5,60
18,-4,60
19,-4,59
18,-4,59
18,-4,60
19,-4,60
19,-5,60
18,-4,60
19,-4,60
18,-4,59
18,-4,59
19,-4,60
18,-4,60
19,-4,60
18,-4,60
18,-4,59
19,-4,60
18,-4,60
18,-4,59
18,-5,60
18,-4,60
18,-4,59
18,-4,59
19,-5,60
19,-4,59
18,-4,59
18,-4,60
19,-5,59
18,-4,60
18,-4,59
18,-5,59
18,-4,60
18,-4,60
18,-4,60
19,-5,60
18,-4,60
18,-4,59
19,-4,59
19,-4,59
18,-4,59
19,-4,60
18,-5,60
18,-4,60
19,-4,59
19,-4,60
18,-4,59
19,-5,59
18,-4,60
18,-4,59
19,-4,60
18,-4,59
18,-4,60
18,-4,60
18,-5,59
18,-4,59
18,-4,59
18,-4,59
18,-4,60
18,-4,59
19,-4,60
18,-4,60
19,-5,59
19,-4,59
18,-4,59
19,-4,60
19,-5,59
18,-4,60
19,-4,60
19,-4,59
18,-4,59
19,-5,59
19,-5,59
18,-5,59
19,-4,60
18,-4,60
18,-4,60
19,-5,60
18,-4,59
18,-5,60
18,-5,60
18,-4,60
18,-4,59
19,-4,60
18,-4,60
19,-5,59
18,-5,59
18,-4,60
19,-5,60
18,-4,60
18,-4,60
19,-4,59
18,-4,60
18,-4,60
18,-4,59
19,-4,59
18,-4,59
19,-5,59
18,-4,59
18,-4,59
19,-5,59
18,-4,60
18,-4,60
19,-5,60
18,-4,59
18,-4,60
19,-4,59
18,-4,59
18,-4,59
18,-5,60
19,-5,60
18,-4,60
18,-4,59
18,-5,59
18,-4,60
18,-4,60
18,-4,60
18,-5,60
18,-5,60
18,-4,60
19,-4,60
18,-4,59
18,-4,59
19,-4,60
18,-4,59
18,-4,60
19,-4,60
18,-5,59
18,-4,59
19,-4,60
18,-4,59
18,-5,59
18,-5,59
18,-4,60
19,-4,59
18,-4,59
18,-4,59
19,-4,60
19,-4,60
18,-4,60
18,-4,60
18,-4,60
18,-4,59
19,-4,60
18,-4,59
18,-4,60
19,-4,60
18,-4,59
19,-5,60
19,-4,60
18,-5,60
19,-4,59
18,-4,59
19,-4,60
18,-4,59
18,-4,60
19,-5,60
19,-4,59
18,-4,60
18,-4,59
18,-4,60
19,-5,59
18,-5,59
19,-4,60
19,-4,60
18,-5,60
18,-4,59
19,-5,59
18,-5,59
18,-4,59
19,-4,60
18,-5,60
18,-4,59
19,-5,59
18,-4,59
18,-4,59
19,-5,60
18,-4,59
18,-4,60
19,-4,60
18,-4,59
18,-4,59
18,-4,59
18,-4,60
19,-5,59
18,-4,59
19,-4,60
19,-5,60
18,-4,59
18,-5,59
19,-4,59
18,-4,59
18,-4,59
19,-4,59
18,-4,59
19,-4,60
19,-4,60
18,-4,60
18,-4,60
19,-4,59
18,-4,59
19,-4,59
19,-4,60
18,-4,60
19,-4,60
19,-4,60
18,-4,60
19,-4,60
18,-4,60
18,-4,60
19,-4,60
18,-4,59
18,-4,60
19,-4,59
18,-4,59
19,-4,59
19,-4,60
18,-5,59
18,-4,59
19,-4,60
19,-4,60
18,-4,60
19,-4,60
18,-4,60
18,-4,59
19,-5,59
18,-4,59
19,-4,60
18,-4,59
18,-4,59
18,-5,59
18,-4,60
20,-5,60
18,-4,59
17,-4,59
19,-5,60
18,-4,60
18,-4,59
19,-4,60
18,-4,60
19,-4,60
19,-4,60
18,-4,60
19,-4,59
18,-4,59
19,-4,60
19,-4,59
18,-4,59
19,-4,59
19,-5,60
18,-4,60
19,-4,60
19,-4,60
18,-4,59
19,-4,59
18,-4,59
19,-4,59
19,-4,59
19,-5,59
19,-4,59
19,-4,59
18,-4,60
18,-4,59
19,-4,60
19,-4,59
18,-4,60
19,-5,60
19,-4,59
18,-4,59
18,-4,59
18,-4,59
19,-4,60
19,-4,59
18,-4,60
19,-4,60
19,-4,59
19,-4,60
18,-4,60
18,-4,59
19,-5,60
18,-4,59
18,-4,60
19,-4,60
18,-4,60
18,-4,60
18,-4,59
19,-4,60
19,-4,60
18,-4,60
19,-4,60
19,-4,60
18,-4,59
19,-4,60
18,-4,60
19,-4,60
18,-4,60
18,-4,59
19,-4,60
18,-4,60
18,-4,60
19,-4,60
18,-4,60
19,-4,60
19,-4,59
19,-4,60
19,-4,60
18,-4,60
19,-4,59
19,-4,59
18,-4,60
19,-4,59
19,-4,59
19,-4,60
19,-4,59
19,-4,59
18,-4,59
19,-4,60
18,-4,60
19,-4,60
19,-4,60
19,-4,59
19,-4,59
19,-4,59
19,-4,59
19,-4,59
19,-4,59
19,-4,59
19,-4,59
19,-4,60
19,-4,59
19,-4,59
18,-4,60
19,-4,59
19,-4,59
18,-4,59
19,-4,59
18,-4,59
18,-4,59
19,-4,59
18,-5,59
19,-4,60
19,-4,59
19,-4,60
19,-4,60
19,-4,60
19,-4,60
18,-4,59
18,-4,59
19,-4,59
19,-4,59
19,-4,59
19,-4,59
19,-4,59
19,-4,59
19,-4,60
18,-4,59
19,-4,59
19,-4,59
19,-4,59
18,-4,60
19,-4,60
19,-4,59
18,-4,60
18,-4,59
18,-4,59
19,-4,59
18,-4,60
18,-4,60
19,-4,59
18,-4,60
19,-4,59
18,-4,59
19,-4,60
19,-4,59
18,-4,59
19,-4,59
19,-4,59
18,-4,60
19,-4,59
19,-4,59
18,-4,59
19,-4,60
19,-4,60
18,-4,60
19,-4,60
18,-4,59
18,-4,59
19,-4,59
19,-4,60
18,-4,60
18,-4,59
19,-4,60
18,-4,59
19,-4,60
19,-4,59
19,-4,60
19,-4,59
19,-4,59
18,-4,59
19,-4,60
19,-4,60
19,-4,60
19,-4,59
19,-4,59
19,-4,59
18,-4,59
18,-4,59
19,-4,59
19,-4,60
19,-4,59
19,-4,59
19,-4,60
19,-4,59
18,-4,60
18,-4,59
19,-4,59
18,-4,60
18,-4,59
19,-4,60
18,-4,59
18,-4,60
19,-4,60
18,-4,59
19,-4,59
19,-4,60
18,-4,59
18,-4,60
19,-4,60
18,-4,59
19,-4,59
19,-4,59
18,-5,60
19,-4,59
19,-4,60
19,-4,60
19,-4,59
18,-4,60
19,-5,59
19,-4,60
18,-4,60
19,-4,59
19,-4,60
18,-4,59
18,-4,59
19,-4,59
18,-4,59
19,-4,59
19,-4,59
18,-4,60
18,-4,60
19,-4,60
18,-4,60
18,-4,59
19,-4,60
18,-4,60
18,-4,60
19,-4,60
18,-4,59
18,-4,60
18,-4,60
18,-4,59
19,-4,60
18,-4,60
19,-4,59
18,-4,59
18,-4,59
18,-4,60
18,-4,59
19,-4,60
19,-4,60
18,-4,60
19,-4,59
18,-4,60
18,-4,59
19,-4,60
18,-4,59
18,-4,59
19,-4,60
18,-4,60
18,-4,59
19,-4,60
18,-4,59
18,-4,60
19,-4,60
18,-4,59
19,-4,60
19,-4,60
19,-4,59
19,-4,59
18,-4,59
18,-4,59
19,-4,59
18,-4,59
19,-4,59
19,-4,60
18,-4,59
19,-4,59
19,-4,59
18,-4,60
19,-4,59
19,-4,59
19,-4,59
19,-4,60
19,-4,60
19,-4,60
19,-4,60
19,-4,59
19,-4,59
19,-4,59
19,-4,59
19,-4,59
19,-4,59
19,-4,60
18,-4,60
18,-4,59
19,-4,60
18,-4,60
