1568158221.000000, 1568158221.000000, 1568158221.000000
32.000000, 32.000000, 32.000000
-42,-41,24
-41,-38,26
-40,-39,24
-40,-40,23
-43,-41,23
-40,-42,26
-38,-42,28
-39,-43,27
-39,-42,28
-37,-41,31
-37,-42,34
-37,-41,34
-37,-41,34
-36,-41,33
-36,-41,33
-37,-41,32
-37,-40,31
-36,-40,31
-37,-40,31
-37,-39,30
-37,-39,30
-37,-40,30
-37,-40,32
-36,-40,31
-35,-40,28
-37,-39,25
-37,-36,22
-35,-29,26
-36,-27,35
-33,-24,42
-31,-19,60
-32,-20,61
-28,-16,61
-29,-16,57
-25,-11,57
-19,-10,62
-16,-10,61
-14,-7,59
-14,-5,58
-12,-5,62
-8,-3,60
-7,-1,59
-4,-1,63
-1,0,64
-1,1,62
7,2,62
11,5,67
8,4,64
10,4,62
14,6,65
12,5,62
14,5,60
18,6,63
18,7,63
15,7,60
16,7,63
16,7,63
17,8,62
16,6,61
15,7,61
15,5,60
16,6,61
14,5,60
12,5,61
14,6,61
15,6,61
11,5,60
10,5,61
12,6,60
12,5,62
11,6,63
9,5,63
7,7,68
7,8,72
3,7,72
-17,4,55
-30,-1,46
-50,-6,43
-55,-3,39
-56,-4,33
-55,-12,33
-53,-12,30
-54,-15,25
-52,-18,23
-50,-19,25
-52,-22,23
-54,-23,22
-51,-25,25
-49,-25,27
-49,-25,29
-49,-25,31
-48,-26,31
-48,-25,31
-49,-25,31
-50,-25,29
-51,-24,28
-51,-24,29
-51,-24,29
-51,-24,28
-51,-24,28
-50,-24,29
-50,-24,29
-52,-24,29
-51,-24,29
-51,-24,29
-51,-24,29
-51,-24,29
-51,-24,29
-51,-24,30
-51,-24,30
-51,-23,29
-50,-23,30
-51,-24,29
-51,-23,28
-52,-22,30
-51,-22,32
-50,-19,31
-50,-18,31
-51,-15,31
-52,-15,31
-53,-15,30
-53,-9,32
-54,-10,32
-54,-11,32
-52,-8,38
-52,-7,36
-52,-7,35
-51,-7,38
-44,-4,42
-43,-4,41
-45,-6,43
-40,-2,46
-36,-2,47
-28,0,54
-24,0,55
-22,0,55
-14,3,57
-2,6,67
0,6,68
4,8,65
8,9,70
10,9,69
8,7,61
12,9,64
14,10,64
14,10,61
11,9,59
17,11,59
24,13,61
18,10,55
17,10,55
23,13,61
25,14,60
20,13,56
13,14,56
21,15,59
22,16,58
14,15,54
16,16,58
19,16,58
19,14,56
20,16,58
20,17,58
20,15,58
24,15,58
23,17,57
21,17,59
20,15,56
21,15,57
24,15,56
24,15,55
18,15,54
17,15,53
17,15,50
10,15,44
2,17,42
-3,20,44
-10,28,51
-4,30,57
-8,30,56
-18,31,58
-27,29,65
-30,25,64
-39,18,55
-53,14,47
-58,15,48
-62,13,60
-57,9,55
-57,9,49
-57,9,45
-45,10,44
-40,12,44
-42,17,38
-43,21,35
-40,23,35
-33,24,42
-28,27,48
-27,29,45
-31,34,34
-34,36,35
-33,35,37
-34,35,38
-31,35,42
-34,36,43
-36,37,42
-34,36,40
-43,37,38
-36,33,39
-30,30,40
-32,29,40
-30,27,38
-32,29,42
-71,34,40
-125,54,71
-32,37,85
34,3,56
-20,-5,35
-33,15,41
-30,20,42
-33,18,48
-23,17,53
-22,18,57
-26,23,54
-30,31,54
-66,58,42
-75,57,24
-39,51,36
8,39,60
-6,16,50
-3,8,49
-10,-3,58
-52,-15,74
-44,-8,76
1,26,91
22,40,94
32,41,74
-15,26,36
-52,4,35
-38,-1,41
-20,5,57
-3,13,76
-23,16,66
-31,7,71
-25,12,73
-18,16,87
-8,21,81
3,0,50
5,-6,40
12,-15,25
4,-2,13
5,5,19
-13,13,52
-101,20,76
-50,6,34
9,28,58
-17,36,52
-24,35,50
-15,29,47
-12,37,43
-8,42,45
-12,47,45
-3,49,33
2,55,28
13,63,28
4,63,36
-9,48,38
2,45,35
0,49,38
4,60,36
8,59,27
10,59,18
7,67,18
15,64,15
14,66,13
13,62,10
10,65,12
7,69,9
5,78,9
6,85,14
0,93,15
-7,95,25
-3,94,48
7,74,46
31,53,27
19,72,17
11,74,18
10,72,9
-3,67,-3
-7,64,-2
-13,56,-3
-4,49,11
2,47,22
7,41,34
6,37,33
5,36,31
3,38,27
-2,42,23
-3,46,21
-5,57,10
-13,83,-1
-21,93,-3
-32,103,-1
-34,103,6
-33,101,10
-32,101,9
-29,93,-6
-29,89,-11
-31,81,-13
-28,66,-9
-27,59,-4
-27,50,6
-26,47,11
-25,48,13
-24,52,14
-21,53,13
-20,54,11
-18,57,12
-17,57,13
-18,61,17
-19,67,19
-17,70,16
-17,73,16
-20,87,17
-21,84,17
-23,75,19
-20,73,19
-15,72,18
-11,68,12
-8,57,7
-8,50,5
-7,41,6
-8,36,7
-7,34,6
-7,33,3
-6,35,1
-6,38,2
-5,44,0
4,44,-3
7,44,-4
10,45,-5
20,38,-14
23,39,-14
24,58,-11
36,55,-15
34,58,-20
25,75,-6
35,76,-23
34,74,-33
27,72,-29
36,78,-40
27,79,-37
-5,75,-53
61,114,9
48,118,16
11,94,-17
20,52,6
4,40,-8
-14,66,-18
39,61,-26
26,59,-19
-3,75,-1
15,61,-4
9,64,-20
3,72,-2
4,58,-7
-4,59,-27
-6,69,-10
-8,66,-14
-12,69,-18
-13,67,-12
-21,69,4
-35,74,19
-51,81,16
-47,84,8
-77,72,-3
-86,42,9
-54,38,18
-54,28,11
-42,19,9
-38,17,12
-35,16,14
-16,12,17
-3,12,21
13,10,35
24,18,52
20,22,50
16,25,44
20,27,40
20,29,47
21,29,52
17,27,51
16,28,57
17,31,65
12,27,54
10,25,53
19,16,89
7,7,121
23,14,89
-3,20,53
1,19,54
15,18,65
2,12,67
8,8,50
7,7,52
2,9,65
1,7,59
3,7,57
1,8,61
2,7,62
3,6,60
3,5,62
4,6,63
4,6,62
4,8,62
2,8,63
2,9,63
2,9,61
1,9,62
2,8,62
2,10,61
2,9,61
0,10,63
0,10,63
0,11,62
0,12,62
-1,13,64
-1,13,64
-1,13,63
-1,13,64
-2,14,64
-1,13,64
-2,11,62
-3,11,62
-4,10,60
-5,9,58
-4,9,59
-4,10,60
-1,10,60
1,11,61
5,13,63
4,11,61
5,12,60
3,13,63
2,15,63
3,15,63
1,15,63
2,15,64
2,15,63
1,12,61
1,14,62
0,12,63
-3,13,60
-2,14,61
-3,14,61
-2,14,61
-2,14,61
-1,13,62
0,13,61
-1,13,62
-1,13,63
-2,13,62
-3,13,62
-3,13,61
-4,13,61
-5,13,61
-4,13,61
-4,12,61
-4,12,61
-3,12,62
-3,12,61
-2,13,62
-2,13,62
-1,13,60
-2,13,60
-2,13,62
-2,13,61
-3,13,61
-3,13,62
-2,12,62
-3,12,60
3,14,65
-1,14,62
0,13,62
-1,13,61
0,14,62
-1,14,62
-2,13,61
-3,13,60
-3,13,61
-3,13,61
-1,14,61
-3,14,61
0,14,62
-1,14,62
-1,13,62
1,15,62
5,11,66
-3,15,61
-2,14,63
-3,14,60
-3,13,60
-4,13,60
-3,13,61
-3,13,61
-3,13,62
-3,14,61
-2,14,62
-2,13,62
-2,13,61
-3,13,62
-2,13,61
-3,13,62
-3,12,62
-4,12,62
-4,13,62
-3,13,61
-3,12,60
-2,13,61
-2,13,61
-2,13,61
-2,13,61
-3,13,62
-2,12,61
-1,12,60
-2,13,61
-1,13,63
0,13,62
-2,14,61
0,14,61
1,14,61
1,15,61
1,14,62
2,14,62
-1,16,62
1,16,61
2,15,61
0,15,60
2,16,61
2,16,61
2,17,62
1,15,61
1,16,62
2,16,61
1,16,61
1,16,61
0,17,62
1,16,61
1,17,61
1,17,62
-10,28,70
7,7,61
0,15,60
1,14,60
1,14,59
1,15,60
-2,15,61
-2,16,62
-3,15,62
-3,14,62
-3,14,61
-1,13,61
-3,14,62
-3,14,63
-3,14,62
-3,14,61
-3,14,61
-3,14,61
-3,14,61
-2,13,61
-2,13,61
-2,12,61
-2,12,61
-2,12,61
-3,13,61
-3,13,61
-3,14,62
-3,14,62
-2,14,62
-2,14,62
-2,14,62
-2,14,61
-3,14,61
-3,14,61
-3,14,61
-3,13,61
-3,13,61
-3,14,61
-3,14,62
-3,14,62
-3,14,62
-3,14,61
-2,14,61
-2,14,61
-2,14,61
-3,14,62
-3,14,61
-2,14,61
-1,14,61
4,14,62
-2,15,60
-6,15,60
-17,14,56
-25,15,54
-34,15,48
-50,16,41
-49,15,38
-46,16,40
-43,17,40
-30,17,43
-26,17,45
-37,21,44
-43,27,48
-37,29,50
-39,31,53
-24,30,59
-24,30,58
-16,28,54
-12,25,57
-9,24,57
-19,25,56
-18,25,55
-20,24,52
-19,26,54
-11,28,55
-9,27,55
-12,27,56
-11,26,57
-8,28,56
-11,30,57
-10,29,57
-10,28,52
-4,28,57
-5,31,56
-5,30,52
-3,31,53
-2,32,52
3,32,51
2,36,53
2,36,52
3,39,49
4,42,47
6,44,45
7,47,43
4,48,43
7,48,39
13,48,40
17,56,45
19,56,45
16,61,39
18,61,36
18,61,33
19,57,30
19,56,30
20,54,27
20,50,21
20,53,16
18,54,17
25,55,15
26,55,10
24,55,8
31,54,8
29,55,4
29,54,4
29,56,2
26,57,1
27,56,1
29,55,-2
28,55,-2
28,55,-4
29,54,-4
27,55,-7
26,54,-7
28,56,-7
29,56,-8
29,55,-8
30,56,-6
31,54,-11
30,53,-9
32,54,-9
31,54,-10
31,54,-11
31,54,-11
32,54,-13
29,54,-12
32,51,-15
31,53,-15
29,55,-12
31,53,-14
31,54,-13
30,52,-14
33,52,-15
33,54,-15
31,52,-16
33,53,-16
33,53,-18
30,53,-17
32,52,-18
30,53,-18
31,53,-19
31,52,-18
31,52,-19
31,52,-19
30,52,-20
30,52,-19
31,52,-19
30,52,-20
29,53,-19
31,52,-19
31,52,-18
30,52,-18
31,53,-20
32,53,-23
29,58,-21
31,60,-21
29,55,-18
35,58,-14
31,58,-10
35,56,-1
35,55,-4
29,58,-2
29,60,-1
24,57,-4
31,61,2
31,63,3
14,57,0
26,58,9
25,57,11
21,54,11
30,52,15
27,54,12
14,53,14
25,57,23
28,59,24
23,57,26
23,56,35
24,54,36
27,49,42
18,45,44
15,39,44
28,37,54
29,37,65
19,35,63
9,27,65
-18,25,56
-32,18,55
-42,1,43
-56,-15,41
-55,-31,36
-51,-49,23
-53,-54,6
-41,-50,8
-26,-46,17
-16,-42,26
-14,-40,37
-5,-42,35
-2,-48,40
1,-44,38
11,-42,27
18,-38,34
18,-32,39
21,-34,35
24,-31,37
26,-29,41
-10,-21,75
9,-37,36
18,-39,36
18,-41,46
19,-43,56
15,-46,46
8,-49,39
10,-47,43
10,-47,44
8,-48,44
9,-47,42
3,-47,36
4,-48,44
7,-48,39
-1,-49,37
0,-47,43
4,-48,45
0,-47,41
0,-45,44
-1,-47,43
0,-45,44
0,-43,45
0,-44,45
1,-44,45
0,-43,45
0,-44,45
-2,-45,44
-1,-45,44
-1,-45,45
-2,-45,43
-2,-44,43
-1,-44,44
-1,-44,44
-2,-45,43
-1,-44,44
0,-43,44
0,-45,44
0,-44,45
0,-45,44
0,-44,45
0,-43,45
-1,-45,43
0,-44,44
0,-43,44
-1,-46,43
-1,-44,45
0,-43,45
-1,-46,44
0,-44,46
1,-43,45
-1,-46,43
-1,-44,44
1,-43,45
-1,-46,44
0,-44,45
0,-44,44
-1,-45,45
0,-44,45
0,-44,44
0,-44,45
0,-44,45
0,-43,44
0,-44,45
0,-44,45
1,-44,45
-1,-44,44
0,-44,46
0,-44,45
-1,-44,44
0,-43,44
0,-44,44
0,-44,45
1,-43,45
0,-44,45
-1,-44,45
-1,-44,45
0,-44,45
0,-43,44
0,-43,44
0,-43,45
-1,-44,44
-1,-44,44
-1,-43,45
0,-44,45
0,-44,45
0,-43,45
-1,-45,44
-1,-44,45
0,-43,45
-1,-44,44
-1,-44,45
0,-43,45
-1,-43,45
-1,-44,45
-1,-43,45
0,-43,45
0,-43,45
-1,-43,45
0,-43,46
0,-44,46
-1,-44,46
1,-43,47
-1,-43,45
-1,-43,46
-1,-43,45
0,-43,45
-1,-42,45
-1,-43,44
-2,-43,44
-1,-42,45
1,-45,47
1,-45,46
-1,-43,45
1,-43,44
3,-42,45
0,-43,43
2,-43,45
2,-44,45
0,-45,44
3,-44,46
1,-44,44
1,-45,43
1,-45,44
-1,-44,44
1,-44,44
1,-45,44
1,-44,44
2,-45,45
1,-45,44
1,-45,45
1,-45,43
1,-45,44
0,-43,45
0,-45,43
1,-44,44
-1,-44,45
0,-45,44
0,-44,44
-1,-44,44
0,-44,44
0,-44,45
0,-44,44
1,-44,45
1,-44,45
0,-44,44
1,-45,45
0,-44,44
1,-44,45
0,-44,44
0,-44,44
0,-44,44
0,-44,45
1,-44,44
0,-45,44
0,-44,44
1,-44,44
1,-45,44
0,-44,45
1,-44,45
0,-44,44
1,-44,44
0,-44,44
1,-44,44
0,-44,44
1,-44,44
2,-45,44
0,-44,43
-1,-45,43
4,-45,47
4,-43,44
0,-44,44
3,-44,44
4,-43,45
1,-44,44
1,-45,43
1,-46,45
4,-44,46
3,-44,44
2,-44,43
4,-44,44
3,-43,45
4,-43,46
3,-44,45
3,-44,44
3,-44,44
3,-45,44
3,-45,44
3,-45,44
4,-42,44
4,-43,44
4,-44,44
3,-45,44
3,-45,44
4,-45,45
3,-45,44
3,-44,44
2,-44,43
2,-44,43
3,-44,44
3,-44,44
2,-44,44
3,-45,45
2,-45,45
2,-44,44
3,-44,44
2,-44,44
2,-45,44
2,-44,44
1,-43,44
2,-44,45
2,-45,44
1,-45,44
2,-45,44
2,-44,44
2,-44,44
2,-44,44
2,-44,44
1,-45,44
2,-44,45
2,-45,44
2,-45,44
2,-45,44
2,-44,44
1,-44,44
2,-45,44
2,-45,44
2,-44,44
1,-44,44
2,-45,44
1,-45,44
1,-45,44
1,-44,44
1,-44,44
1,-44,44
1,-44,44
1,-45,44
2,-44,44
2,-44,44
1,-44,45
1,-44,44
1,-45,44
1,-44,44
2,-44,44
1,-44,44
1,-44,44
1,-44,44
2,-44,44
2,-44,44
1,-44,44
2,-44,44
2,-44,44
2,-44,44
2,-44,44
2,-44,44
2,-44,44
2,-44,44
2,-44,44
2,-44,44
2,-44,44
1,-44,44
2,-44,44
1,-44,44
2,-44,44
1,-44,44
1,-44,44
1,-44,44
1,-44,44
1,-44,44
2,-44,44
1,-44,44
1,-45,44
6,-43,46
2,-43,43
-1,-45,43
1,-45,44
1,-44,44
2,-43,44
2,-44,44
2,-45,44
1,-45,44
1,-45,44
1,-45,44
1,-45,44
1,-44,44
2,-44,44
1,-44,44
1,-45,44
1,-45,44
2,-44,44
1,-44,44
1,-44,44
1,-44,44
1,-44,44
1,-44,44
1,-44,44
1,-44,44
1,-44,44
2,-45,44
1,-44,44
1,-44,45
1,-45,44
1,-44,44
1,-44,44
1,-44,44
1,-44,44
1,-44,44
1,-44,44
1,-44,44
1,-44,44
1,-44,44
1,-44,44
1,-44,44
1,-44,44
1,-44,44
1,-44,44
1,-44,45
1,-44,44
1,-44,44
1,-44,44
1,-44,44
1,-45,44
1,-44,44
1,-44,44
1,-44,44
1,-44,44
2,-44,44
2,-44,44
1,-44,44
1,-44,44
1,-44,44
1,-44,44
1,-44,44
1,-44,44
1,-44,44
1,-44,44
1,-44,44
1,-44,44
1,-44,44
1,-44,44
1,-44,45
2,-44,45
1,-44,45
1,-44,44
1,-44,44
1,-44,44
1,-44,44
2,-44,44
1,-44,44
1,-44,45
1,-44,45
1,-45,44
1,-44,44
1,-44,44
1,-44,45
1,-45,44
1,-44,44
1,-44,45
1,-45,44
1,-44,44
1,-44,45
3,-44,45
1,-43,45
-1,-43,46
-1,-44,44
-3,-44,44
-3,-42,47
-2,-46,43
-4,-45,44
-5,-45,44
-5,-44,45
-5,-44,45
-3,-44,44
-1,-44,48
-9,-42,41
-9,-43,43
-4,-43,46
2,-39,49
1,-44,52
2,-47,43
-10,-45,44
-17,-45,44
-15,-47,47
-8,-50,44
-12,-51,38
-13,-50,39
-14,-50,31
-17,-49,34
-20,-48,36
-20,-50,35
-20,-50,32
-26,-49,33
-27,-49,38
-10,-46,42
-7,-45,37
-2,-39,25
18,-33,55
20,-35,50
25,-34,46
32,-32,40
35,-31,42
34,-32,44
37,-32,38
39,-32,37
41,-31,38
40,-28,37
36,-26,36
24,-22,37
14,-22,39
8,-24,41
-7,-27,39
-18,-36,25
-23,-39,21
-17,-36,27
-1,-41,45
-3,-38,43
-16,-30,48
-25,-21,54
-31,-16,41
-48,2,47
-47,9,62
-89,22,28
-67,26,29
-52,31,33
-42,46,51
-75,46,46
-88,41,34
-105,39,24
-43,23,29
-37,18,31
-46,13,31
-53,15,33
-50,15,34
-44,17,39
-43,21,43
-43,24,43
-48,28,41
-46,27,37
-44,26,38
-42,24,41
-43,22,41
-44,21,41
-44,20,40
-46,21,39
-46,21,39
-46,21,39
-46,22,39
-46,23,38
-44,23,40
-43,23,40
-43,23,41
-44,23,40
-44,23,41
-44,22,40
-46,22,39
-46,20,38
-46,20,39
-44,20,39
-46,22,39
-46,23,39
-45,23,40
-45,22,40
-44,23,40
-45,22,40
-45,22,40
-45,23,40
-45,23,40
-45,22,39
-44,21,39
-44,22,39
-44,22,40
-44,22,41
-44,22,41
-44,22,42
-45,23,39
-41,22,37
-40,22,38
-44,22,42
-51,24,41
-51,24,39
-48,23,38
-44,20,39
-42,19,39
-43,20,38
-44,22,39
-45,23,40
-45,23,42
-45,23,41
-44,22,40
-43,22,40
-43,22,40
-45,22,39
-46,21,39
-45,21,40
-45,21,39
-46,21,40
-45,21,39
-44,22,40
-44,22,41
-45,22,40
-46,22,39
-45,22,40
-45,22,40
-44,22,40
-45,21,40
-45,21,40
-45,21,40
-45,22,40
-45,22,40
-45,22,40
-44,21,40
-44,22,40
-45,22,40
-45,22,40
-45,21,40
-45,21,40
-45,21,40
-45,21,40
-45,21,40
-44,21,40
-45,22,40
-46,22,40
-46,22,40
-45,22,40
-44,21,40
-45,21,40
-45,21,39
-45,21,39
-45,22,40
-46,22,40
-45,21,39
-44,21,40
-44,21,40
-45,21,39
-46,22,39
-45,22,39
-45,22,40
-45,22,39
-45,22,39
-45,22,40
-44,22,40
-44,22,40
-44,22,40
-45,22,40
-45,22,40
-45,22,39
-45,22,39
-45,22,39
-45,22,40
-44,22,40
-44,22,40
-45,22,40
-45,22,40
-45,22,40
-44,22,40
-45,21,40
-45,22,40
-46,22,39
-45,21,39
-45,21,40
-46,22,39
-45,22,39
-44,21,40
-44,21,40
-46,22,40
-45,22,40
-45,21,40
-45,21,40
-46,21,40
-46,22,39
-44,21,40
-44,21,40
-45,21,40
-46,21,40
-45,21,40
-44,21,40
-45,21,40
-45,21,40
-45,21,40
-45,21,40
-45,21,40
-45,21,40
-45,21,40
-45,21,39
-45,21,40
-45,21,40
-45,21,40
-45,21,40
-45,21,40
-45,21,40
-45,21,40
-45,21,40
-44,21,40
-45,21,40
-45,21,40
-45,21,40
-45,21,40
-45,21,40
-45,21,40
-45,21,40
-45,21,40
-45,21,40
-45,21,40
-45,21,40
-45,21,40
-45,21,40
-45,21,40
-45,21,40
-45,21,40
-45,21,40
-45,21,40
-45,21,40
-44,21,40
-45,21,40
-44,21,40
-45,21,40
-45,21,40
-45,21,40
-45,21,40
-45,21,40
-45,21,40
-45,21,40
-45,21,40
-45,21,40
-45,21,40
-45,21,40
-45,21,40
-45,21,40
-45,21,40
-45,21,40
-45,21,40
-45,21,40
-45,21,40
-44,21,40
-45,21,40
-45,21,40
-45,21,40
-45,21,40
-45,21,40
-45,21,40
-45,21,40
-45,21,40
-45,21,40
-45,21,40
-45,21,41
-45,21,40
-45,21,40
-45,21,41
-45,21,40
-45,21,40
-45,21,40
-45,21,40
-45,21,40
-45,21,40
-45,21,40
-45,21,40
-45,21,40
-44,21,40
-45,21,40
-45,21,40
-45,21,40
-44,21,40
-45,21,40
-45,21,40
-44,21,40
-45,21,40
-45,21,40
-45,21,40
-45,21,40
-45,21,40
-45,21,40
-45,21,40
-45,21,40
-45,21,40
-44,21,40
-44,21,40
-45,21,40
-45,21,40
-45,21,40
-44,21,40
-45,21,40
-45,22,40
-45,21,40
-45,21,40
-44,21,40
-44,21,40
-45,21,40
-45,21,40
-45,21,40
-45,21,40
-45,21,40
-45,21,40
-45,21,40
-45,21,40
-45,21,40
-45,21,40
-45,21,40
-45,21,40
-45,21,40
-45,21,40
-45,21,40
-45,21,40
-45,21,40
-44,21,40
-45,21,40
-45,21,40
-45,21,40
-44,21,40
-45,21,40
-45,21,40
-45,21,40
-45,21,40
-45,21,40
-45,21,40
-45,21,40
-45,21,40
-45,21,40
-45,21,40
-45,21,40
-45,21,40
-45,21,40
-45,21,40
-45,21,40
-45,21,40
-45,21,40
-45,21,40
-45,21,40
-45,21,40
-45,21,40
-45,21,40
-45,21,40
-45,21,40
-45,21,40
-45,21,40
-44,21,40
-45,21,40
-45,21,40
-45,21,41
-44,21,40
-45,21,40
-45,21,40
-45,21,40
-45,21,40
-45,21,40
-45,21,40
-45,21,40
-45,21,40
-45,21,40
-45,21,40
-45,21,40
-45,21,40
-45,21,40
-45,21,40
-45,21,40
-45,21,40
-45,21,40
-45,21,40
-45,21,40
-44,21,40
-45,21,40
-45,21,40
-45,21,40
-45,21,40
-45,21,40
-45,21,40
-45,21,40
-45,21,40
-45,22,40
-45,22,40
-45,21,40
-45,21,40
-45,22,40
-45,22,40
-45,21,40
-45,21,40
-45,21,40
-45,21,40
-45,21,40
-45,21,40
-45,21,40
-45,21,40
-45,21,40
-45,21,40
-45,21,40
-45,21,40
-45,21,40
-45,21,40
-45,21,40
-45,21,40
-45,21,40
-45,21,40
-45,21,40
-45,21,40
-45,21,40
-45,21,40
-45,21,40
-45,21,40
-45,21,40
-45,21,40
-45,21,40
-45,21,40
-45,21,40
-45,21,40
-45,21,40
-45,21,40
-45,21,40
-45,21,40
-45,21,40
-45,21,40
-45,21,40
-45,21,40
-45,21,40
-45,21,40
-45,21,40
-45,21,40
-45,21,40
-45,21,40
-45,21,40
-45,21,40
-45,21,40
-45,21,40
-45,21,40
-45,21,40
-45,21,40
-45,21,40
-45,21,40
-44,21,40
-45,21,40
-45,21,40
-45,21,40
-45,21,40
-45,21,40
-45,21,39
-45,21,40
-45,21,39
-45,21,40
-45,21,40
-45,21,40
-45,21,40
-45,21,40
-45,22,40
-45,21,40
-45,22,40
-45,21,39
-45,21,40
-45,21,40
-45,21,40
-45,21,40
-45,21,40
-45,21,40
-45,21,40
-45,21,40
-45,21,40
-45,21,40
-45,21,40
-45,21,40
-45,21,40
-45,21,40
-45,21,40
-45,21,40
-45,21,40
-45,21,40
-45,21,40
-45,21,40
-45,21,40
-45,21,40
-45,21,40
-45,21,40
-45,21,40
-45,21,40
-45,21,40
-45,21,40
-45,21,40
-45,21,40
-45,21,40
-45,21,40
-45,21,40
-45,21,40
-45,21,40
-45,21,40
-45,21,40
-45,21,40
-45,21,40
-45,21,40
-45,21,40
-45,21,40
-45,21,40
-45,21,40
-45,21,40
-45,21,40
-45,21,40
-45,21,40
-45,21,40
-45,21,40
-45,21,40
-45,21,40
-45,21,40
-45,21,40
-45,21,40
-46,21,40
-45,21,40
-44,21,40
-45,21,40
-45,21,40
-45,21,40
-45,21,40
-45,21,40
-45,21,40
-45,21,40
-45,21,40
-46,21,40
-45,22,40
-45,21,40
-45,21,39
-45,21,40
-45,21,40
-44,21,39
-45,21,42
-47,22,42
-47,22,38
-44,21,38
-43,21,38
-43,21,39
-46,22,40
-47,21,41
-43,19,39
-44,19,41
-47,21,41
-48,22,38
-43,21,40
-43,21,40
-46,21,39
-46,21,39
-45,21,41
-45,21,40
-45,21,40
-47,21,40
-47,22,39
-46,22,39
-44,21,39
-44,20,40
-45,20,40
-45,21,40
-45,21,41
-45,21,40
-46,21,39
-46,21,39
-45,21,39
-45,21,40
-45,21,40
-45,21,40
-45,20,40
-45,21,40
-45,21,40
-45,21,40
-45,21,40
-46,21,39
-45,21,40
-45,21,40
-45,21,40
-45,20,39
-45,21,40
-45,21,40
-46,21,40
-45,21,40
-45,21,40
-45,21,40
-45,21,40
-45,21,40
-45,21,40
-45,21,40
-45,21,39
-45,21,39
-46,21,40
-45,21,40
-45,21,40
-45,21,40
-46,21,40
-45,21,39
-45,21,40
-45,21,40
-45,21,39
-45,21,40
-45,21,40
-46,21,39
-45,21,39
-45,21,40
-45,21,40
-46,21,39
-46,21,40
-45,21,40
-45,21,39
-45,21,40
-45,21,40
-45,21,40
-45,21,40
-45,21,40
-45,21,40
-45,21,40
-45,21,40
-45,21,40
-45,21,40
-46,21,40
-45,21,40
-45,21,40
-46,21,40
-46,21,39
-45,21,40
-45,21,40
-45,21,40
-46,21,40
-45,21,40
-45,21,40
-45,21,40
-45,21,40
-45,21,40
-45,21,40
-45,21,40
-45,21,40
-45,21,39
-45,21,40
-45,21,40
-45,21,39
-45,21,40
-45,21,40
-45,21,40
-45,21,40
-46,21,40
-45,21,40
-45,21,40
-45,21,40
-45,21,40
-46,21,40
-45,21,40
-45,21,40
-45,21,40
-45,21,40
-45,21,40
-45,21,40
-45,21,40
-45,21,40
-45,21,40
-45,21,40
-45,21,40
-45,21,40
-45,21,40
-45,21,40
-45,21,40
-45,21,39
-45,21,40
-45,21,40
-45,21,40
-45,21,40
-45,21,40
-45,21,40
-45,21,40
-45,21,40
-45,21,40
-45,21,40
-46,21,40
-45,21,40
-45,21,40
-45,21,40
-45,21,40
-45,21,40
-45,21,40
-45,21,40
-45,21,40
-45,21,39
-44,21,40
-47,21,40
-47,22,39
-45,21,39
-44,21,40
-45,21,40
-46,21,40
-45,21,40
-45,21,40
-45,21,39
-46,21,39
-45,21,40
-45,21,40
-45,21,39
-44,20,40
-46,21,41
-47,22,40
-45,21,39
-44,21,40
-45,21,40
-45,21,40
-44,21,40
-45,21,40
-46,21,40
-45,21,39
-45,21,40
-45,21,40
-46,21,40
-45,21,39
-45,21,40
-46,21,40
-46,21,40
-45,21,40
-45,21,40
-46,21,40
-45,21,39
-45,21,40
-46,21,40
-45,21,40
-44,21,40
-45,21,39
-47,23,40
-46,23,40
-45,23,40
-44,21,41
-45,19,40
-49,18,41
-51,20,50
-64,24,49
-60,23,54
-51,32,64
-50,25,63
-44,25,64
-29,26,59
-10,25,54
-11,24,50
-15,24,52
-17,22,47
-14,20,45
-6,20,51
-1,19,52
3,19,49
9,18,45
12,16,43
16,15,42
20,17,44
20,18,41
15,24,42
21,32,44
26,36,46
24,40,42
29,41,36
34,39,33
37,39,37
24,45,36
28,49,36
32,45,34
30,49,33
30,46,36
33,45,32
34,46,30
35,46,27
40,47,28
39,48,25
37,48,22
41,46,20
43,44,17
42,43,14
41,42,12
43,41,13
42,43,12
42,43,9
46,43,10
46,43,9
47,42,6
48,40,4
49,40,4
50,39,2
49,38,-1
49,37,-1
50,37,-4
49,37,-5
48,37,-6
49,37,-6
49,38,-8
50,38,-8
49,37,-6
51,38,-6
50,37,-6
52,36,-7
53,36,-7
53,36,-6
52,35,-8
53,36,-8
49,36,-9
51,36,-9
51,37,-9
51,36,-11
49,37,-12
50,37,-15
49,36,-19
48,36,-19
49,35,-16
49,38,-9
53,37,-6
50,35,-6
59,37,-2
49,37,-8
56,33,-3
48,34,-11
50,35,-15
47,38,-14
46,33,-12
46,35,-10
46,36,-10
50,29,-16
52,34,-14
54,35,-12
52,34,-14
55,32,-10
52,30,-13
56,29,-11
54,26,-13
53,29,-12
53,31,-14
53,34,-11
52,34,-13
52,31,-14
51,31,-12
51,31,-13
54,30,-13
52,30,-13
56,31,-11
56,31,-10
58,33,-10
59,36,-9
57,43,-11
57,34,-9
56,34,-5
58,36,5
63,40,13
61,39,9
58,33,8
56,31,12
46,29,19
52,23,23
53,20,25
43,19,25
48,20,37
50,20,39
39,18,33
44,16,37
43,14,36
39,7,28
40,0,22
45,-1,24
45,-4,31
38,-2,33
37,0,36
38,-2,45
28,1,48
26,0,50
30,-3,57
25,0,56
24,4,57
23,10,54
22,12,53
30,15,55
29,10,53
14,0,46
6,-6,44
9,-17,60
-32,-22,52
-37,-18,59
-27,-11,76
-25,-7,60
-30,-2,56
-22,9,60
-27,15,47
-29,21,46
-30,27,63
-57,-5,108
-69,6,118
-73,-21,65
-37,7,41
-23,8,36
-21,-27,32
-32,-24,24
-50,-21,39
-63,-9,49
-62,-15,39
-54,-24,42
-51,-21,40
-50,-24,39
-50,-26,33
-46,-38,28
-47,-32,25
-49,-23,26
-53,-30,19
-49,-17,17
-48,-37,27
-48,-30,29
-45,-30,30
-49,-32,28
-48,-35,34
-45,-35,35
-40,-32,31
-36,-31,28
-35,-31,27
-38,-31,33
-38,-32,36
-40,-32,37
-46,-27,43
-41,-30,38
-43,-30,36
-45,-28,37
-44,-30,33
-43,-29,30
-47,-28,33
-47,-27,37
-46,-29,37
-46,-29,37
-46,-29,37
-44,-28,37
-42,-29,33
-44,-31,29
-45,-30,28
-46,-31,28
-50,-30,25
-51,-26,27
-50,-31,30
-50,-31,32
-50,-28,33
-49,-28,32
-44,-27,28
-43,-36,28
-44,-33,26
-45,-32,25
-44,-34,23
-43,-34,23
-46,-33,23
-46,-37,19
-54,-32,7
-53,-29,7
-53,-37,8
-51,-31,10
-54,-32,8
-60,-34,2
-59,-30,0
-62,-31,-3
-52,-34,1
-58,-25,-5
-64,-31,-10
-53,-32,-3
-56,-23,-13
-62,-25,-21
-55,-36,-12
-44,-26,-22
-57,-29,-34
-55,-32,-20
-54,-27,-24
-57,-30,-23
-56,-32,-20
-51,-27,-21
-50,-31,-21
-53,-30,-25
-51,-31,-20
-47,-31,-21
-55,-28,-25
-53,-31,-23
-54,-29,-28
-56,-30,-27
-54,-33,-23
-50,-29,-21
-50,-31,-22
-52,-32,-21
-51,-33,-19
-53,-33,-20
-57,-32,-24
-52,-32,-20
-51,-34,-21
-53,-35,-25
-56,-36,-21
-55,-33,-15
-55,-37,-19
-55,-38,-18
-50,-36,-11
-44,-39,-8
-43,-39,-10
-45,-38,-9
-47,-39,-7
-46,-38,-8
-45,-39,-8
-52,-38,-9
-51,-39,-7
-47,-40,-10
-47,-41,-10
-50,-40,-5
-46,-42,-7
-46,-42,-10
-45,-36,-10
-46,-38,-10
-48,-39,-11
-49,-39,-15
-52,-40,-15
-53,-40,-14
-51,-39,-18
-52,-42,-18
-52,-39,-18
-48,-38,-18
-48,-39,-16
-49,-40,-16
-47,-37,-16
-44,-41,-17
-42,-41,-19
-46,-43,-22
-46,-41,-24
-48,-40,-23
-47,-41,-23
-43,-47,-21
-46,-45,-20
-58,-38,-21
-52,-50,-18
-48,-49,-17
-58,-52,-15
-57,-44,-6
-46,-44,-2
-35,-60,3
-49,-54,16
-53,-43,21
-51,-30,15
-28,-21,18
-24,-25,17
-42,-25,19
-40,-27,8
-37,-24,6
-49,-37,-7
-55,-56,-10
-47,-59,-5
-36,-56,0
-37,-52,-2
-40,-50,-1
-40,-52,-4
-37,-49,-7
-36,-48,-8
-40,-51,-6
-42,-52,-6
-42,-51,-7
-41,-49,-6
-41,-49,-4
-38,-51,-3
-36,-51,-1
-36,-50,-1
-39,-50,-2
-42,-50,-5
-40,-50,-5
-39,-51,-3
-38,-51,0
-37,-51,0
-39,-51,3
-38,-50,3
-37,-49,2
-36,-45,-7
-41,-42,-1
-37,-36,2
-30,-28,-1
-41,-44,17
-42,-61,11
-41,-77,6
-32,-61,-7
-32,-57,-12
-43,-57,-16
-46,-56,-22
-45,-45,-16
-39,-36,10
-36,-54,10
-40,-58,4
-50,-54,-3
-47,-52,2
-52,-43,5
-34,-54,8
-24,-69,3
-32,-60,8
-52,-54,0
-32,-60,-1
-25,-54,6
-53,-43,-4
-62,-43,-21
-49,-40,-13
-34,-46,5
-30,-45,12
-32,-42,14
-27,-42,19
-36,-58,21
-45,-59,16
-49,-57,7
-39,-45,21
-31,-38,30
-17,-29,40
-15,-31,41
-20,-36,35
-26,-40,29
-29,-47,21
-44,-56,11
-43,-54,25
-38,-51,31
-32,-50,28
-29,-49,22
-27,-50,21
-26,-51,22
-30,-51,23
-30,-50,24
-33,-51,23
-38,-47,26
-36,-47,28
-33,-47,27
-32,-48,30
-25,-49,32
-19,-50,31
-21,-52,27
-21,-51,28
-25,-49,23
-29,-49,20
-33,-48,20
-38,-49,21
-37,-50,22
-35,-50,24
-35,-48,26
-34,-48,26
-34,-48,25
-34,-48,24
-33,-49,25
-32,-49,25
-33,-48,24
-31,-48,26
-31,-49,26
-29,-50,27
-30,-49,25
-30,-49,24
-31,-49,24
-31,-50,24
-32,-50,24
-33,-48,25
-33,-48,25
-33,-48,25
-32,-49,24
-33,-48,25
-34,-49,26
-31,-48,27
-29,-49,26
-29,-49,25
-31,-49,26
-31,-49,26
-29,-48,29
-27,-48,29
-29,-50,29
-31,-48,26
-31,-48,25
-30,-49,25
-32,-50,25
-33,-49,24
-33,-49,23
-32,-48,24
-31,-49,25
-31,-49,25
-31,-49,26
-31,-49,25
-31,-49,25
-31,-49,25
-31,-49,25
-31,-49,25
-32,-49,25
-31,-49,26
-32,-49,26
-33,-49,25
-31,-48,26
-30,-48,26
-31,-49,25
-31,-48,25
-30,-49,26
-31,-49,25
-31,-49,26
-32,-48,25
-31,-49,26
-32,-49,26
-32,-49,26
-31,-48,25
-31,-49,26
-31,-49,26
-31,-48,26
-32,-49,24
-31,-49,24
-30,-49,25
-30,-48,26
-31,-48,26
-30,-48,29
-30,-48,29
-30,-48,29
-31,-48,28
-31,-48,27
-31,-48,28
-29,-48,27
-30,-48,26
-30,-47,27
-29,-48,29
-29,-48,30
-30,-48,31
-30,-46,30
-29,-47,29
-29,-49,26
-31,-49,25
-32,-49,24
-28,-47,28
-25,-46,35
-27,-47,34
-25,-44,36
-22,-43,47
-22,-45,45
-27,-44,40
-30,-44,36
-27,-45,36
-26,-47,32
-30,-47,30
-30,-47,30
-27,-46,32
-26,-47,34
-26,-47,33
-27,-47,32
-27,-46,33
-25,-46,33
-26,-47,33
-27,-47,33
-27,-47,33
-26,-46,33
-27,-46,33
-28,-47,33
-27,-47,33
-26,-47,33
-27,-47,33
-28,-47,33
-26,-47,33
-26,-47,32
-26,-46,33
-26,-47,33
-27,-47,32
-26,-47,32
-28,-47,33
-27,-47,33
-27,-46,33
-26,-46,34
-26,-46,35
-26,-47,33
-27,-47,32
-26,-46,33
-26,-47,34
-27,-47,33
-27,-46,33
-25,-46,34
-24,-46,35
-26,-45,37
-26,-45,39
-26,-45,37
-25,-45,35
-24,-46,33
-25,-47,31
-25,-46,34
-23,-42,43
-22,-43,44
-25,-45,41
-30,-46,32
-29,-45,34
-27,-46,34
-24,-47,35
-25,-46,35
-27,-46,33
-26,-46,32
-25,-46,34
-26,-47,34
-27,-46,35
-27,-46,36
-24,-46,33
-27,-48,32
-27,-47,32
-31,-48,25
-28,-48,26
-29,-47,29
-29,-48,29
-27,-48,31
-26,-47,32
-27,-46,35
-26,-46,36
-26,-46,36
-27,-46,35
-29,-46,33
-29,-47,32
-27,-47,33
-28,-47,31
-28,-47,30
-27,-47,32
-27,-47,33
-27,-47,33
-27,-46,32
-27,-46,32
-27,-47,33
-27,-47,34
-27,-46,35
-28,-46,33
-34,-47,26
-26,-46,33
-8,-46,52
-24,-46,38
-35,-46,28
-36,-46,27
-27,-48,29
-26,-48,29
-26,-48,30
-25,-47,33
-24,-47,34
-25,-47,34
-26,-47,33
-26,-47,32
-27,-47,32
-28,-47,32
-28,-47,32
-27,-47,32
-27,-48,32
-27,-48,32
-27,-47,32
-27,-47,32
-27,-47,32
-27,-47,33
-27,-47,33
-27,-47,32
-27,-47,32
-27,-47,33
-27,-47,33
-27,-47,33
-26,-47,34
-26,-47,36
-26,-47,37
-26,-47,33
-26,-47,29
-29,-49,26
-29,-49,27
-27,-49,27
-27,-49,28
-27,-48,31
-27,-48,32
-27,-48,32
-26,-48,32
-26,-48,31
-29,-48,31
-29,-48,30
-28,-48,31
-27,-49,30
-27,-49,30
-28,-48,29
-27,-48,29
-27,-48,29
-27,-48,29
-27,-48,31
-28,-48,30
-29,-48,29
-28,-48,28
-28,-47,30
-27,-48,31
-27,-47,32
-27,-46,33
-26,-46,35
-27,-46,36
-28,-46,35
-28,-45,36
-26,-46,35
-27,-46,35
-27,-46,32
-27,-46,34
-27,-46,34
-27,-47,33
-27,-47,32
-26,-47,32
-28,-47,33
-28,-46,34
-27,-46,34
-28,-46,34
-28,-46,34
-28,-47,33
-28,-47,33
-28,-46,33
-29,-47,31
-27,-48,29
-29,-48,28
-30,-48,28
-29,-47,30
-28,-47,33
-27,-47,33
-28,-46,34
-28,-47,33
-27,-47,33
-26,-47,31
-25,-47,33
-27,-48,31
-29,-47,30
-29,-48,30
-28,-47,32
-24,-44,41
-23,-46,40
-28,-47,33
-31,-47,28
-31,-47,27
-28,-47,30
-27,-48,30
-28,-48,29
-28,-47,30
-28,-47,31
-28,-47,31
-28,-47,31
-28,-47,32
-28,-47,33
-29,-47,32
-28,-47,32
-28,-47,31
-28,-47,31
-27,-47,31
-28,-47,30
-28,-48,31
-28,-47,32
-28,-47,32
-28,-47,31
-28,-47,31
-28,-47,31
-28,-47,32
-28,-47,31
-28,-47,31
-28,-47,31
-28,-47,32
-28,-47,31
-28,-47,32
-28,-47,31
-28,-47,31
-28,-47,31
-28,-47,31
-28,-47,31
-28,-47,32
-27,-47,31
-28,-47,32
-29,-47,31
-28,-47,32
-28,-47,32
-28,-47,31
-28,-48,31
-27,-47,31
-27,-47,32
-28,-47,31
-28,-48,31
-28,-47,32
-29,-47,31
-28,-47,31
-29,-47,31
-29,-47,32
-29,-47,31
-28,-47,31
-28,-47,32
-29,-47,31
-28,-47,31
-28,-47,31
-28,-47,31
-28,-47,30
-28,-47,31
-29,-47,32
-28,-46,32
-27,-46,33
-28,-47,31
-28,-48,31
-28,-46,32
-29,-46,33
-27,-45,37
-25,-45,37
-22,-47,34
-26,-46,28
-26,-45,28
-22,-45,31
-30,-47,24
-27,-46,26
-15,-45,33
-15,-39,45
-15,-39,51
-20,-40,53
-23,-39,54
-24,-37,54
-22,-37,53
-21,-39,52
-23,-38,49
-20,-37,48
-17,-39,46
-21,-40,44
-20,-40,43
-17,-40,44
-18,-41,43
-19,-42,42
-17,-42,44
-17,-45,43
-15,-48,45
-14,-48,45
-11,-45,42
-14,-49,39
-11,-45,49
-3,-41,56
4,-40,56
5,-38,56
10,-32,62
3,-32,49
11,-30,46
22,-29,51
22,-28,47
14,-29,42
29,-27,44
36,-27,40
34,-27,39
37,-25,38
50,-26,27
47,-23,29
43,-25,35
48,-25,32
48,-25,30
44,-25,29
43,-26,25
43,-27,31
51,-29,25
46,-24,34
46,-23,39
43,-25,28
49,-23,35
46,-24,29
43,-23,31
50,-24,40
48,-28,34
45,-26,41
42,-21,40
41,-20,40
48,-23,40
45,-28,34
48,-29,32
46,-32,31
41,-29,26
39,-27,23
42,-24,25
36,-24,27
35,-25,28
37,-24,33
32,-25,32
33,-22,37
33,-17,39
20,-26,38
19,-28,45
12,-26,46
9,-36,43
6,-68,57
6,-70,80
-4,-27,79
-19,-15,58
-19,-31,30
-4,-40,33
13,-47,52
-2,-38,53
-11,-37,46
-6,-25,53
2,-24,79
-5,-24,76
-13,-22,55
-15,-20,56
-17,-21,54
-11,-23,54
-11,-21,57
-18,-18,50
-8,-25,45
-20,-46,57
-29,-43,64
-42,-37,48
-42,-39,48
-30,-45,59
-20,-37,54
-23,-34,33
-22,-32,34
-18,-35,38
-22,-34,28
-21,-32,27
-1,-10,68
-6,-21,84
-19,-33,58
-30,-35,42
-34,-33,46
-26,-32,49
-20,-29,49
-18,-28,53
-20,-29,53
-21,-30,52
-18,-29,54
-20,-29,54
-24,-27,52
-23,-27,49
-23,-28,49
-27,-28,50
-30,-28,48
-31,-29,47
-34,-29,47
-35,-28,47
-32,-28,47
-28,-28,48
-28,-28,49
-28,-27,48
-28,-27,48
-29,-27,48
-31,-27,48
-25,-29,51
-23,-30,51
-26,-29,51
-23,-28,51
-22,-28,52
-21,-29,52
-21,-28,53
-23,-28,52
-23,-28,52
-23,-28,52
-23,-28,52
-25,-27,51
-25,-27,50
-25,-27,50
-24,-26,51
-26,-27,51
-26,-28,51
-22,-28,52
-21,-27,52
-20,-28,52
-18,-29,54
-16,-28,54
-17,-27,54
-20,-28,53
-21,-27,54
-21,-26,55
-21,-25,54
-21,-26,52
-22,-26,52
-20,-27,52
-19,-28,54
-19,-28,54
-20,-28,53
-20,-28,53
-20,-28,53
-21,-26,53
-22,-26,52
-22,-26,52
-23,-27,53
-23,-27,53
-22,-27,52
-22,-28,52
-22,-27,52
-22,-27,53
-22,-27,53
-22,-27,53
-22,-27,52
-22,-27,52
-22,-27,52
-21,-27,53
-22,-27,53
-22,-27,53
-23,-27,52
-22,-27,52
-22,-27,52
-22,-27,52
-22,-27,52
-22,-27,52
-22,-27,52
-22,-27,52
-22,-27,53
-22,-27,52
-22,-27,52
-22,-27,52
-23,-26,52
-23,-26,51
-22,-27,51
-21,-28,52
-21,-27,54
-22,-28,53
-20,-28,53
-19,-28,55
-20,-27,53
-22,-26,52
-21,-26,52
-21,-27,53
-22,-27,53
-23,-27,53
-22,-27,53
-22,-27,53
-22,-27,53
-21,-27,52
-20,-28,53
-20,-29,53
-21,-28,53
-20,-27,53
-20,-27,54
-21,-27,53
-21,-27,52
-21,-28,52
-21,-28,53
-22,-27,53
-23,-26,52
-23,-26,52
-23,-27,51
-22,-27,51
-22,-27,52
-23,-27,53
-23,-27,53
-23,-27,53
-23,-27,52
-23,-27,52
-23,-27,52
-23,-27,52
-23,-27,52
-23,-27,52
-23,-27,52
-23,-27,52
-23,-27,52
-23,-27,53
-23,-26,52
-22,-27,52
-23,-27,52
-23,-27,52
-22,-27,52
-23,-27,52
-23,-27,52
-23,-27,52
-22,-27,52
-22,-27,52
-23,-27,52
-22,-27,52
-22,-27,53
-23,-27,52
-23,-27,52
-23,-27,52
-23,-27,52
-23,-26,52
-22,-27,53
-22,-27,53
-22,-27,52
-21,-27,53
-21,-27,53
-22,-27,53
-22,-27,53
-22,-27,52
-22,-27,53
-21,-27,53
-22,-27,53
-22,-27,53
-22,-26,53
-22,-27,53
-22,-27,52
-22,-27,52
-21,-27,52
-21,-27,53
-22,-27,53
-22,-27,52
-22,-27,53
-22,-27,52
-22,-27,52
-22,-27,52
-22,-27,52
-22,-27,53
-22,-27,53
-22,-27,53
-22,-27,52
-22,-27,52
-22,-27,52
-22,-27,52
-22,-27,52
-22,-27,53
-22,-27,52
-22,-27,52
-23,-27,52
-22,-27,52
-22,-27,53
-23,-27,52
-22,-27,52
-23,-27,53
-23,-26,53
-23,-26,52
-23,-26,51
-20,-28,53
-21,-28,54
-21,-27,54
-22,-27,53
-22,-27,52
-22,-27,52
-21,-27,52
-21,-27,53
-21,-27,54
-22,-27,53
-22,-26,53
-21,-26,52
-22,-27,52
-22,-27,53
-22,-26,53
-24,-26,53
-22,-26,52
-21,-26,53
-21,-27,52
-21,-28,52
-21,-28,53
-22,-27,54
-22,-27,52
-22,-27,52
-23,-27,53
-22,-26,52
-22,-27,52
-22,-27,53
-22,-27,53
-21,-27,53
-22,-27,53
-22,-27,52
-23,-27,52
-23,-27,52
-23,-27,52
-22,-27,52
-23,-27,52
-23,-27,52
-23,-27,52
-23,-27,52
-23,-27,52
-23,-27,52
-23,-27,52
-22,-27,52
-22,-27,53
-22,-27,53
-22,-27,53
-22,-27,53
-23,-27,53
-23,-27,52
-23,-27,52
-23,-27,52
-23,-27,52
-22,-27,52
-22,-27,52
-22,-27,52
-22,-27,53
-22,-27,53
-23,-27,52
-23,-27,52
-22,-27,52
-22,-27,52
-23,-27,53
-22,-27,52
-22,-27,52
-22,-27,52
-22,-27,53
-22,-27,52
-22,-27,52
-22,-27,53
-22,-27,52
-22,-27,53
-23,-27,52
-22,-27,52
-22,-27,53
-22,-27,52
-22,-27,53
-22,-27,52
-22,-27,53
-22,-27,52
-22,-27,53
-22,-27,53
-23,-27,53
-22,-27,53
-22,-27,53
-22,-27,53
-22,-26,52
-23,-27,52
-22,-27,53
-22,-27,53
-22,-27,52
-22,-27,53
-22,-27,52
-23,-27,52
-22,-27,53
-22,-27,53
-22,-27,52
-22,-27,52
-22,-27,52
-22,-27,52
-23,-27,52
-22,-27,53
-23,-26,53
-22,-27,53
-22,-27,52
-22,-27,52
-22,-27,53
-22,-27,53
-23,-27,52
-22,-27,52
-23,-27,52
-23,-27,52
-23,-27,52
-23,-27,53
-23,-27,53
-23,-27,53
-22,-27,52
-22,-27,52
-23,-27,52
-22,-26,52
-22,-27,52
-22,-27,53
-22,-27,53
-22,-27,53
-22,-27,52
-22,-27,52
-22,-27,52
-22,-27,52
-21,-27,53
-22,-27,53
-23,-27,53
-23,-27,53
-22,-27,52
-21,-26,52
-21,-27,52
-22,-27,53
-22,-27,53
-22,-27,53
-22,-27,52
-22,-27,53
-23,-26,52
-22,-26,53
-23,-26,53
-25,-27,51
-22,-27,49
-18,-30,53
-19,-29,54
-22,-27,53
-22,-26,54
-22,-26,54
-22,-26,53
-24,-26,53
-24,-26,52
-25,-26,51
-23,-28,53
-22,-29,53
-21,-28,53
-21,-27,52
-21,-27,52
-22,-27,53
-23,-28,52
-23,-28,52
-22,-27,53
-23,-27,52
-24,-27,52
-22,-28,52
-21,-28,52
-22,-29,53
-22,-29,52
-22,-29,53
-22,-29,52
-22,-29,52
-22,-25,52
-22,-25,54
-23,-24,57
-25,-24,52
-26,-24,55
-22,-23,53
-21,-22,53
-17,-23,57
-16,-26,53
-20,-25,51
-23,-19,47
-22,-21,49
-18,-24,54
-17,-28,59
-20,-27,59
-20,-27,58
-17,-29,55
-20,-28,56
-18,-30,54
-20,-32,50
-22,-28,53
-19,-29,55
-18,-32,52
-18,-30,49
-15,-30,50
-11,-30,49
-12,-29,50
-13,-28,51
-16,-28,53
-18,-29,54
-16,-30,55
-14,-31,54
-13,-29,54
-14,-29,55
-14,-30,53
-13,-29,53
-12,-28,54
-13,-27,56
-17,-27,57
-19,-27,56
-21,-27,55
-19,-28,55
-19,-27,53
-21,-27,52
-22,-27,52
-22,-27,52
-23,-26,53
-24,-27,52
-23,-28,52
-21,-28,52
-21,-28,51
-23,-27,51
-26,-26,51
-25,-27,51
-25,-27,51
-24,-28,51
-24,-28,51
-24,-27,52
-24,-27,51
-24,-27,52
-24,-27,52
-24,-27,52
-24,-27,52
-23,-27,52
-24,-27,52
-24,-27,51
-23,-27,51
-23,-27,52
-24,-27,52
-24,-27,52
-24,-27,52
-24,-27,52
-24,-27,52
-23,-27,52
-23,-27,52
-24,-27,52
-23,-27,52
-23,-27,52
-24,-27,52
-24,-27,52
-24,-27,52
-24,-27,52
-24,-27,52
-24,-27,51
-24,-26,52
-22,-26,53
-22,-26,53
-23,-27,52
-22,-27,52
-21,-27,53
-22,-27,53
-22,-26,52
-22,-26,52
-21,-27,53
-22,-26,53
-22,-26,53
-21,-26,53
-22,-26,53
-22,-26,52
-21,-27,53
-22,-27,53
-22,-27,53
-22,-27,53
-22,-27,53
-22,-26,53
-22,-26,52
-22,-27,52
-22,-26,52
-22,-26,53
-22,-26,52
-23,-27,52
-23,-26,52
-22,-27,52
-23,-27,52
-23,-27,52
-23,-27,52
-23,-27,53
-23,-27,52
-23,-27,52
-22,-27,52
-22,-27,52
-23,-27,52
-23,-27,52
-23,-27,52
-23,-27,52
-22,-27,52
-22,-27,52
-23,-27,52
-22,-27,52
-22,-27,53
-22,-27,53
-22,-27,53
-22,-27,52
-22,-27,52
-22,-27,52
-22,-27,53
-22,-27,53
-22,-27,52
-22,-26,53
-22,-27,52
-22,-27,53
-22,-26,52
-22,-27,53
-22,-27,52
-22,-27,53
-22,-27,52
-22,-27,53
-22,-26,53
-22,-27,52
-22,-27,52
-22,-27,53
-22,-27,53
-22,-27,53
-22,-27,53
-22,-26,52
-22,-27,53
-22,-27,53
-22,-27,53
-22,-27,52
-22,-27,53
-22,-27,53
-22,-27,53
-22,-27,53
-22,-27,53
-22,-27,53
-22,-27,53
-22,-27,53
-22,-26,53
-22,-27,52
-22,-27,52
-22,-27,53
-22,-27,52
-22,-27,53
-22,-27,53
-22,-27,53
-21,-27,53
-22,-27,53
-22,-27,53
-22,-27,53
-21,-26,53
-21,-26,53
-21,-26,53
-22,-26,53
-22,-26,53
-22,-26,53
-22,-26,53
-21,-26,53
-22,-26,53
-21,-27,53
-22,-27,53
-21,-26,53
-21,-26,53
-21,-27,53
-21,-27,53
-21,-26,53
-21,-26,53
-21,-26,53
-21,-27,53
-21,-26,53
-21,-26,53
-21,-26,53
-21,-26,53
-21,-27,53
-21,-27,53
-21,-27,53
-21,-27,52
-21,-27,53
-21,-26,54
-22,-26,53
-22,-26,53
-21,-26,53
-20,-26,53
-20,-27,52
-21,-27,53
-21,-27,54
-20,-27,54
-21,-27,53
-21,-27,53
-21,-26,53
-21,-27,53
-21,-27,53
-21,-26,53
-21,-26,53
-21,-27,53
-21,-27,53
-20,-26,53
-21,-27,53
-21,-26,53
-21,-27,53
-21,-27,53
-22,-27,53
-22,-27,52
-22,-27,53
-22,-27,53
-21,-26,53
-22,-27,53
-22,-26,53
-21,-27,53
-21,-27,53
-21,-27,53
-22,-27,53
-22,-26,53
-22,-26,53
-21,-27,53
-22,-27,53
-22,-27,53
-21,-27,53
-21,-27,53
-21,-27,53
-21,-26,53
-22,-27,53
-22,-27,53
-21,-27,53
-21,-27,53
-21,-27,53
-22,-27,53
-21,-27,53
-21,-26,53
-21,-27,53
-22,-27,53
-21,-26,53
-21,-26,53
-21,-27,53
-21,-26,53
-21,-26,53
-22,-26,53
-22,-27,52
-21,-27,53
-21,-27,53
-21,-26,53
-22,-26,53
-21,-27,53
-21,-26,53
-21,-27,53
-21,-26,53
-22,-26,53
-21,-27,53
-21,-27,53
-21,-27,53
-22,-27,53
-22,-27,53
-22,-26,53
-21,-27,53
-21,-26,53
-21,-27,53
-21,-27,53
-21,-27,53
-21,-27,53
-22,-27,53
-22,-27,53
-21,-27,53
-21,-27,53
-21,-27,53
-21,-27,53
-21,-27,53
-21,-26,53
-22,-27,53
-22,-27,53
-21,-27,53
-21,-27,53
-21,-27,53
-21,-26,53
-22,-27,53
-21,-27,53
-21,-27,53
-22,-26,53
-22,-27,53
-21,-27,53
-21,-27,53
-21,-27,53
-22,-27,53
-22,-27,53
-21,-27,53
-21,-27,53
-21,-27,53
-21,-27,53
-21,-27,53
-21,-27,53
-22,-27,53
-21,-27,53
-21,-27,53
-21,-27,53
-22,-27,53
-21,-27,53
-21,-26,53
-21,-27,53
-21,-27,53
-21,-27,53
-22,-27,53
-22,-27,53
-21,-27,53
-21,-27,53
-22,-26,53
-21,-26,53
-21,-26,53
-21,-27,53
-21,-26,53
-21,-26,53
-21,-27,53
-21,-27,53
-21,-27,53
-21,-27,53
-21,-26,53
-22,-27,53
-21,-26,53
-21,-27,53
-21,-26,53
-21,-26,53
-21,-27,53
-22,-27,53
-21,-27,53
-21,-26,53
-21,-27,53
-21,-27,53
-21,-27,53
-21,-26,53
-21,-27,53
-21,-27,53
-21,-26,53
-21,-26,53
-21,-26,52
-22,-27,53
-22,-27,53
-21,-27,53
-22,-27,53
-22,-27,53
-22,-27,53
-21,-27,53
-21,-27,53
-21,-26,53
-21,-27,53
-22,-27,53
-21,-27,53
-22,-27,53
-22,-27,53
-22,-26,53
-21,-27,53
-21,-27,53
-21,-27,53
-21,-27,53
-21,-27,53
-22,-27,53
-21,-27,53
-21,-27,53
-21,-27,53
-21,-27,53
-21,-26,53
-21,-27,53
-22,-27,53
-21,-27,53
-21,-26,53
-22,-27,53
-21,-27,53
-21,-27,53
-21,-27,53
-22,-27,53
-21,-27,53
-21,-27,53
-21,-27,53
-21,-27,53
-21,-27,53
-21,-27,53
-21,-27,53
-21,-27,53
-22,-27,53
-22,-26,53
-22,-27,53
-21,-27,53
-21,-27,53
-21,-27,53
-21,-27,53
-21,-26,53
-21,-27,53
-21,-27,53
-21,-27,53
-21,-27,53
-21,-26,53
-21,-27,53
-21,-27,53
-21,-27,53
-21,-26,53
-21,-27,53
-22,-27,53
-21,-27,53
-21,-27,53
-21,-27,53
-21,-27,53
-21,-27,53
-22,-27,52
-21,-27,53
-21,-26,53
-22,-27,53
-21,-27,53
-21,-27,53
-21,-27,53
-21,-26,53
-21,-26,53
-21,-26,53
-21,-27,53
-21,-27,53
-21,-27,53
-21,-26,53
-21,-27,53
-21,-27,53
-22,-27,53
-21,-27,53
-21,-27,53
-22,-27,53
-22,-27,53
-21,-27,53
-23,-28,53
-23,-28,53
-20,-26,54
-20,-26,54
-21,-26,54
-21,-26,53
-20,-27,54
-20,-27,54
-19,-27,55
-19,-26,54
-19,-25,54
-20,-25,55
-19,-27,55
-21,-26,53
-20,-26,54
-19,-28,54
-21,-27,52
-23,-23,51
-22,-26,53
-22,-25,52
-26,-27,50
-27,-25,52
-23,-25,51
-23,-23,52
-23,-23,53
-20,-24,54
-21,-27,52
-25,-26,52
-27,-26,52
-23,-25,52
-22,-26,52
-23,-26,52
-23,-26,52
-23,-27,51
-25,-28,51
-26,-28,49
-25,-29,50
-25,-29,51
-24,-28,51
-23,-28,51
-23,-29,52
-22,-29,52
-23,-29,52
-23,-29,51
-22,-28,52
-22,-28,52
-22,-29,52
-22,-28,52
-23,-28,52
-23,-28,52
-22,-28,52
-22,-29,52
-22,-29,52
-22,-29,52
-22,-29,52
-22,-28,52
-22,-28,52
-21,-28,52
-22,-28,52
-22,-28,52
-22,-28,52
-22,-28,52
-22,-28,52
-21,-28,52
-22,-28,52
-22,-28,52
-22,-28,52
-21,-28,52
-22,-28,52
-22,-28,52
-22,-28,52
-22,-28,52
-22,-28,52
-21,-28,52
-22,-28,52
-22,-28,52
-22,-28,52
-22,-28,52
-22,-28,52
-22,-28,52
-22,-28,52
-22,-28,52
-22,-28,52
-21,-28,52
-22,-28,52
-22,-28,52
-22,-28,52
-22,-28,52
-22,-28,52
-22,-28,52
-22,-28,52
-22,-28,52
-22,-28,52
-22,-28,52
-22,-28,52
-22,-28,52
-22,-28,52
-22,-28,52
-22,-28,52
-21,-28,52
-22,-28,52
-22,-28,52
-22,-28,52
-22,-28,52
-22,-28,52
-22,-28,52
-22,-28,52
-22,-28,52
-22,-28,52
-22,-28,52
-22,-28,52
-22,-28,52
-22,-28,52
-21,-28,52
-21,-28,52
-21,-28,52
-22,-28,52
-22,-28,52
-22,-28,52
-22,-28,52
-22,-28,52
-22,-28,52
-22,-28,52
-22,-28,52
-22,-28,52
-21,-28,52
-22,-28,52
-22,-28,52
-22,-28,52
-21,-28,52
-22,-28,52
-22,-28,52
-22,-28,52
-22,-28,52
-21,-28,52
-21,-28,52
-22,-28,52
-22,-28,52
-21,-28,52
-22,-28,52
-22,-28,52
-22,-28,52
-22,-28,52
-22,-28,52
-21,-28,52
-21,-28,52
-22,-28,52
-22,-28,52
-22,-28,52
-22,-28,52
-22,-28,52
-22,-28,52
-22,-28,52
-22,-28,52
-21,-28,52
-22,-28,52
-22,-28,52
-21,-28,52
-22,-28,52
-22,-28,52
-21,-28,52
-21,-28,52
-22,-28,52
-22,-28,52
-22,-28,52
-22,-28,52
-22,-28,52
-21,-28,53
-21,-28,52
-22,-28,52
-21,-28,52
-21,-28,52
-22,-28,52
-22,-28,52
-22,-28,52
-22,-28,52
-22,-28,52
-22,-28,52
-21,-28,52
-22,-28,52
-22,-28,52
-22,-28,52
-22,-28,52
-22,-28,52
-22,-28,52
-22,-28,52
-22,-28,52
-22,-28,52
-22,-28,52
-22,-28,52
-21,-28,52
-22,-28,52
-22,-28,52
-22,-28,52
-22,-28,52
-22,-28,52
-22,-28,52
-22,-28,52
-22,-28,52
-21,-28,53
-22,-28,52
-22,-28,52
-21,-28,52
-22,-28,52
-22,-28,52
-22,-28,52
-22,-28,52
-22,-28,52
-21,-28,52
-22,-28,52
-22,-28,52
-22,-28,52
-22,-28,52
-22,-28,52
-22,-28,52
-22,-28,52
-22,-28,52
-22,-28,52
-22,-28,52
-22,-28,52
-22,-28,52
-22,-28,52
-21,-28,53
-22,-28,52
-22,-28,52
-21,-28,52
-21,-28,52
-22,-28,52
-22,-28,52
-21,-28,53
-21,-28,52
-22,-28,52
-22,-28,52
-21,-28,52
-22,-28,52
-21,-28,52
-21,-28,52
-21,-28,52
-21,-28,52
-21,-28,52
-21,-28,52
-22,-28,52
-22,-28,52
-22,-28,52
-21,-28,52
-21,-28,52
-22,-28,52
-22,-28,52
-22,-28,52
-22,-28,52
-21,-28,52
-21,-28,52
-22,-28,52
-22,-28,52
-22,-28,52
-22,-28,52
-22,-28,52
-22,-28,52
-22,-28,52
-22,-28,52
-22,-28,52
-22,-28,52
-22,-28,52
-22,-28,52
-22,-28,52
-22,-28,52
-21,-28,52
-22,-28,52
-22,-28,52
-22,-28,52
-22,-28,52
-22,-28,52
-22,-28,52
-22,-28,52
-22,-28,52
-22,-28,52
-22,-28,52
-22,-28,52
-22,-28,52
-22,-28,52
-22,-28,52
-22,-28,52
-22,-28,52
-22,-28,52
-22,-28,52
-22,-28,52
-22,-28,51
-22,-28,52
-22,-28,52
-22,-28,52
-22,-28,52
-22,-28,52
-22,-28,52
-22,-28,52
-22,-28,52
-22,-28,52
-22,-28,52
-22,-28,52
-22,-28,52
-22,-28,52
-22,-28,52
-22,-28,52
-22,-28,52
-24,-29,51
-24,-27,49
-16,-28,56
-29,-29,49
-27,-28,49
-17,-27,53
-17,-28,53
-23,-29,52
-25,-28,51
-24,-28,52
-19,-28,53
-22,-28,52
-23,-28,51
-22,-28,52
-22,-29,52
-22,-28,52
-22,-28,52
-21,-28,52
-22,-28,52
-23,-28,52
-22,-28,52
-22,-28,52
-22,-28,52
-22,-28,52
-22,-28,52
-22,-28,52
-22,-28,52
-22,-28,52
-22,-28,52
-22,-28,52
-22,-28,52
-22,-28,52
-22,-28,52
-22,-28,52
-22,-28,52
-22,-28,52
-22,-28,52
-22,-28,52
-22,-28,52
-22,-28,52
-22,-28,52
-22,-28,52
-22,-28,52
-22,-28,52
-22,-28,52
-22,-28,52
-22,-28,52
-22,-28,52
-22,-28,52
-22,-28,52
-22,-28,52
-21,-28,52
-22,-28,52
-22,-28,52
-22,-28,52
-22,-28,52
-22,-28,52
-22,-28,52
-22,-28,52
-22,-28,52
-22,-28,52
-22,-28,52
-22,-28,52
-22,-28,52
-22,-28,52
-22,-28,52
-22,-28,52
-22,-28,52
-22,-28,52
-22,-28,52
-22,-28,52
-22,-28,52
-21,-28,52
-23,-28,51
-22,-28,52
-21,-28,52
-22,-28,52
-22,-28,52
-22,-28,52
-22,-28,52
-22,-28,52
-21,-28,52
-22,-28,52
-22,-28,52
-22,-28,52
-22,-28,52
-22,-28,52
-22,-28,52
-22,-28,52
-22,-28,52
-22,-28,52
-22,-28,52
-22,-28,52
-22,-28,52
-22,-28,52
-22,-28,52
-22,-28,52
-22,-28,52
-22,-28,52
-22,-28,52
-22,-28,52
-22,-28,52
-21,-28,52
-22,-28,52
-22,-28,52
-22,-28,52
-22,-28,52
-22,-28,52
-22,-28,52
-22,-28,52
-22,-28,52
-22,-28,52
-22,-28,52
-22,-28,52
-22,-28,52
-22,-28,52
-22,-28,52
-22,-28,52
-22,-28,52
-22,-28,52
-22,-28,52
-22,-28,52
-22,-28,52
-22,-28,52
-22,-28,52
-22,-28,52
-22,-28,52
-22,-28,52
-22,-28,52
-22,-28,52
-22,-28,52
-22,-28,52
-22,-28,52
-22,-28,52
-21,-28,52
-22,-28,52
-22,-28,51
-21,-28,52
-22,-28,52
-22,-28,52
-22,-28,52
-22,-28,52
-22,-28,52
-22,-28,52
-22,-28,52
-22,-28,52
-22,-28,52
-22,-28,52
-22,-28,52
-22,-28,52
-22,-28,52
-22,-28,52
-22,-28,52
-22,-28,52
-22,-28,52
-22,-28,52
-22,-28,52
-22,-28,52
-22,-28,52
-22,-28,52
-22,-28,52
-22,-28,52
-22,-28,52
-22,-28,52
-22,-28,52
-21,-28,52
-22,-28,52
-22,-28,52
-22,-28,52
-21,-28,52
-22,-28,52
-22,-28,52
-22,-28,52
-22,-28,52
-22,-28,52
-22,-28,52
-22,-28,52
-22,-28,52
-22,-28,52
-22,-28,52
-22,-28,52
-22,-28,52
-22,-28,52
-22,-28,52
-22,-28,52
-22,-28,52
-22,-28,52
-22,-28,52
-22,-28,52
-22,-28,52
-22,-28,52
-22,-28,52
-22,-28,52
-22,-28,52
-22,-28,52
-22,-28,52
-21,-28,52
-21,-28,52
-22,-28,52
-22,-28,52
-21,-28,52
-21,-28,52
-22,-28,52
-22,-28,52
-22,-28,52
-21,-28,52
-22,-28,52
-22,-28,52
-22,-28,52
-22,-28,52
-21,-28,52
-22,-28,52
-22,-28,52
-22,-28,52
-21,-28,52
-22,-28,52
-22,-28,52
-22,-28,52
-22,-28,52
-22,-28,52
-22,-28,52
-22,-28,52
-22,-28,52
-22,-28,52
-22,-28,52
-22,-28,52
-22,-28,52
-22,-28,52
-22,-28,52
-22,-28,52
-22,-28,52
-22,-28,52
-22,-28,52
-22,-28,52
-22,-28,52
-22,-28,52
-22,-28,52
-22,-28,52
-21,-28,52
-22,-28,52
-22,-28,52
-22,-28,52
-21,-28,52
-22,-28,52
-22,-28,52
-22,-28,52
-22,-28,52
-22,-28,52
-22,-28,52
-22,-28,52
-22,-28,52
-22,-28,52
-22,-28,52
-22,-28,52
-22,-28,52
-22,-28,52
-22,-28,52
-22,-28,52
-22,-28,52
-22,-28,52
-22,-28,52
-21,-28,52
-22,-28,52
-22,-28,51
-21,-28,52
-22,-28,52
-22,-28,52
-22,-28,52
-21,-28,52
-22,-28,52
-22,-28,52
-22,-28,52
-22,-28,52
-22,-28,52
-22,-28,52
-21,-28,52
-22,-28,52
-22,-28,52
-21,-28,52
-21,-28,52
-22,-28,52
-22,-28,52
-22,-28,52
-22,-28,52
-22,-28,52
-21,-28,52
-22,-28,52
-22,-28,52
-21,-28,52
-22,-28,52
-22,-28,52
-21,-28,52
-22,-28,52
-22,-28,52
-22,-28,52
-22,-28,52
-22,-28,52
-21,-28,52
-22,-28,52
-22,-28,52
-22,-28,52
-22,-28,52
-21,-28,52
-21,-28,52
-22,-28,52
-22,-28,52
-21,-28,52
-21,-28,52
-22,-28,52
-22,-28,52
-22,-28,52
-22,-28,52
-22,-28,52
-22,-28,52
-22,-28,52
-22,-28,52
-22,-28,52
-22,-28,52
-22,-28,52
-22,-28,52
-22,-28,52
-22,-28,52
-22,-28,52
-22,-28,52
-22,-28,52
-22,-28,52
-22,-28,52
-22,-28,52
-22,-28,52
-21,-28,52
-22,-28,52
-22,-28,52
-22,-28,52
-22,-28,52
-22,-28,52
-22,-28,52
-22,-28,52
-22,-28,52
-21,-28,52
-22,-28,52
-22,-28,52
-22,-28,52
-22,-28,52
-22,-28,52
-21,-28,52
-21,-28,52
-22,-28,52
-22,-28,52
-22,-28,52
-22,-28,52
-22,-28,52
-22,-28,52
-22,-28,52
-22,-28,52
-22,-28,52
-22,-28,52
-22,-28,52
-21,-28,52
-22,-28,52
-22,-28,52
-22,-28,52
-21,-28,52
-22,-28,52
-22,-28,52
-21,-28,52
-22,-28,52
-22,-28,52
-22,-28,52
-22,-28,52
-22,-28,52
-21,-28,52
-21,-28,52
-22,-28,52
-22,-28,52
-22,-28,52
-22,-28,52
-21,-28,52
-21,-28,52
-22,-28,52
-22,-28,52
-22,-28,52
-22,-28,52
-22,-28,52
-22,-28,52
-21,-28,52
-22,-28,52
-22,-28,52
-21,-28,52
-22,-28,52
-22,-28,52
-21,-28,52
-22,-28,52
-22,-28,52
-21,-28,52
-21,-28,52
-22,-28,52
-22,-28,52
-21,-28,52
-22,-28,52
-21,-28,52
-21,-28,52
-22,-28,52
-22,-28,52
-21,-28,52
-22,-28,52
-22,-28,52
-22,-28,52
-22,-28,52
-21,-28,52
-22,-28,52
-22,-28,52
-22,-28,52
-22,-28,52
-22,-28,52
-22,-28,52
-22,-28,52
-22,-28,52
-22,-28,52
-21,-28,52
-21,-28,52
-22,-28,52
-22,-28,52
-21,-28,52
-22,-28,52
-22,-28,52
-21,-28,52
-22,-28,52
-22,-28,52
-22,-28,52
-22,-28,52
-22,-28,52
-22,-28,52
-21,-28,52
-22,-28,52
-22,-28,52
-22,-28,52
-22,-28,52
-22,-28,52
-22,-28,52
-22,-28,52
-21,-28,52
-21,-28,52
-21,-28,52
-22,-28,52
-22,-28,52
-22,-28,52
-22,-28,52
-22,-28,52
-22,-28,52
-21,-28,52
-21,-28,52
-21,-28,52
-21,-28,52
-22,-28,52
-22,-28,52
-22,-28,51
-22,-28,52
-22,-29,52
-22,-28,52
-21,-28,52
-21,-28,52
-22,-28,52
-22,-28,52
-21,-28,52
-22,-28,52
-22,-28,52
-22,-28,52
-21,-28,52
-22,-28,52
-22,-28,52
-22,-28,52
-21,-28,52
-21,-28,52
-21,-28,52
-21,-28,52
-22,-28,52
-22,-28,52
-22,-28,52
-21,-28,52
-21,-28,52
-22,-28,52
-21,-28,52
-21,-28,52
-21,-28,52
-21,-28,52
-21,-28,52
-22,-28,52
-22,-28,52
-21,-28,52
-21,-28,52
-22,-28,52
-22,-28,52
-21,-28,52
-22,-28,52
-22,-28,52
-22,-28,52
-22,-28,52
-21,-28,52
-21,-28,52
-22,-28,52
-22,-28,52
-22,-28,52
-22,-28,52
-21,-28,52
-21,-28,52
-22,-28,52
-22,-28,52
-22,-28,52
-21,-28,52
-22,-28,52
-22,-28,52
-22,-28,52
-21,-28,52
-21,-28,52
-22,-28,52
-21,-28,52
-22,-28,52
-22,-28,52
-22,-28,52
-21,-28,52
-22,-28,52
-22,-28,52
-22,-28,52
-22,-28,52
-22,-28,52
-21,-28,52
-22,-28,52
-22,-28,52
-21,-28,52
-22,-28,52
-22,-28,52
-22,-28,52
-21,-28,52
-21,-28,52
-21,-28,52
-21,-28,52
-21,-28,52
-21,-28,52
-22,-28,52
-22,-28,52
-21,-28,52
-22,-28,52
-21,-28,52
-21,-28,52
-22,-28,52
-22,-28,52
-22,-28,52
-21,-28,53
-21,-28,53
-22,-28,52
-22,-28,52
-21,-28,52
-21,-28,52
-22,-28,52
-21,-28,52
-21,-28,52
-22,-28,52
-21,-28,52
-21,-28,52
-22,-28,52
-22,-28,52
-21,-28,52
-22,-28,52
-22,-28,52
-22,-28,52
-21,-28,52
-21,-28,52
-22,-28,52
-22,-28,52
-21,-28,52
-22,-28,52
-22,-28,52
-21,-28,52
-22,-28,52
-22,-28,52
-22,-28,52
-21,-28,52
-21,-28,52
-22,-28,52
-21,-28,52
-21,-28,52
-22,-28,52
-22,-28,52
-22,-28,52
-21,-28,52
-22,-28,52
-22,-28,52
-21,-28,52
-22,-28,52
-21,-28,52
-21,-28,52
-22,-28,52
-21,-28,52
-21,-28,52
-22,-28,52
-22,-28,52
-22,-28,52
-21,-28,52
-21,-28,52
-21,-28,52
-21,-28,52
-21,-28,52
-22,-28,52
-22,-28,52
-21,-28,52
-21,-28,52
-22,-28,52
-21,-28,52
-21,-28,52
-21,-28,52
-21,-28,52
-22,-28,52
-21,-28,53
-21,-28,52
-22,-28,52
-21,-28,52
-21,-28,52
-22,-28,52
-22,-28,52
-21,-28,52
-22,-28,52
-22,-28,52
-21,-28,52
-22,-28,52
-22,-28,52
-21,-28,52
-22,-28,52
-22,-28,52
-22,-28,52
-21,-28,52
-21,-28,52
-21,-28,52
-21,-28,52
-22,-28,52
-21,-28,52
-21,-28,52
-22,-28,52
-21,-28,52
-21,-28,52
-21,-28,52
-22,-28,52
-21,-28,52
-21,-28,52
-21,-28,52
-22,-28,52
-22,-28,52
-21,-28,52
-22,-28,52
-22,-28,52
-21,-28,52
-21,-28,52
-22,-28,52
-22,-28,52
-22,-28,52
-22,-28,52
-21,-28,52
-22,-28,52
-22,-28,52
-21,-28,52
-21,-28,52
-21,-28,52
-22,-28,52
-22,-28,52
-22,-28,52
-21,-28,52
-21,-28,52
-21,-28,52
-21,-28,52
-22,-28,52
-22,-28,52
-22,-28,52
-22,-28,52
-21,-28,52
-22,-28,52
-22,-28,52
-21,-28,52
-22,-28,52
-22,-28,52
-21,-28,52
-22,-28,52
-22,-28,52
-21,-28,52
-21,-28,52
-21,-28,52
-21,-28,52
-21,-28,52
-22,-28,52
-21,-28,52
-21,-28,52
-21,-28,52
-21,-28,52
-21,-28,52
-22,-28,52
-22,-28,52
-21,-28,52
-21,-28,52
-21,-28,52
-21,-28,52
-21,-28,52
-22,-28,52
-22,-28,52
-22,-28,52
-21,-28,52
-21,-28,52
-21,-28,52
-21,-28,52
-21,-28,52
-22,-28,52
-21,-28,52
-21,-28,52
-21,-28,52
-21,-28,53
-22,-28,52
-22,-28,52
-21,-28,52
-21,-28,52
-21,-28,52
-22,-28,52
-21,-28,52
-21,-28,52
-21,-28,52
-21,-28,52
-21,-28,52
-22,-28,52
-21,-28,52
-21,-28,52
-21,-28,52
-22,-28,52
-22,-28,52
-21,-28,52
-21,-28,52
-21,-28,52
-21,-28,52
-21,-28,52
-21,-28,52
-21,-28,52
-21,-28,52
-22,-28,52
-21,-28,52
-21,-28,52
-21,-28,52
-21,-28,52
-21,-28,52
-22,-28,52
-21,-28,52
-21,-28,52
-22,-28,52
-21,-28,52
-21,-28,52
-22,-28,52
-22,-28,52
-22,-28,52
-22,-28,52
-21,-28,52
-21,-28,52
-22,-28,52
-21,-28,52
-21,-28,52
-21,-28,52
-22,-28,52
-22,-28,52
-22,-28,52
-21,-28,52
-21,-28,52
-21,-28,52
-22,-28,52
-21,-28,52
-22,-28,52
-21,-28,52
-21,-28,52
-21,-28,52
-22,-28,52
-21,-28,52
-21,-28,52
-21,-28,52
-21,-28,52
-21,-28,53
-21,-28,53
-22,-28,52
-21,-28,52
-21,-28,52
-22,-28,52
-21,-28,52
-21,-28,52
-21,-28,52
-21,-28,52
-21,-28,52
-21,-28,52
-21,-28,52
-21,-28,52
-21,-28,52
-22,-28,52
-22,-28,52
-21,-28,52
-21,-28,52
-21,-28,52
-21,-28,52
-21,-28,52
-21,-28,53
-21,-28,52
-21,-28,52
-21,-28,52
-21,-28,52
-21,-28,52
-21,-28,52
-21,-28,52
-22,-28,52
-21,-28,52
-21,-28,52
-21,-28,52
-21,-28,53
-21,-28,52
-22,-28,52
-22,-28,52
-21,-28,53
-22,-28,52
-21,-28,52
-21,-28,52
-22,-28,52
-21,-28,52
-21,-28,52
-21,-28,52
-21,-28,52
-21,-28,52
-21,-28,52
-21,-28,52
-22,-28,52
-22,-28,52
-21,-28,52
-21,-28,52
-21,-28,52
-22,-28,53
-22,-28,52
-22,-28,52
-22,-28,52
-22,-28,52
-21,-28,53
-21,-28,52
-22,-28,52
-22,-27,52
-21,-27,52
-22,-28,52
-21,-28,52
-21,-28,53
-21,-28,53
-22,-28,52
-22,-29,52
-22,-28,52
-22,-28,52
-21,-28,52
-21,-28,52
-21,-28,52
-21,-28,52
-21,-28,52
-21,-28,52
-21,-28,53
-21,-28,52
-20,-28,52
-19,-28,53
-22,-28,52
-22,-28,51
-21,-28,53
-21,-28,53
-21,-28,52
-22,-27,52
-22,-28,52
-21,-29,52
-21,-28,53
-21,-28,52
-22,-28,52
-22,-28,52
-22,-28,52
-22,-28,52
-21,-29,52
-21,-28,52
-21,-27,53
-21,-28,52
-22,-28,52
-22,-28,52
-21,-28,52
-21,-29,52
-22,-28,52
-22,-28,52
-21,-28,52
-21,-28,52
-21,-28,52
-21,-28,52
-21,-28,52
-21,-28,53
-21,-28,52
-21,-28,52
-21,-28,52
-21,-28,52
-22,-28,52
-21,-28,52
-21,-28,53
-21,-28,52
-21,-28,52
-21,-28,52
-21,-28,52
-22,-28,52
-21,-28,52
-21,-28,52
-21,-28,52
-22,-28,52
-21,-28,52
-21,-28,53
-21,-28,52
-21,-28,52
-21,-28,52
-21,-28,52
-21,-28,53
-21,-28,52
-21,-28,52
-21,-28,52
-21,-28,53
-21,-28,53
-22,-28,52
-21,-28,52
-21,-28,52
-21,-28,52
-22,-28,52
-22,-28,52
-21,-28,52
-21,-28,52
-21,-28,52
-21,-28,52
-21,-28,52
-21,-28,52
-21,-28,52
-22,-28,52
-21,-28,52
-22,-28,52
-22,-28,52
-21,-28,52
-22,-28,52
-22,-28,52
-21,-28,52
-22,-28,52
-22,-28,52
-21,-28,52
-21,-28,52
-21,-28,52
-22,-28,52
-21,-28,52
-21,-28,52
-21,-28,53
-21,-28,52
-21,-28,52
-21,-28,52
-21,-28,52
-22,-28,52
-22,-28,52
-21,-28,52
-21,-28,52
-21,-28,52
-21,-28,52
-21,-28,52
-21,-28,52
-22,-28,52
-22,-28,52
-21,-28,52
-21,-28,52
-21,-28,52
-21,-28,52
-21,-28,52
-21,-28,52
-22,-28,52
-21,-28,52
-21,-28,52
-22,-28,52
-22,-28,53
-21,-28,52
-21,-28,52
-21,-28,52
-21,-28,52
-22,-28,52
-21,-28,52
-21,-28,53
-21,-28,52
-21,-28,52
-21,-28,52
-22,-28,52
-22,-28,52
-22,-28,52
-21,-28,52
-21,-28,52
-21,-28,52
-22,-28,52
-21,-28,52
-21,-28,52
-22,-28,52
-21,-28,52
-21,-28,52
-21,-28,52
-21,-28,52
-21,-28,52
-21,-28,52
-21,-28,52
-21,-28,52
-21,-28,53
-21,-28,52
-22,-28,52
-21,-28,52
-21,-28,52
-21,-28,52
-21,-28,52
-21,-28,52
-21,-28,52
-21,-28,52
-21,-28,52
-22,-28,52
-21,-28,52
-21,-28,52
-21,-28,52
-22,-28,52
-22,-28,52
-21,-28,52
-21,-28,52
-21,-28,52
-21,-28,52
-21,-28,52
-21,-28,52
-22,-28,52
-21,-28,52
-21,-28,52
-22,-28,52
-21,-28,52
-21,-28,52
-21,-28,52
-21,-28,52
-21,-28,52
-21,-28,52
-21,-28,52
-22,-28,52
-21,-28,52
-21,-28,52
-22,-28,52
-21,-28,52
-21,-28,52
-21,-28,52
-21,-28,52
-21,-28,53
-22,-28,52
-21,-28,52
-21,-28,52
-21,-28,52
-22,-28,52
-21,-28,52
-21,-28,52
-21,-28,52
-21,-28,52
-21,-28,52
-21,-28,52
-21,-28,52
-21,-28,52
-21,-28,52
-21,-28,52
-21,-28,52
-21,-28,52
-21,-28,53
-21,-28,52
-21,-28,52
-21,-28,53
-21,-28,52
-21,-28,52
-22,-28,52
-21,-28,52
-21,-28,52
-21,-28,52
-21,-28,52
-22,-28,52
-22,-27,52
-21,-28,52
-20,-29,53
-21,-28,53
-21,-28,52
-21,-28,52
-21,-28,52
-22,-28,52
-22,-28,52
-21,-28,52
-21,-28,53
-21,-28,53
-21,-28,52
-22,-28,52
-21,-28,52
-21,-28,52
-21,-28,52
-21,-28,52
-21,-28,52
-21,-28,52
-21,-28,52
-21,-28,52
-21,-28,52
-21,-28,52
-21,-28,52
-21,-28,53
-22,-28,52
-22,-28,52
-21,-28,52
-21,-28,52
-21,-28,52
-21,-28,52
-21,-28,52
-22,-28,52
-21,-28,52
-21,-28,53
-21,-28,52
-21,-28,52
-21,-28,52
-21,-28,52
-21,-28,52
-21,-28,52
-22,-28,52
-21,-28,52
-21,-28,52
-21,-28,52
-21,-28,52
-21,-28,52
-21,-28,52
-21,-28,52
-21,-28,52
-21,-28,52
-21,-28,52
-21,-28,52
-21,-28,52
-21,-28,53
-21,-28,52
-21,-28,53
-22,-28,52
-22,-28,52
-21,-28,52
-21,-28,52
-21,-28,52
-21,-28,52
-21,-28,52
-21,-28,52
-21,-28,53
-21,-28,52
-22,-28,52
-21,-28,52
-21,-28,52
-21,-28,52
-21,-28,52
-21,-28,52
-21,-28,52
-21,-28,52
-21,-28,52
-21,-28,52
-21,-28,52
-21,-28,52
-21,-28,52
-21,-28,52
-21,-28,52
-21,-28,53
-21,-28,52
-21,-28,52
-21,-28,52
-21,-28,52
-21,-28,52
-21,-28,52
-21,-28,52
-21,-28,52
-22,-28,52
-21,-28,52
-21,-28,52
-21,-28,52
-21,-28,52
-21,-28,52
-21,-28,52
-21,-28,52
-21,-28,53
-21,-28,52
-21,-28,52
-21,-28,52
-21,-28,52
-21,-28,52
-21,-28,52
-21,-28,52
-21,-28,52
-21,-28,52
-21,-28,52
-21,-28,53
-21,-28,52
-21,-28,52
-21,-28,52
-22,-28,52
-21,-28,52
-21,-28,52
-21,-28,52
-21,-28,52
-21,-28,52
-21,-28,52
-21,-28,52
-21,-28,53
-21,-28,52
-21,-28,52
-21,-28,52
-21,-28,52
-21,-28,52
-21,-28,52
-21,-28,52
-21,-28,52
-21,-28,52
-21,-28,52
-21,-28,52
-21,-28,52
-21,-28,52
-21,-28,52
-21,-28,52
-21,-28,52
-21,-28,52
-21,-28,52
-21,-28,52
-21,-28,52
-21,-28,52
-21,-28,52
-21,-28,52
-21,-28,52
-21,-28,53
-21,-28,52
-21,-28,52
-21,-28,52
-21,-28,52
-21,-28,52
-21,-28,52
-21,-28,53
-21,-28,52
-22,-28,52
-21,-28,52
-21,-28,52
-21,-28,52
-21,-28,52
-21,-28,53
-21,-28,52
-21,-28,52
-21,-28,53
-21,-28,53
-21,-28,52
-21,-28,52
-21,-28,52
-21,-28,52
-22,-28,52
-21,-28,52
-21,-28,53
-21,-28,52
-21,-28,52
-21,-28,52
-21,-28,52
-21,-28,52
-21,-28,52
-21,-28,52
-21,-28,52
-21,-28,52
-21,-28,52
-21,-28,52
-21,-28,52
-21,-28,52
-22,-28,52
-21,-28,52
-21,-28,53
-22,-28,52
-21,-28,52
-21,-28,52
-21,-28,52
-22,-28,52
-21,-28,52
-21,-28,52
-21,-28,52
-21,-28,53
-21,-28,52
-21,-28,52
-21,-28,52
-21,-28,52
-22,-28,52
-21,-28,52
-21,-28,52
-21,-28,52
-21,-28,52
-21,-28,52
-21,-28,52
-21,-28,52
-21,-28,52
-21,-28,52
-21,-28,52
-21,-28,52
-21,-28,52
-21,-28,52
-21,-28,52
-21,-28,52
-21,-28,52
-21,-28,52
-21,-28,53
-22,-28,52
-22,-28,52
-21,-28,52
-21,-28,53
-21,-28,53
-21,-28,52
-21,-28,52
-21,-28,52
-21,-28,52
-21,-28,53
-21,-28,52
-21,-28,52
-21,-28,52
-21,-28,52
-21,-28,52
-21,-28,52
-21,-28,52
-21,-28,52
-21,-28,52
-21,-28,53
-21,-28,52
-21,-28,52
-21,-28,53
-21,-28,52
-21,-28,52
-21,-28,52
-21,-28,53
-21,-28,52
-21,-28,52
-21,-28,52
-21,-28,52
-21,-28,52
-21,-28,53
-22,-28,52
-22,-28,52
-21,-28,52
-21,-28,52
-21,-28,52
-21,-28,52
-21,-28,52
-21,-28,52
-21,-28,52
-21,-28,53
-21,-28,52
-21,-28,52
-21,-28,52
-21,-28,52
-21,-28,52
-21,-28,52
-21,-28,52
-21,-28,52
-21,-28,52
-21,-28,52
-21,-28,52
-21,-28,52
-21,-28,52
-21,-28,52
-21,-28,52
-21,-28,52
-21,-28,52
-21,-28,52
-21,-28,52
-21,-28,52
-21,-28,52
-21,-28,52
-21,-28,52
-22,-28,52
-21,-28,52
-21,-28,52
-21,-28,52
-21,-28,52
-21,-28,53
-21,-28,52
-21,-28,52
-21,-28,53
-21,-28,53
-21,-28,52
-21,-28,53
-21,-28,52
-21,-28,52
-21,-28,52
-21,-28,52
-21,-28,53
-21,-28,52
-21,-28,52
-21,-28,53
-21,-28,52
-21,-28,52
-21,-28,52
-21,-28,52
-21,-28,52
-21,-28,52
-21,-28,52
-21,-28,52
-21,-28,52
-21,-28,52
-21,-28,52
-21,-28,53
-21,-28,53
-21,-28,52
-21,-28,52
-21,-28,53
-21,-28,53
-21,-28,52
-21,-28,52
-21,-28,52
-21,-28,53
-21,-28,53
-21,-28,53
-21,-28,52
-21,-28,52
-21,-28,52
-21,-28,53
-22,-28,52
-21,-28,53
-21,-28,52
-21,-28,52
-21,-28,52
-21,-28,52
-21,-28,52
-21,-28,52
-21,-28,52
-21,-28,52
-21,-28,52
-21,-28,52
-21,-28,52
-21,-28,52
-21,-28,52
-21,-28,52
-22,-28,52
-21,-28,53
-21,-28,52
-22,-28,52
-21,-28,52
-21,-28,52
-21,-28,52
-22,-28,52
-21,-28,52
-21,-28,52
-21,-28,52
-21,-28,52
-21,-28,53
-21,-28,52
-21,-28,52
-21,-28,52
-21,-28,52
-21,-28,52
-21,-28,52
-21,-28,52
-21,-28,52
-21,-28,52
-21,-28,52
-21,-28,52
-21,-28,52
-21,-28,52
-21,-28,52
-21,-28,52
-21,-28,52
-21,-28,52
-21,-28,52
-21,-28,52
-21,-28,52
-21,-28,52
-21,-28,52
-21,-28,53
-21,-28,52
-21,-28,52
-21,-28,52
-21,-28,53
-21,-28,52
-21,-28,52
-21,-28,52
-21,-28,52
-21,-28,52
-21,-28,53
-21,-28,52
-21,-28,52
-21,-28,52
-21,-28,52
-21,-28,52
-21,-28,52
-21,-28,52
-21,-28,52
-21,-28,52
-21,-28,52
-21,-28,53
-21,-28,52
-21,-28,52
-21,-28,52
-21,-28,52
-21,-28,52
-21,-28,52
-21,-28,52
-21,-28,53
-21,-28,52
-21,-28,52
-21,-28,52
-21,-28,53
-21,-28,53
-21,-28,52
-21,-28,52
-21,-28,52
-21,-28,52
-21,-28,53
-21,-28,52
-21,-28,52
-21,-28,52
-21,-28,52
-21,-28,53
-21,-28,52
-21,-28,52
-21,-28,52
-21,-28,52
-21,-28,52
-21,-28,52
-21,-28,52
-21,-28,53
-21,-28,52
-21,-28,52
-21,-28,52
-21,-28,52
-21,-28,52
-21,-28,52
-21,-28,52
-21,-28,52
-21,-28,52
-21,-28,52
-21,-28,52
-21,-28,52
-21,-28,52
-21,-28,52
-21,-28,52
-21,-28,53
-22,-28,52
-22,-28,52
-21,-28,52
-21,-28,52
-21,-28,53
-21,-28,52
-21,-28,52
-21,-28,52
-21,-28,53
-21,-28,52
-21,-28,52
-21,-28,53
-21,-28,52
-21,-28,52
-21,-28,52
-21,-28,52
-21,-28,52
-21,-28,53
-21,-28,52
-21,-28,52
-21,-28,53
-21,-28,52
-21,-28,52
-21,-28,52
-21,-28,52
-21,-28,52
-21,-28,52
-21,-28,52
-21,-28,52
-21,-28,52
-21,-28,52
-21,-28,52
-21,-28,53
-21,-28,53
-22,-28,52
-21,-28,52
-21,-28,52
-21,-28,52
-21,-28,52
-21,-28,52
-21,-28,52
-21,-28,52
-21,-28,53
-21,-28,52
-21,-28,52
-21,-28,52
-21,-28,52
-21,-28,52
-21,-27,52
-22,-28,52
-21,-28,52
-21,-28,52
-21,-28,52
-21,-28,52
-21,-28,53
-21,-28,52
-21,-28,52
-21,-28,52
-21,-28,52
-22,-28,52
-21,-28,52
-21,-28,52
-21,-28,52
-21,-28,52
-21,-28,52
-21,-28,53
-22,-28,52
-21,-28,52
-21,-28,52
-21,-28,52
-21,-28,52
-21,-28,52
-21,-28,52
-22,-27,52
-21,-28,52
-21,-28,53
-21,-28,52
-21,-28,52
-21,-28,52
-21,-28,52
-21,-28,52
-21,-28,53
-21,-28,52
-21,-28,52
-21,-28,52
-21,-28,52
-21,-28,52
-21,-28,52
-21,-28,52
-21,-28,52
-21,-28,52
-21,-28,52
-21,-28,52
-21,-28,52
-21,-28,52
-21,-28,52
-21,-28,53
-22,-28,52
-22,-28,52
-21,-28,52
-21,-28,52
-21,-28,52
-21,-28,52
-21,-28,53
-21,-28,52
-21,-28,52
-21,-28,53
-21,-28,52
-21,-28,52
-21,-28,52
-21,-28,52
-21,-28,52
-21,-28,52
-21,-28,52
-21,-28,52
-21,-28,52
-21,-28,52
-21,-28,52
-21,-28,53
-21,-28,52
-21,-28,53
-21,-28,52
-21,-28,52
-21,-28,53
-21,-28,52
-21,-28,53
-21,-28,52
-21,-28,52
-21,-28,52
-21,-28,53
-21,-28,52
-21,-28,52
-21,-28,52
-21,-28,52
-21,-28,52
-21,-28,52
-21,-28,52
-21,-28,52
-21,-28,52
-21,-28,52
-22,-28,52
-21,-28,52
-21,-28,52
-21,-28,52
-21,-28,52
-21,-28,52
-21,-28,52
-21,-28,52
-21,-28,52
-21,-28,52
-21,-28,53
-21,-28,53
-21,-28,52
-21,-28,52
-21,-28,52
-21,-28,52
-21,-28,52
-21,-28,52
-21,-28,52
-21,-28,52
-21,-28,53
-22,-28,52
-22,-28,52
-21,-28,52
-21,-28,52
-21,-28,52
-21,-28,53
-21,-28,52
-22,-28,52
-22,-28,52
-21,-28,52
-21,-28,52
-21,-28,52
-21,-28,52
-21,-28,52
-21,-28,52
-22,-28,52
-22,-28,52
-21,-28,52
-21,-28,52
-21,-28,52
-21,-28,52
-21,-28,52
-21,-28,52
-22,-28,52
-21,-28,52
-21,-28,52
-21,-28,52
-21,-28,53
-22,-28,52
-21,-28,52
-21,-28,52
-22,-28,52
-21,-28,52
-21,-28,52
-22,-28,52
-21,-28,52
-21,-28,52
-22,-28,52
-21,-28,52
-21,-28,53
-21,-28,52
-21,-28,52
-21,-28,52
-21,-28,51
-21,-28,52
-21,-29,53
-22,-28,53
-21,-27,52
-21,-28,52
-21,-28,52
-21,-28,52
-21,-28,53
-22,-28,53
-21,-28,52
-21,-28,52
-21,-28,52
-22,-28,52
-21,-28,52
-21,-28,52
-22,-28,52
-21,-28,52
-21,-28,53
-22,-28,52
-22,-28,52
-21,-28,52
-21,-28,52
-21,-28,52
-21,-28,52
-21,-28,52
-21,-28,52
-21,-28,52
-21,-28,52
-21,-28,52
-21,-28,52
-21,-28,52
-21,-28,52
-21,-28,52
-21,-28,52
-21,-28,53
-21,-28,52
-21,-28,53
-21,-28,52
-21,-28,52
-21,-28,52
-21,-28,52
-21,-28,52
-21,-28,52
-21,-28,52
-21,-28,52
-21,-28,52
-21,-28,52
-21,-28,52
-21,-28,53
-21,-28,52
-21,-28,53
-22,-28,52
-22,-28,52
-21,-28,52
-21,-28,52
-21,-28,52
-21,-28,52
-21,-28,52
-21,-28,52
-21,-28,52
-21,-28,53
-21,-28,52
-21,-28,52
-21,-28,52
-21,-28,52
-22,-28,52
-21,-28,52
-21,-28,52
-21,-28,52
-21,-28,52
-21,-28,52
-21,-28,52
-21,-28,53
-22,-28,53
-22,-28,52
-21,-28,52
-21,-28,52
-21,-28,53
-22,-28,53
-21,-28,52
-21,-28,52
-21,-28,52
-21,-28,52
-22,-28,52
-22,-28,52
-21,-28,53
-21,-28,52
-21,-28,52
-21,-28,52
-21,-28,52
-21,-28,52
-21,-28,53
-21,-28,53
-22,-28,52
-21,-28,52
-21,-28,52
-21,-28,52
-21,-28,53
-21,-28,52
-21,-27,52
-21,-28,52
-21,-28,52
-21,-28,52
-21,-28,52
-21,-28,52
-21,-28,52
-21,-28,52
-21,-28,53
-21,-28,52
-21,-28,52
-21,-28,52
-21,-28,52
-21,-28,52
-21,-28,53
-21,-28,52
-22,-28,52
-21,-28,52
-21,-28,52
-21,-28,53
-21,-28,53
-21,-28,53
-21,-28,52
-21,-28,52
-21,-28,53
-22,-28,52
-21,-28,52
-21,-28,53
-21,-28,52
-21,-28,52
-21,-28,52
-21,-28,52
-21,-28,52
-21,-28,52
-21,-28,53
-21,-28,52
-21,-28,52
-21,-28,52
-21,-28,52
-21,-28,52
-21,-28,52
-21,-28,52
-21,-28,52
-21,-28,52
-21,-28,52
-21,-28,52
-21,-28,53
-21,-28,52
-21,-28,52
-21,-28,52
-21,-28,53
-21,-28,52
-21,-28,52
-21,-28,52
-21,-28,52
-21,-28,52
-21,-28,53
-21,-28,52
-21,-28,52
-21,-28,52
-21,-28,52
-21,-28,52
-21,-28,52
-21,-28,52
-21,-28,52
-21,-28,52
-21,-28,52
-21,-28,53
-21,-28,52
-21,-28,52
-21,-28,52
-21,-28,52
-21,-28,52
-21,-28,52
-21,-28,52
-21,-28,52
-21,-28,53
-21,-28,52
-21,-28,53
-21,-28,52
-22,-28,52
-21,-28,52
-21,-28,52
-21,-28,52
-21,-28,52
-21,-28,52
-21,-28,52
-21,-28,52
-21,-28,52
-21,-28,52
-21,-28,52
-21,-28,52
-21,-28,52
-21,-28,52
-21,-28,52
-21,-28,53
-21,-28,52
-21,-28,53
-21,-28,52
-21,-28,52
-21,-28,52
-21,-28,52
-21,-28,52
-21,-28,52
-21,-28,53
-21,-28,52
-21,-28,53
-21,-28,52
-21,-28,52
-21,-28,52
-21,-28,53
-21,-28,52
-21,-28,52
-21,-28,52
-21,-28,52
-21,-28,53
-21,-28,52
-21,-28,52
-21,-28,52
-21,-28,52
-21,-28,52
-21,-28,53
-21,-28,53
-21,-28,53
-21,-28,52
-21,-28,53
-21,-28,52
-22,-28,52
-21,-28,53
-21,-28,52
-22,-28,52
-20,-27,53
-20,-28,53
-21,-28,53
-21,-28,52
-21,-28,52
-21,-28,53
-21,-28,53
-21,-28,52
-21,-28,52
-21,-28,52
-21,-28,52
-21,-28,52
-21,-27,53
-20,-27,53
-21,-27,52
-21,-28,52
-21,-28,52
-21,-28,53
-22,-28,53
-22,-28,52
-22,-28,52
-21,-28,52
-21,-28,52
-21,-27,52
-20,-28,53
-21,-28,53
-21,-27,52
-21,-28,52
-21,-28,53
-22,-28,52
-21,-28,52
-21,-28,53
-21,-28,52
-21,-28,52
-21,-28,53
-21,-28,52
-21,-28,53
-22,-28,52
-21,-28,52
-21,-28,52
-21,-28,52
-21,-28,52
-21,-28,53
-21,-27,52
-21,-28,52
-21,-28,52
-20,-28,52
-22,-28,53
-22,-28,52
-21,-27,52
-21,-28,52
-21,-28,52
-21,-27,53
-21,-28,52
-21,-28,53
-21,-28,52
-21,-28,52
-21,-28,52
-21,-28,53
-21,-28,52
-21,-28,52
-21,-28,52
-21,-28,52
-21,-28,52
-21,-28,53
-21,-28,53
-21,-28,52
-22,-28,52
-21,-28,52
-21,-28,52
-21,-28,53
-21,-28,52
-21,-27,52
-21,-28,52
-21,-28,53
-21,-28,52
-21,-28,52
-21,-28,52
-21,-28,52
-21,-28,52
-21,-28,52
-21,-28,53
-21,-28,53
-21,-28,52
-21,-28,52
-21,-28,52
-21,-28,52
-21,-28,52
-21,-27,53
-21,-28,53
-21,-28,52
-21,-28,53
-21,-28,52
-21,-28,53
-21,-28,53
-21,-28,52
-21,-28,52
-21,-28,53
-21,-28,52
-21,-28,53
-21,-28,52
-21,-28,53
-21,-28,52
-20,-28,53
-21,-28,53
-21,-28,52
-21,-28,52
-20,-28,53
-21,-28,53
-21,-28,53
-21,-28,53
-21,-28,52
-21,-28,52
-21,-28,53
-21,-28,53
-21,-28,52
-21,-28,52
-21,-28,52
-21,-28,53
-21,-28,52
-21,-28,52
-21,-28,53
-21,-28,53
-21,-28,52
-21,-28,53
-21,-28,53
-21,-28,52
-21,-28,52
-21,-28,53
-21,-28,52
-21,-28,52
-21,-28,52
-21,-28,53
-21,-28,52
-21,-28,52
-21,-28,53
-21,-27,53
-21,-27,52
-22,-29,52
-22,-28,52
-21,-28,53
-21,-28,52
-21,-29,53
-21,-27,53
-21,-28,52
-21,-28,52
-21,-27,53
-20,-27,53
-21,-28,52
-21,-28,53
-21,-27,52
-23,-28,52
-22,-29,52
-21,-28,53
-21,-28,53
-22,-28,53
-22,-26,50
-11,-26,57
-26,-29,51
-22,-27,51
-17,-28,53
-19,-28,52
-22,-28,53
-25,-29,53
-23,-29,51
-18,-27,53
-20,-28,52
-22,-28,52
-21,-27,53
-21,-27,53
-21,-28,52
-21,-28,52
-21,-28,52
-21,-28,53
-21,-28,53
-21,-28,52
-21,-28,52
-20,-28,53
-20,-28,53
-21,-28,52
-21,-28,52
-21,-28,52
-21,-28,52
-21,-28,52
-21,-28,52
-21,-28,52
-21,-28,53
-21,-28,52
-21,-28,52
-21,-28,52
-21,-28,53
-21,-28,52
-21,-28,53
-21,-28,52
-21,-28,52
-21,-28,53
-21,-28,52
-21,-28,52
-21,-28,52
-21,-28,52
-21,-28,53
-21,-28,53
-21,-28,52
-21,-28,52
-21,-28,52
-21,-28,52
-21,-28,52
-21,-28,52
-21,-28,52
-21,-28,52
-20,-28,53
-21,-28,53
-21,-28,52
-21,-28,52
-21,-28,52
-21,-28,52
-21,-28,52
-21,-28,52
-21,-28,52
-21,-28,52
-21,-28,52
-21,-28,53
-21,-28,53
-21,-28,52
-21,-28,52
-21,-28,52
-21,-28,52
-21,-28,52
-21,-28,52
-21,-28,53
-21,-28,52
-21,-28,52
-21,-28,52
-21,-28,52
-21,-28,53
-21,-28,52
-21,-28,52
-21,-28,53
-21,-28,53
-21,-28,53
-21,-28,52
-21,-28,52
-21,-28,52
-21,-28,53
-21,-28,52
-21,-28,53
-21,-28,52
-21,-28,52
-21,-28,52
-21,-28,53
-21,-28,52
-21,-28,52
-21,-28,52
-21,-28,53
-21,-28,52
-21,-28,53
-21,-28,52
-21,-28,52
-21,-28,52
-21,-28,53
-21,-28,52
-21,-28,52
-21,-28,52
-21,-28,52
-21,-28,52
-21,-28,52
-21,-28,52
-21,-28,53
-21,-28,53
-22,-28,52
-21,-28,52
-21,-28,52
-21,-28,52
-21,-28,52
-21,-28,53
-21,-28,52
-21,-28,52
-21,-28,53
-21,-28,53
-21,-28,52
-21,-28,52
-21,-28,52
-21,-28,52
-21,-28,52
-21,-28,52
-21,-28,52
-21,-28,52
-21,-28,52
-21,-28,53
-21,-28,52
-21,-28,52
-21,-28,52
-21,-28,52
-21,-28,52
-21,-28,53
-21,-28,53
-21,-28,52
-21,-28,52
-21,-28,52
-21,-28,52
-21,-28,53
-21,-28,53
-21,-28,52
-21,-28,52
-21,-28,52
-21,-28,52
-21,-27,52
-22,-28,52
-21,-28,52
-21,-28,53
-21,-28,53
-21,-28,52
-21,-28,52
-21,-27,52
-21,-28,52
-21,-28,53
-21,-28,52
-21,-28,52
-21,-28,52
-21,-28,52
-21,-28,52
-21,-28,53
-21,-28,52
-21,-28,52
-21,-28,52
-21,-28,52
-21,-28,52
-21,-28,52
-21,-28,52
-21,-28,52
-21,-28,53
-21,-28,53
-21,-28,52
-21,-28,52
-21,-28,52
-21,-28,53
-21,-28,52
-21,-28,52
-21,-28,52
-21,-28,52
-21,-28,52
-21,-28,53
-21,-28,52
-21,-28,52
-21,-28,53
-21,-28,53
-21,-28,52
-21,-28,52
-21,-28,53
-21,-28,52
-21,-28,52
-21,-28,52
-21,-28,52
-21,-28,53
-21,-28,52
-21,-28,52
-21,-28,52
-21,-28,52
-21,-28,53
-21,-28,52
-21,-28,52
-21,-28,52
-21,-28,52
-21,-28,53
-21,-28,53
-21,-28,52
-22,-28,52
-21,-28,52
-21,-28,53
-21,-28,52
-21,-28,52
-21,-28,52
-21,-28,52
-21,-28,52
-21,-28,53
-21,-28,52
-21,-28,52
-21,-28,52
-21,-28,52
-21,-28,52
-21,-28,53
-21,-28,52
-21,-28,52
-21,-28,53
-21,-28,53
-21,-28,53
-21,-28,52
-21,-28,52
-21,-28,52
-21,-28,52
-21,-28,52
-21,-28,52
-21,-28,52
-21,-28,52
-21,-28,52
-21,-28,53
-21,-28,53
-21,-28,52
-21,-28,52
-20,-28,52
-21,-28,52
-21,-28,52
-21,-28,53
-21,-28,53
-21,-28,52
-21,-28,52
-21,-28,53
-21,-28,52
-21,-28,52
-21,-28,53
-21,-28,52
-21,-28,52
-21,-28,52
-21,-28,53
-21,-28,53
-21,-28,52
-21,-28,52
-21,-28,52
-20,-28,53
-20,-28,52
-21,-28,53
-21,-28,52
-21,-28,52
-21,-28,52
-21,-28,52
-21,-28,52
-21,-28,53
-20,-28,52
-21,-28,52
-21,-28,52
-21,-28,52
-21,-28,52
-21,-28,52
-21,-28,52
-21,-28,52
-21,-28,52
-21,-28,52
-21,-28,52
-21,-28,53
-21,-28,52
-21,-28,52
-21,-28,52
-22,-28,52
-22,-28,52
-21,-28,52
-21,-28,52
-21,-28,52
-21,-28,52
-21,-28,53
-21,-28,52
-21,-28,52
-21,-28,52
-21,-28,52
-21,-28,52
-21,-28,53
-21,-28,52
-21,-28,52
-21,-28,52
-21,-28,52
-21,-28,52
-21,-28,53
-21,-28,52
-21,-28,52
-21,-28,52
-21,-28,53
-22,-28,52
-21,-28,52
-21,-28,52
-21,-28,52
-21,-28,53
-21,-28,53
-21,-28,52
-21,-28,52
-21,-28,52
-21,-27,52
-21,-28,52
-21,-28,52
-21,-28,52
-21,-28,52
-21,-28,52
-21,-28,52
-21,-28,52
-22,-28,52
-21,-28,52
-21,-28,52
-21,-28,52
-21,-28,52
-21,-28,52
-21,-28,52
-21,-28,52
-21,-28,52
-21,-28,52
-21,-28,52
-22,-28,52
-21,-28,52
-21,-28,52
-21,-28,52
-21,-28,52
-21,-28,52
-22,-28,52
-21,-28,52
-21,-28,53
-21,-28,53
-21,-28,52
-21,-28,52
-21,-28,53
-21,-28,52
-21,-28,52
-22,-28,52
-21,-28,52
-21,-28,52
-21,-28,52
-21,-28,52
-21,-28,52
-21,-28,53
-21,-28,52
-21,-28,52
-21,-28,52
-21,-28,52
-21,-28,52
-21,-28,52
-21,-28,52
-21,-28,52
-21,-28,53
-21,-28,52
-22,-28,52
-21,-28,52
-21,-28,53
-21,-28,52
-21,-28,52
-21,-28,52
-21,-28,52
-21,-28,52
-21,-28,53
-21,-28,53
-21,-28,52
-21,-28,52
-21,-28,52
-21,-28,52
-21,-28,52
-21,-28,52
-21,-28,52
-21,-28,52
-21,-28,52
-21,-28,53
-21,-28,52
-21,-28,52
-21,-28,52
-21,-28,52
-21,-28,52
-21,-28,52
-21,-28,52
-21,-28,52
-21,-28,52
-21,-28,52
-21,-28,52
-21,-28,53
-21,-28,53
-22,-28,52
-21,-28,52
-21,-28,52
-21,-28,52
-21,-28,52
-21,-28,52
-21,-28,52
-21,-28,52
-21,-28,52
-21,-28,53
-22,-28,52
-21,-28,52
-21,-28,52
-21,-28,52
-21,-28,52
-21,-28,52
-21,-28,53
-22,-28,52
-21,-28,52
-20,-28,52
-21,-28,52
-22,-28,52
-21,-28,52
-21,-28,53
-21,-29,53
-22,-28,52
-22,-28,51
-21,-28,52
-21,-28,53
-21,-28,52
-21,-28,53
-21,-28,52
-21,-27,52
-21,-28,52
-22,-28,52
-21,-28,52
-21,-28,52
-21,-28,52
-21,-28,52
-21,-28,52
-21,-28,52
-21,-28,52
-21,-28,52
-21,-28,52
-21,-28,52
-21,-28,52
-22,-28,52
-21,-28,52
-21,-28,52
-21,-28,52
-21,-28,52
-21,-28,53
-21,-28,53
-21,-28,52
-21,-28,53
-21,-28,53
-21,-28,52
-21,-28,52
-21,-28,53
-21,-28,52
-21,-28,52
-22,-28,52
-21,-27,52
-21,-28,52
-21,-28,52
-21,-28,52
-21,-28,52
-21,-28,52
-20,-28,51
-21,-29,53
-22,-28,53
-22,-27,52
-20,-28,52
-21,-29,52
-22,-28,52
-21,-28,53
-21,-28,53
-21,-28,52
-21,-28,52
-21,-28,52
-21,-28,52
-21,-28,52
-22,-28,52
-21,-28,52
-21,-28,53
-21,-28,52
-21,-28,52
-21,-28,52
-21,-28,52
-21,-28,52
-21,-28,52
-21,-28,53
-21,-28,53
-22,-28,53
-21,-28,52
-21,-28,52
-21,-28,52
-21,-28,53
-21,-28,53
-21,-28,52
-21,-28,52
-21,-28,52
-21,-28,52
-21,-28,53
-21,-28,52
-21,-28,52
-21,-28,52
-21,-28,53
-21,-28,52
-21,-28,53
-21,-28,52
-21,-28,52
-21,-28,52
-21,-28,52
-21,-28,52
-21,-28,52
-21,-28,52
-21,-28,53
-21,-28,53
-22,-28,52
-22,-28,52
-21,-27,52
-21,-28,52
-21,-28,53
-21,-28,52
-21,-28,52
-21,-28,52
-21,-28,52
-22,-28,52
-21,-28,52
-21,-28,52
-21,-28,52
-21,-28,52
-21,-28,52
-21,-28,53
-21,-28,52
-21,-28,52
-21,-28,52
-21,-28,53
-21,-28,52
-21,-28,52
-21,-28,52
-21,-28,53
-21,-28,52
-21,-28,52
-21,-28,53
-21,-28,53
-21,-28,53
-21,-28,52
-22,-28,52
-21,-28,53
-22,-28,52
-23,-28,52
-21,-28,52
-20,-28,52
-20,-28,52
-21,-28,53
-22,-28,52
-22,-28,52
-21,-28,52
-21,-28,52
-21,-28,53
-21,-28,53
-21,-28,52
-21,-28,52
-21,-28,52
-21,-28,52
-21,-28,52
-21,-28,53
-21,-28,52
-22,-28,52
-21,-28,52
-21,-28,53
-21,-28,53
-22,-28,52
-20,-28,52
-21,-28,52
-22,-28,52
-21,-28,53
-21,-28,52
-21,-28,52
-21,-28,52
-21,-28,52
-21,-28,53
-21,-28,53
-21,-28,53
-21,-28,52
-21,-28,52
-21,-28,53
-21,-28,52
-21,-28,52
-21,-28,53
-21,-28,53
-21,-28,53
-21,-28,52
-21,-28,52
-21,-28,52
-21,-28,52
-21,-28,52
-21,-28,53
-21,-28,52
-21,-28,52
-21,-28,53
-21,-28,53
-21,-28,52
-21,-28,52
-21,-28,52
-21,-28,53
-21,-28,53
-21,-28,52
-21,-28,52
-21,-28,52
-21,-28,53
-21,-28,52
-21,-28,52
-21,-28,52
-21,-28,53
-21,-28,52
-21,-28,52
-21,-28,53
-21,-28,53
-21,-28,52
-21,-28,53
-21,-28,52
-21,-28,52
-21,-28,53
-21,-28,53
-22,-28,52
-21,-28,52
-21,-28,52
-21,-28,52
-21,-28,53
-21,-28,52
-21,-28,52
-21,-27,53
-21,-28,52
-22,-28,52
-21,-28,52
-21,-28,53
-21,-28,52
-21,-28,52
-21,-28,52
-21,-28,52
-21,-28,52
-21,-28,53
-21,-28,53
-21,-28,52
-21,-28,52
-21,-28,52
-21,-28,52
-21,-28,52
-21,-28,52
-21,-28,53
-21,-28,53
-22,-28,52
-22,-28,52
-21,-28,52
-21,-28,52
-21,-28,52
-21,-28,52
-21,-28,52
-21,-28,52
-21,-28,52
-21,-28,52
-21,-28,52
-21,-28,52
-21,-28,53
-21,-28,53
-22,-28,52
-21,-28,52
-21,-28,52
-21,-28,52
-21,-28,52
-21,-28,52
-21,-28,52
-21,-28,52
-21,-28,52
-21,-28,52
-21,-27,53
-21,-27,53
-22,-28,52
-21,-28,52
-21,-28,53
-21,-28,52
-22,-28,52
-21,-28,52
-21,-28,52
-21,-28,52
-21,-28,53
-21,-28,52
-21,-28,52
-21,-28,52
-21,-28,52
-22,-28,52
-22,-28,52
-21,-28,52
-21,-28,52
-21,-28,52
-21,-28,53
-21,-28,53
-21,-28,52
-21,-28,53
-21,-28,53
-21,-28,52
-21,-28,53
-21,-28,52
-22,-28,52
-21,-28,52
-21,-28,52
-21,-28,52
-21,-28,52
-21,-28,52
-21,-28,52
-21,-28,52
-21,-28,52
-21,-28,52
-21,-28,52
-21,-28,52
-21,-28,52
-21,-28,52
-22,-28,52
-21,-28,52
-21,-28,52
-21,-28,52
-21,-28,52
-21,-28,52
-21,-28,53
-21,-28,53
-21,-28,52
-21,-28,52
-21,-28,52
-21,-28,53
-21,-28,53
-21,-28,53
-22,-28,52
-22,-28,52
-21,-28,52
-21,-28,53
-21,-28,53
-21,-28,52
-21,-28,52
-21,-28,52
-21,-28,52
-21,-28,53
-21,-28,52
-21,-28,53
-21,-28,52
-21,-28,52
-21,-28,52
-21,-28,52
-21,-28,52
-21,-28,52
-21,-28,52
-21,-28,53
-21,-28,52
-21,-28,53
-21,-28,52
-21,-28,52
-21,-28,52
-21,-28,53
-21,-28,52
-21,-28,52
-21,-28,52
-21,-28,52
-21,-28,53
-21,-28,53
-22,-28,52
-21,-28,52
-21,-28,53
-21,-28,52
-21,-28,52
-21,-28,53
-21,-28,52
-21,-28,52
-21,-28,53
-21,-28,52
-21,-28,52
-21,-28,53
-21,-28,52
-21,-28,52
-21,-28,52
-21,-28,52
-21,-28,53
-21,-28,52
-21,-28,52
-21,-28,52
-21,-28,52
-21,-28,52
-21,-28,52
-21,-28,52
-21,-28,52
-21,-28,52
-21,-28,52
-21,-28,52
-21,-28,52
-21,-28,52
-21,-28,52
-21,-28,52
-21,-28,52
-21,-27,53
-21,-28,52
-21,-28,52
-20,-28,52
-21,-28,52
-21,-28,53
-21,-28,52
-21,-28,52
-21,-28,52
-21,-28,52
-21,-28,53
-21,-28,52
-21,-28,52
-21,-28,53
-21,-28,52
-21,-28,52
-21,-28,52
-21,-28,52
-21,-28,52
-21,-28,52
-21,-28,53
-21,-28,52
-21,-28,53
-21,-28,52
-21,-28,52
-21,-28,52
-21,-28,52
-21,-28,52
-21,-28,52
-21,-28,52
-21,-28,52
-21,-28,53
-21,-28,52
-21,-28,53
-21,-28,52
-22,-28,52
-21,-28,52
-21,-28,52
-22,-28,52
-22,-28,52
-21,-28,53
-21,-28,52
-21,-28,52
-21,-28,53
-21,-28,52
-21,-28,52
-21,-28,52
-21,-28,52
-21,-28,52
-21,-28,53
-21,-28,52
-21,-28,52
-21,-28,52
-21,-28,53
-21,-27,52
-21,-28,52
-21,-28,52
-21,-28,52
-21,-28,52
-21,-28,52
-21,-28,53
-21,-28,52
-21,-28,52
-21,-28,52
-21,-28,53
-21,-28,53
-21,-28,52
-22,-28,52
-21,-28,52
-21,-28,53
-21,-28,52
-21,-28,52
-21,-28,53
-22,-28,52
-21,-28,52
-21,-28,53
-21,-28,52
-21,-28,52
-21,-28,53
-21,-28,52
-21,-28,52
-21,-28,52
-21,-28,53
-21,-28,52
-21,-27,52
-21,-28,53
-21,-29,53
-21,-28,52
-21,-28,52
-21,-28,52
-21,-28,52
-21,-27,52
-21,-28,52
-21,-28,53
-21,-28,52
-21,-28,52
-21,-28,53
-21,-28,52
-22,-28,52
-21,-28,52
-21,-29,53
-21,-28,53
-21,-28,52
-21,-28,52
-21,-28,53
-22,-27,52
-21,-28,53
-21,-28,53
-21,-28,52
-21,-28,52
-21,-28,53
-21,-28,52
-22,-28,52
-21,-28,52
-21,-28,53
-21,-28,52
-21,-28,52
-21,-28,52
-21,-28,52
-21,-28,53
-21,-28,52
-21,-28,52
-21,-28,52
-21,-28,52
-21,-28,52
-21,-28,52
-21,-28,52
-21,-28,52
-21,-28,53
-21,-28,52
-21,-28,52
-21,-28,52
-21,-28,52
-21,-28,52
-21,-28,53
-21,-28,53
-22,-28,52
-21,-28,52
-21,-28,53
-21,-28,53
-21,-28,53
-21,-28,52
-21,-28,53
-21,-28,52
-21,-28,53
-21,-28,52
-21,-28,52
-21,-28,53
-21,-28,53
-21,-28,52
-21,-28,52
-21,-28,53
-21,-28,52
-21,-28,52
-21,-28,53
-21,-28,52
-21,-28,52
-21,-28,52
-21,-28,53
-21,-28,52
-20,-28,53
-21,-28,52
-21,-28,52
-21,-28,52
-21,-28,52
-21,-28,52
-21,-28,53
-21,-28,53
-21,-28,52
-21,-28,52
-21,-28,53
-21,-28,53
-21,-28,52
-21,-28,52
-21,-28,52
-21,-28,52
-21,-28,52
-21,-28,52
-21,-28,52
-21,-28,52
-21,-28,52
-21,-28,53
-21,-28,52
-21,-28,53
-21,-28,53
-21,-28,52
-21,-28,52
-21,-28,53
-21,-28,53
-21,-28,52
-21,-28,52
-21,-28,53
-21,-28,52
-21,-28,53
-22,-28,52
-21,-28,52
-21,-28,53
-21,-28,52
-21,-28,53
-21,-28,53
-21,-28,52
-21,-28,52
-21,-28,53
-21,-28,52
-21,-28,53
-21,-28,52
-21,-28,52
-21,-28,53
-21,-28,53
-21,-28,52
-21,-28,53
-21,-28,52
-21,-28,53
-21,-28,53
-21,-28,53
-21,-28,53
-21,-28,52
-21,-28,53
-21,-28,53
-21,-28,53
-21,-28,52
-21,-28,52
-21,-28,52
-21,-28,53
-20,-28,53
-21,-28,52
-21,-28,52
-21,-28,52
-21,-28,53
-21,-28,53
-21,-28,52
-21,-28,53
-21,-28,52
-21,-28,52
-21,-28,53
-21,-28,53
-21,-28,53
-20,-28,52
-21,-28,53
-21,-28,52
-21,-28,52
-21,-28,53
-21,-28,53
-21,-28,52
-21,-28,53
-21,-28,52
-21,-28,53
-21,-28,53
-21,-28,52
-21,-28,53
-21,-28,53
-21,-28,53
-21,-28,53
-21,-28,52
-21,-28,53
-21,-28,53
-21,-28,53
-20,-28,53
-21,-28,52
-21,-28,52
-20,-28,53
-21,-28,53
-21,-28,53
-21,-28,52
-21,-28,53
-21,-28,52
-21,-28,53
-21,-28,53
-21,-28,53
-21,-28,53
-21,-28,52
-21,-28,53
-21,-28,53
-21,-28,52
-21,-28,52
-21,-28,53
-21,-28,52
-21,-28,52
-21,-28,53
-21,-28,53
-21,-28,52
-21,-28,53
-21,-28,53
-21,-28,53
-21,-28,53
-21,-28,53
-21,-28,52
-21,-28,52
-21,-28,53
-21,-28,53
-21,-27,53
-22,-27,52
-22,-28,52
-21,-28,52
-21,-28,52
-21,-28,53
-20,-28,53
-20,-28,53
-21,-28,52
-21,-27,52
-21,-28,53
-21,-28,53
-21,-28,52
-20,-29,53
-21,-29,53
-21,-28,52
-21,-27,52
-21,-28,52
-20,-28,53
-21,-28,52
-21,-28,52
-21,-28,53
-20,-28,53
-21,-28,52
-21,-28,52
-21,-28,53
-21,-28,52
-21,-28,52
-21,-28,53
-21,-28,53
-20,-28,53
-21,-28,53
-21,-28,53
-21,-28,53
-21,-28,52
-21,-28,52
-20,-28,52
-21,-28,52
-21,-28,52
-21,-28,53
-21,-28,53
-21,-28,52
-21,-28,53
-21,-28,53
-21,-28,52
-21,-28,53
-21,-28,53
-21,-28,52
-21,-28,53
-21,-28,53
-21,-28,52
-21,-28,53
-21,-28,53
-21,-28,52
-21,-28,53
-21,-28,52
-21,-28,53
-21,-28,52
-21,-28,52
-21,-28,53
-21,-28,53
-21,-28,52
-21,-28,52
-21,-28,53
-21,-28,53
-20,-28,53
-21,-28,52
-21,-28,52
-20,-28,52
-21,-28,52
-21,-28,53
-21,-28,53
-21,-28,53
-21,-28,52
-20,-28,53
-20,-28,53
-21,-28,53
-21,-28,52
-21,-28,53
-21,-28,52
-21,-28,52
-21,-28,53
-21,-28,53
-21,-28,53
-21,-28,52
-20,-28,53
-21,-28,53
-21,-28,53
-21,-28,52
-21,-28,53
-21,-28,52
-21,-28,53
-21,-28,53
-21,-28,53
-21,-28,52
-21,-28,52
-21,-28,53
-20,-27,52
-20,-28,53
-21,-28,52
-21,-28,52
-20,-28,53
-20,-28,53
-21,-28,53
-21,-28,53
-21,-28,52
-21,-28,52
-21,-28,53
-21,-28,53
-21,-28,52
-20,-28,53
-21,-28,53
-21,-28,52
-21,-28,53
-21,-28,53
-21,-28,53
-20,-28,53
-20,-28,53
-21,-28,53
-21,-28,53
-21,-28,53
-21,-28,52
-21,-28,53
-20,-28,53
-21,-28,52
-21,-28,53
-21,-28,53
-20,-28,52
-21,-28,53
-21,-28,53
-20,-28,53
-21,-28,53
-21,-28,52
-20,-28,53
-20,-28,53
-21,-28,53
-21,-28,53
-21,-28,53
-21,-28,52
-20,-28,53
-20,-28,53
-21,-28,53
-21,-28,53
-20,-28,52
-21,-28,53
-21,-28,53
-21,-28,53
-20,-28,53
-21,-28,53
-21,-28,53
-21,-28,53
-21,-28,53
-21,-28,53
-21,-28,52
-21,-28,52
-21,-28,53
-21,-28,53
-21,-28,53
-21,-28,53
-21,-28,53
-21,-28,52
-21,-28,52
-21,-28,52
-20,-28,53
-20,-28,53
-21,-28,53
-21,-28,52
-20,-28,52
-21,-28,53
-21,-28,52
-21,-28,53
-21,-28,52
-21,-28,53
-21,-28,53
-21,-28,53
-21,-28,52
-20,-28,53
-21,-28,53
-21,-28,52
-21,-28,52
-21,-28,52
-21,-28,52
-21,-28,53
-21,-28,52
-21,-28,53
-21,-28,52
-21,-28,52
-21,-28,52
-21,-28,52
-21,-28,53
-21,-28,53
-21,-28,52
-21,-28,53
-21,-28,52
-21,-28,53
-21,-28,52
-21,-28,53
-21,-28,53
-21,-28,52
-21,-28,52
-20,-28,53
-21,-28,52
-21,-28,53
-21,-28,53
-21,-28,52
-21,-28,52
-20,-28,53
-21,-28,53
-21,-28,52
-20,-28,53
-21,-28,53
-21,-28,53
-21,-28,53
-21,-28,52
-21,-28,53
-21,-28,53
-21,-28,53
-21,-28,53
-21,-28,53
-21,-28,53
-21,-28,53
-21,-28,53
-21,-28,53
-21,-28,53
-21,-28,53
-21,-28,52
-21,-28,52
-21,-28,53
-21,-28,52
-21,-28,53
-20,-28,53
-20,-28,53
-21,-28,52
-20,-28,53
-20,-28,53
-21,-28,53
-20,-28,53
-20,-28,53
-21,-28,52
-21,-28,53
-20,-28,53
-21,-28,52
-21,-28,52
-20,-28,53
-20,-28,53
-21,-28,52
-21,-28,53
-20,-28,53
-21,-28,52
-21,-28,52
-20,-28,53
-21,-28,53
-21,-28,53
-21,-28,53
-21,-28,52
-21,-28,53
-21,-28,52
-21,-28,52
-21,-28,53
-21,-28,53
-21,-28,52
-21,-28,53
-21,-28,52
-21,-28,53
-21,-28,53
-20,-27,53
-21,-28,53
-21,-28,52
-21,-28,52
-21,-28,53
-21,-28,53
-21,-28,52
-21,-28,52
-21,-28,52
-20,-28,53
-21,-28,53
-21,-28,53
-20,-28,52
-20,-28,53
-21,-28,53
-21,-28,53
-21,-28,53
-21,-28,52
-20,-28,53
-20,-28,53
-21,-28,53
-21,-28,53
-21,-28,53
-21,-28,53
-21,-28,52
-21,-28,53
-21,-28,52
-21,-28,52
-21,-28,53
-21,-28,52
-21,-28,53
-21,-28,53
-21,-28,52
-20,-28,53
-20,-28,53
-21,-28,52
-21,-28,52
-21,-28,52
-21,-28,52
-21,-28,53
-21,-28,53
-21,-27,52
-21,-28,52
-20,-28,53
-20,-28,53
-21,-28,53
-21,-28,53
-21,-28,52
-21,-28,52
-21,-28,52
-22,-28,52
-21,-27,52
-21,-27,52
-20,-28,52
-21,-28,52
-21,-28,53
-21,-28,53
-21,-28,52
-21,-28,52
-21,-28,52
-22,-28,52
-21,-28,52
-20,-28,53
-21,-28,53
-21,-28,52
-22,-28,52
-21,-28,52
-21,-28,53
-22,-28,52
-22,-28,52
-20,-28,52
-21,-28,53
-21,-28,52
-21,-28,53
-21,-28,53
-22,-28,52
-21,-28,52
-21,-28,53
-21,-28,53
-21,-28,53
-21,-28,52
-21,-28,52
-21,-28,52
-21,-28,53
-21,-28,53
-21,-28,52
-21,-28,52
-21,-28,53
-21,-28,52
-21,-27,52
-21,-28,53
-22,-27,52
-20,-27,53
-21,-28,53
-21,-28,52
-20,-28,53
-20,-28,54
-20,-28,53
-20,-28,53
-20,-28,53
-21,-28,53
-22,-28,52
-22,-27,52
-22,-27,52
-22,-27,52
-22,-28,52
-21,-28,52
-21,-28,52
-21,-28,52
-20,-29,52
-21,-28,53
-21,-27,52
-21,-27,52
-22,-27,52
-21,-27,52
-21,-27,52
-21,-28,52
-22,-28,52
-21,-28,52
-21,-28,52
-21,-28,52
-21,-27,52
-22,-28,52
-21,-28,53
-21,-28,52
-21,-28,52
-21,-28,52
-21,-28,52
-21,-27,52
-22,-28,53
-22,-28,52
-21,-28,52
-21,-28,52
-21,-28,53
-22,-28,52
-21,-28,53
-21,-27,52
-21,-28,52
-21,-28,53
-21,-28,52
-21,-28,52
-21,-28,52
-21,-28,52
-21,-28,52
-22,-28,53
-21,-28,52
-21,-28,52
-21,-28,52
-21,-28,53
-21,-28,52
-22,-28,52
-21,-28,52
-21,-28,52
-21,-28,52
-21,-28,53
-21,-28,53
-21,-28,52
-22,-28,52
-23,-28,53
-21,-28,53
-21,-29,51
-21,-29,51
-22,-28,53
-22,-27,53
-21,-27,53
-20,-28,52
-20,-28,52
-21,-28,52
-22,-28,53
-21,-28,53
-21,-28,52
-22,-28,52
-21,-28,52
-21,-28,52
-21,-28,53
-21,-28,53
-21,-28,52
-21,-28,52
-21,-27,52
-21,-28,52
-21,-28,53
-21,-28,53
-22,-28,52
-21,-28,52
-21,-28,52
-21,-28,52
-20,-28,53
-21,-28,53
-22,-28,52
-20,-28,52
-21,-28,53
-21,-28,52
-21,-27,52
-21,-28,52
-21,-28,52
-21,-28,52
-21,-28,53
-21,-28,52
-21,-28,52
-21,-28,52
-21,-28,53
-21,-28,52
-21,-28,52
-21,-28,53
-21,-27,52
-21,-28,52
-21,-28,52
-21,-28,52
-21,-28,52
-21,-28,52
-21,-28,52
-21,-28,52
-21,-27,52
-21,-28,53
-21,-28,53
-21,-28,53
-21,-28,53
-21,-29,53
-23,-27,51
-20,-28,52
-20,-28,53
-23,-28,52
-22,-27,51
-21,-28,51
-20,-29,54
-20,-28,53
-23,-27,51
-22,-28,53
-22,-28,52
-21,-28,52
-22,-28,52
-22,-27,52
-21,-27,53
-20,-28,52
-20,-29,53
-21,-28,52
-21,-28,54
-21,-28,52
-21,-28,52
-20,-28,52
-21,-28,53
-21,-28,53
-21,-27,51
-21,-28,52
-21,-28,53
-21,-28,52
-21,-29,52
-22,-29,52
-21,-28,52
-21,-28,53
-20,-28,52
-20,-28,52
-21,-27,53
-22,-28,53
-21,-28,52
-21,-28,52
-22,-28,53
-22,-27,52
-21,-27,52
-20,-28,53
-20,-28,53
-20,-28,52
-21,-28,52
-21,-28,52
-21,-28,52
-22,-28,52
-22,-28,52
-22,-28,52
-22,-28,52
-21,-28,52
-21,-28,52
-21,-28,52
-21,-28,52
-21,-28,53
-21,-28,52
-21,-28,52
-21,-28,52
-21,-28,52
-21,-28,52
-21,-28,52
-21,-28,52
-21,-28,52
-21,-28,52
-21,-28,53
-21,-28,52
-22,-28,52
-20,-28,52
-21,-28,53
-22,-28,52
-21,-28,52
-21,-28,53
-22,-28,52
-21,-28,52
-21,-28,52
-21,-28,52
-21,-28,52
-21,-28,52
-21,-29,52
-22,-28,52
-21,-27,52
-21,-28,52
-21,-29,53
-21,-28,53
-22,-28,52
-21,-28,53
-21,-28,53
-22,-28,52
-21,-28,52
-21,-28,53
-21,-28,53
-21,-28,52
-21,-28,52
-21,-28,52
-21,-28,53
-21,-28,53
-22,-28,52
-21,-28,52
-21,-28,53
-21,-28,53
-21,-28,52
-21,-28,52
-21,-28,52
-21,-28,52
-21,-28,52
-22,-28,52
-21,-28,52
-21,-28,53
-22,-28,52
-21,-28,52
-21,-28,53
-21,-28,52
-22,-28,52
-21,-28,52
-21,-28,52
-21,-28,53
-21,-28,52
-21,-27,52
-21,-27,52
-21,-28,53
-21,-28,52
-21,-28,52
-21,-28,52
-21,-28,52
-21,-28,52
-21,-27,52
-22,-28,52
-21,-28,52
-20,-28,53
-21,-28,52
-22,-28,52
-21,-28,53
-21,-28,53
-22,-28,52
-21,-28,53
-21,-28,53
-21,-28,52
-21,-28,52
-20,-28,53
-21,-28,53
-22,-28,51
-21,-28,53
-21,-28,53
-21,-28,52
-22,-28,52
-21,-28,52
-20,-28,52
-21,-28,52
-21,-28,53
-21,-28,53
-21,-28,52
-21,-28,52
-21,-28,52
-21,-27,52
-21,-28,53
-21,-28,52
-20,-27,52
-21,-28,53
-21,-28,53
-21,-28,53
-21,-28,52
-21,-28,52
-21,-28,52
-21,-28,53
-21,-28,52
-21,-28,52
-21,-28,52
-21,-28,52
-21,-28,53
-21,-28,52
-21,-28,53
-21,-28,52
-21,-28,52
-21,-28,53
-22,-28,53
-21,-28,52
-21,-28,51
-21,-28,51
-21,-28,53
-21,-28,53
-21,-28,53
-21,-27,52
-21,-28,51
-21,-28,52
-20,-28,53
-21,-28,53
-22,-28,52
-21,-28,52
-21,-28,52
-21,-28,52
-21,-28,53
-21,-28,53
-21,-28,52
-21,-27,52
-21,-28,53
-21,-28,53
-21,-28,53
-21,-28,52
-21,-28,52
-21,-28,53
-21,-28,52
-21,-28,52
-21,-28,53
-21,-28,52
-21,-28,52
-21,-28,52
-22,-28,52
-21,-28,52
-21,-28,52
-21,-28,52
-21,-28,53
-21,-28,52
-21,-28,52
-21,-28,52
-21,-28,53
-21,-28,52
-21,-28,52
-21,-28,53
-21,-28,52
-21,-28,52
-21,-28,52
-21,-28,53
-21,-28,52
-21,-28,52
-21,-28,52
-21,-28,52
-21,-28,52
-21,-28,52
-21,-28,52
-21,-28,52
-21,-28,52
-21,-28,52
-21,-28,52
-21,-28,52
-21,-28,52
-21,-28,53
-21,-28,52
-21,-28,52
-21,-28,53
-21,-28,53
-21,-28,52
-20,-28,51
-21,-28,52
-22,-28,54
-21,-27,52
-21,-27,52
-21,-28,52
-21,-28,52
-21,-28,52
-21,-28,53
-22,-28,52
-22,-28,52
-20,-28,52
-20,-28,52
-21,-27,52
-21,-28,53
-21,-28,53
-21,-28,52
-21,-28,52
-21,-28,52
-21,-28,53
-21,-28,52
-21,-28,52
-20,-28,53
-20,-28,53
-21,-28,53
-21,-28,53
-21,-28,52
-20,-28,52
-21,-29,53
-21,-28,52
-21,-28,52
-22,-28,53
-22,-28,52
-21,-28,52
-21,-28,53
-22,-28,52
-21,-28,52
-21,-28,52
-21,-28,52
-21,-28,52
-21,-28,52
-21,-28,52
-21,-28,52
-21,-28,52
-21,-28,52
-21,-28,52
-21,-28,52
-21,-28,52
-21,-28,52
-21,-28,52
-21,-28,52
-21,-28,52
-22,-28,52
-21,-28,52
-21,-28,52
-22,-28,52
-21,-28,52
-21,-28,52
-21,-28,52
-21,-28,52
-21,-28,52
-21,-28,52
-21,-28,52
-21,-28,52
-22,-28,52
-21,-28,52
-21,-28,52
-21,-28,52
-21,-28,52
-22,-28,52
-21,-28,52
-21,-28,52
-21,-28,52
-21,-28,52
-21,-28,52
-21,-28,52
-21,-28,52
-21,-28,52
-21,-28,52
-21,-28,52
-21,-28,52
-21,-28,52
-21,-28,52
-21,-28,52
-21,-28,52
-21,-28,53
-21,-28,53
-21,-28,52
-21,-28,52
-21,-28,52
-21,-28,52
-21,-28,52
-21,-28,52
-21,-28,52
-21,-28,52
-21,-28,52
-21,-28,52
-21,-28,52
-21,-28,52
-21,-28,52
-21,-28,52
-21,-28,52
-21,-28,52
-21,-28,52
-21,-28,52
-21,-28,52
-21,-28,52
-21,-28,52
-21,-28,53
-21,-28,52
-21,-28,52
-21,-28,52
-21,-28,52
-21,-28,52
-21,-28,53
-21,-28,52
-21,-28,52
-21,-28,52
-21,-28,52
-21,-28,53
-21,-28,52
-22,-28,52
-21,-28,52
-21,-28,53
-21,-28,53
-21,-28,52
-21,-28,52
-21,-28,52
-21,-28,52
-21,-28,53
-21,-28,52
-21,-28,52
-21,-28,52
-21,-28,52
-21,-28,52
-21,-28,52
-21,-28,52
-21,-28,52
-21,-28,52
-21,-28,52
-21,-28,52
-21,-28,52
-21,-28,52
-21,-28,52
-21,-28,52
-21,-28,52
-21,-28,53
-21,-28,53
-21,-28,52
-21,-28,52
-21,-28,52
-21,-28,52
-21,-28,52
-20,-28,53
-20,-28,53
-22,-28,52
-21,-28,52
-20,-28,53
-21,-28,52
-21,-28,52
-21,-28,52
-21,-28,52
-21,-28,52
-21,-28,53
-21,-28,52
-21,-28,52
-21,-28,52
-21,-28,52
-21,-28,52
-21,-28,52
-21,-28,52
-21,-28,52
-21,-28,52
-21,-28,53
-21,-28,52
-21,-28,52
-21,-28,52
-21,-28,52
-21,-28,52
-21,-28,52
-21,-28,52
-21,-28,52
-21,-28,53
-21,-28,52
-21,-28,52
-21,-28,52
-21,-28,52
-21,-28,53
-21,-28,52
-22,-28,52
-21,-28,53
-21,-28,52
-21,-28,52
-21,-28,52
-21,-28,52
-21,-28,52
-21,-28,52
-21,-28,53
-21,-28,52
-21,-28,52
-21,-28,52
-21,-28,52
-21,-28,52
-21,-28,52
-21,-28,53
-21,-28,52
-21,-28,52
-21,-28,52
-21,-28,52
-21,-28,52
-21,-28,52
-21,-28,52
-21,-28,53
-21,-28,52
-21,-28,52
-21,-28,52
-21,-28,52
-21,-28,52
-21,-28,52
-21,-28,53
-21,-28,52
-21,-28,52
-21,-28,52
-21,-28,52
-21,-28,52
-21,-28,52
-21,-28,52
-21,-28,52
-21,-28,52
-21,-28,52
-21,-28,53
-21,-28,53
-21,-28,52
-21,-28,52
-21,-28,53
-21,-28,52
-21,-28,52
-21,-28,52
-21,-28,52
-21,-28,52
-21,-28,52
-21,-28,52
-21,-28,52
-21,-28,52
-21,-28,52
-21,-28,52
-21,-28,52
-21,-28,53
-21,-28,52
-21,-28,52
-21,-28,52
-21,-28,52
-21,-28,52
-20,-28,53
-21,-28,52
-21,-28,52
-20,-28,52
-21,-28,53
-21,-28,53
-21,-28,52
-21,-28,52
-21,-28,52
-21,-28,53
-21,-28,53
-21,-28,52
-20,-28,53
-21,-28,52
-21,-28,52
-21,-28,52
-21,-28,52
-21,-28,52
-21,-28,53
-21,-28,52
-21,-28,52
-21,-28,52
-21,-28,52
-21,-28,52
-21,-28,52
-21,-28,52
-21,-28,53
-21,-28,52
-21,-28,52
-21,-28,52
-21,-28,52
-21,-28,52
-21,-28,53
-20,-28,53
-21,-28,52
-21,-28,53
-21,-28,53
-21,-28,52
-21,-28,52
-21,-28,52
-21,-28,52
-21,-28,52
-21,-28,52
-21,-28,52
-21,-28,52
-21,-28,52
-21,-28,52
-21,-28,53
-21,-28,52
-21,-28,52
-21,-28,52
-21,-28,52
-21,-28,52
-21,-28,52
-21,-28,52
-21,-28,52
-21,-28,52
-21,-28,52
-21,-28,52
-21,-28,52
-21,-28,52
-21,-28,52
-21,-27,53
-21,-28,53
-22,-28,52
-21,-28,51
-21,-28,52
-21,-28,52
-21,-28,53
-21,-28,53
-21,-28,52
-21,-28,52
-21,-28,52
-21,-28,52
-22,-28,52
-22,-28,52
-21,-28,52
-21,-28,52
-21,-28,52
-21,-28,52
-21,-28,52
-21,-28,53
-21,-28,52
-21,-28,52
-22,-28,52
-21,-28,52
-21,-28,52
-21,-28,53
-21,-28,53
-21,-28,53
-21,-28,52
-21,-28,52
-21,-28,52
-21,-28,52
-21,-28,53
-22,-28,52
-21,-28,52
-21,-28,52
-21,-28,52
-21,-28,52
-21,-28,52
-21,-28,52
-21,-28,52
-20,-28,53
-21,-28,53
-21,-28,52
-21,-28,52
-21,-28,52
-21,-28,52
-21,-28,52
-21,-28,52
-21,-28,52
-21,-28,52
-21,-28,52
-21,-28,52
-21,-28,52
-21,-28,52
-21,-28,52
-21,-28,52
-21,-28,52
-21,-28,53
-21,-28,52
-21,-28,52
-21,-28,52
-21,-28,52
-21,-28,52
-21,-28,53
-21,-28,52
-21,-28,52
-21,-28,52
-21,-28,53
-21,-28,52
-21,-28,53
-21,-28,53
-21,-28,52
-21,-28,52
-21,-28,52
-21,-28,52
-21,-28,52
-21,-28,52
-21,-28,52
-21,-28,52
-21,-28,52
-21,-28,52
-21,-28,52
-21,-28,52
-21,-28,52
-21,-28,52
-21,-28,52
-21,-28,53
-21,-28,52
-21,-28,52
-21,-28,52
-21,-28,52
-21,-28,53
-21,-28,52
-21,-28,52
-21,-28,52
-21,-28,52
-21,-28,53
-21,-28,52
-21,-28,52
-21,-28,52
-21,-28,53
-21,-28,53
-21,-28,52
-21,-28,52
-21,-28,52
-21,-28,53
-21,-28,53
-21,-28,52
-21,-28,52
-21,-28,52
-21,-28,52
-21,-28,52
-21,-28,53
-21,-28,52
-21,-28,52
-21,-28,52
-21,-28,52
-21,-28,53
-21,-28,52
-21,-28,52
-21,-28,52
-21,-28,52
-21,-28,53
-21,-28,53
-21,-28,52
-21,-28,52
-21,-28,52
-21,-28,52
-21,-28,53
-20,-28,53
-21,-28,52
-21,-28,52
-21,-28,52
-21,-28,52
-21,-28,52
-21,-28,52
-21,-28,52
-21,-28,52
-21,-28,52
-21,-28,52
-21,-28,52
-21,-28,52
-21,-28,52
-22,-28,52
-21,-28,52
-21,-28,52
-21,-28,52
-21,-28,52
-21,-28,52
-21,-28,52
-21,-28,52
-21,-28,52
-21,-28,52
-21,-28,52
-21,-28,53
-21,-28,52
-21,-28,52
-21,-28,52
-22,-28,52
-22,-28,52
-21,-28,53
-21,-28,52
-22,-28,52
-21,-28,52
-21,-29,53
-21,-28,53
-22,-28,52
-21,-28,52
-21,-28,52
-21,-28,52
-21,-28,52
-21,-28,52
-21,-28,52
-21,-28,52
-21,-28,52
-21,-27,52
-21,-28,52
-21,-28,52
-21,-28,52
-21,-28,52
-21,-28,52
-21,-28,53
-21,-28,53
-21,-28,51
-21,-28,52
-21,-28,53
-21,-28,53
-21,-28,52
-21,-28,52
-21,-28,52
-21,-28,52
-21,-28,53
-21,-28,53
-21,-28,52
-21,-28,52
-21,-28,52
-22,-28,52
-22,-28,52
-21,-28,53
-21,-28,52
-21,-28,52
-21,-28,53
-21,-28,52
-21,-28,52
-21,-28,52
-21,-28,52
-21,-28,52
-21,-28,52
-21,-28,52
-21,-28,52
-20,-28,52
-22,-28,53
-22,-28,52
-20,-28,52
-21,-28,53
-21,-28,53
-21,-27,52
-21,-28,52
-21,-28,52
-21,-28,53
-21,-28,53
-21,-28,52
-20,-28,53
-21,-28,52
-22,-28,52
-21,-28,52
-21,-28,52
-21,-28,52
-21,-28,52
-21,-28,52
-21,-28,52
-21,-28,52
-21,-28,52
-21,-28,53
-21,-28,52
-21,-28,52
-21,-28,52
-21,-28,53
-21,-28,53
-21,-28,52
-21,-28,52
-21,-28,52
-21,-28,52
-21,-28,52
-21,-28,52
-21,-28,52
-21,-28,52
-21,-28,52
-21,-28,52
-21,-28,52
-21,-28,52
-21,-28,52
-21,-28,52
-21,-28,52
-21,-28,53
-21,-28,52
-21,-28,52
-21,-28,52
-21,-28,52
-21,-28,52
-21,-28,52
-21,-28,52
-21,-28,52
-21,-28,53
-21,-28,52
-21,-28,52
-21,-28,53
-21,-28,52
-21,-28,52
-21,-28,52
-21,-28,52
-21,-28,53
-21,-28,53
-21,-28,52
-21,-28,52
-21,-28,52
-21,-28,52
-21,-28,52
-21,-28,52
-21,-28,52
-21,-28,52
-21,-28,52
-21,-28,52
-21,-28,53
-20,-28,53
-21,-28,52
-21,-28,52
-21,-28,53
-20,-28,53
-21,-28,52
-21,-28,52
-21,-28,52
-21,-28,52
-21,-28,53
-21,-28,53
-21,-28,52
-21,-28,52
-21,-28,52
-21,-28,52
-21,-28,52
-21,-28,52
-21,-28,53
-21,-28,52
-21,-28,52
-21,-28,52
-21,-28,52
-21,-28,52
-21,-28,52
-21,-28,52
-21,-28,53
-21,-28,52
-21,-28,52
-21,-28,52
-21,-28,53
-21,-28,52
-21,-28,53
-21,-28,52
-21,-28,52
-21,-28,52
-21,-28,53
-21,-28,52
-21,-28,52
-21,-28,52
-21,-28,52
-21,-28,52
-21,-28,52
-21,-28,52
-21,-28,52
-21,-28,53
-21,-28,52
-21,-28,52
-21,-28,52
-21,-28,52
-21,-28,52
-21,-28,53
-21,-28,53
-21,-28,52
-21,-28,52
-21,-28,52
-21,-28,52
-21,-28,52
-21,-28,52
-21,-28,52
-21,-28,52
-21,-28,52
-21,-28,52
-21,-28,52
-21,-28,52
-21,-28,52
-21,-28,52
-21,-28,52
-21,-28,53
-21,-28,52
-21,-28,53
-21,-28,52
-21,-28,52
-21,-28,52
-21,-28,52
-21,-28,52
-20,-28,52
-21,-28,52
-21,-28,52
-21,-28,53
-21,-28,52
-21,-28,52
-21,-28,52
-21,-28,52
-21,-28,52
-21,-28,52
-21,-28,52
-21,-28,52
-21,-28,52
-20,-28,52
-21,-28,52
-21,-28,52
-21,-28,52
-20,-28,53
-21,-28,52
-21,-28,52
-20,-28,53
-21,-28,52
-21,-28,52
-21,-28,52
-21,-28,52
-21,-28,52
-21,-28,52
-21,-28,53
-21,-28,52
-21,-28,52
-20,-28,53
-21,-28,52
-21,-28,52
-21,-28,52
-21,-28,52
-21,-28,52
-21,-28,52
-21,-28,53
-21,-28,52
-21,-28,52
-21,-28,52
-21,-28,52
-21,-28,52
-21,-28,52
-21,-28,52
-21,-28,52
-21,-28,53
-21,-28,52
-21,-28,52
-21,-28,52
-21,-28,52
-21,-28,53
-21,-28,52
-20,-28,52
-22,-28,52
-21,-28,52
-20,-28,52
-21,-28,53
-21,-28,53
-21,-28,52
-21,-28,52
-21,-28,52
-21,-28,52
-21,-28,53
-21,-28,52
-21,-28,52
-21,-28,52
-21,-28,53
-21,-28,52
-21,-28,52
-21,-28,53
-21,-28,52
-21,-28,52
-21,-28,53
-21,-28,52
-21,-28,52
-21,-28,52
-21,-28,52
-21,-28,52
-21,-28,52
-21,-28,53
-21,-28,52
-21,-28,52
-21,-28,53
-21,-28,53
-21,-28,52
-21,-28,53
-21,-28,52
-21,-28,52
-21,-28,52
-21,-28,52
-21,-28,53
-21,-28,53
-21,-28,52
-21,-28,52
-21,-28,52
-21,-28,52
-21,-28,52
-21,-28,52
-21,-28,52
-21,-28,52
-21,-28,52
-22,-28,52
-21,-28,52
-20,-28,53
-21,-28,52
-21,-28,52
-21,-28,53
-21,-28,53
-20,-28,52
-21,-28,53
-21,-28,52
-22,-28,53
-22,-28,53
-21,-28,52
-21,-28,52
-20,-28,53
-21,-28,52
-20,-28,53
-21,-28,52
-21,-28,52
-21,-28,52
-21,-28,53
-21,-28,52
-21,-28,52
-21,-28,52
-21,-28,52
-21,-28,52
-21,-28,53
-21,-28,52
-20,-28,52
-21,-28,53
-21,-28,53
-21,-28,52
-21,-28,52
-21,-28,52
-21,-28,52
-20,-28,53
-20,-28,53
-21,-28,53
-20,-28,53
-20,-28,53
-21,-28,52
-21,-27,52
-21,-28,53
-21,-28,52
-21,-28,52
-21,-28,52
-21,-28,53
-21,-27,54
-21,-27,53
-20,-27,52
-20,-28,52
-21,-28,52
-22,-28,52
-22,-28,53
-22,-28,52
-21,-28,52
-21,-28,52
-21,-28,53
-20,-28,53
-21,-28,53
-21,-28,52
-20,-28,52
-21,-28,52
-22,-28,52
-21,-28,52
-21,-28,52
-21,-28,52
-21,-28,52
-20,-28,52
-21,-28,52
-21,-28,52
-21,-28,52
-21,-28,52
-21,-28,52
-21,-28,53
-21,-28,52
-21,-28,52
-21,-28,52
-21,-28,52
-21,-28,52
-21,-28,52
-21,-28,52
-21,-28,52
-21,-28,52
-21,-28,52
-21,-28,52
-21,-28,52
-21,-28,52
-21,-28,52
-21,-28,52
-21,-28,52
-21,-28,52
-21,-28,52
-21,-28,52
-21,-28,53
-21,-28,53
-21,-28,52
-21,-28,53
-21,-28,52
-21,-28,52
-21,-28,53
-21,-28,53
-21,-28,52
-21,-28,53
-21,-28,52
-21,-28,52
-21,-28,53
-21,-28,53
-21,-28,52
-21,-28,52
-21,-28,52
-21,-28,53
-21,-28,53
-21,-28,52
-21,-28,52
-21,-28,52
-21,-28,52
-21,-28,52
-21,-28,52
-21,-28,52
-21,-28,53
-21,-28,53
-21,-28,52
-21,-28,52
-21,-28,52
-21,-28,52
-21,-28,52
-21,-28,52
-21,-28,53
-21,-28,52
-21,-28,52
-21,-28,52
-21,-28,52
-21,-28,52
-21,-28,52
-21,-28,52
-21,-28,52
-21,-28,52
-21,-28,52
-21,-28,53
-21,-28,52
-21,-28,52
-21,-28,53
-21,-28,52
-21,-28,52
-21,-28,52
-21,-28,52
-21,-28,52
-21,-28,52
-21,-28,52
-21,-28,53
-21,-28,52
-21,-28,52
-21,-28,52
-21,-28,52
-21,-28,52
-21,-28,53
-21,-28,52
-21,-28,52
-21,-28,52
-21,-28,52
-21,-28,52
-21,-28,52
-21,-28,52
-21,-28,52
-21,-28,52
-21,-28,52
-21,-28,52
-21,-28,52
-21,-28,53
-21,-28,52
-21,-28,52
-21,-28,52
-21,-28,52
-21,-28,52
-21,-28,52
-21,-28,52
-21,-28,52
-21,-28,52
-21,-28,52
-21,-28,52
-21,-28,52
-21,-28,52
-21,-28,52
-21,-28,52
-21,-28,52
-21,-28,52
-21,-28,52
-21,-28,52
-21,-28,52
-21,-28,52
-21,-28,52
-21,-28,52
-21,-28,52
-21,-28,52
-21,-28,52
-21,-28,52
-21,-28,52
-21,-28,52
-21,-28,52
-21,-28,53
-21,-28,52
-21,-28,52
-21,-28,52
-21,-28,52
-21,-28,52
-21,-28,52
-21,-28,52
-21,-28,53
-21,-28,52
-21,-28,52
-21,-28,52
-21,-28,52
-21,-28,52
-21,-28,52
-21,-28,52
-21,-28,52
-21,-28,52
-21,-28,52
-21,-28,52
-21,-28,52
-21,-28,52
-21,-28,52
-21,-28,52
-21,-28,52
-21,-28,52
-21,-28,52
-21,-28,52
-21,-28,52
-21,-28,52
-21,-28,52
-21,-28,52
-21,-28,52
-21,-28,53
-21,-28,52
-21,-28,52
-21,-28,52
-21,-28,52
-21,-28,52
-21,-28,52
-21,-28,52
-21,-28,52
-21,-28,52
-21,-28,52
-21,-28,53
-21,-28,52
-21,-28,52
-21,-28,52
-21,-28,52
-21,-28,52
-21,-28,52
-21,-28,52
-21,-28,52
-21,-28,53
-21,-28,53
-21,-28,52
-20,-28,53
-21,-28,52
-21,-28,52
-20,-28,53
-21,-28,53
-21,-28,52
-21,-28,52
-21,-28,52
-21,-28,52
-21,-28,53
-21,-28,52
-21,-28,52
-21,-28,52
-21,-28,53
-21,-28,52
-21,-28,52
-21,-28,52
-21,-28,52
-21,-28,52
-21,-28,52
-21,-28,52
-21,-28,52
-21,-28,52
-21,-28,52
-21,-28,53
-21,-28,52
-21,-28,52
-21,-28,52
-21,-28,52
-21,-28,53
-21,-28,52
-21,-28,53
-21,-28,52
-21,-28,52
-21,-28,52
-21,-28,53
-21,-28,52
-21,-28,52
-21,-28,52
-21,-28,52
-20,-28,52
-21,-28,53
-21,-28,52
-21,-28,52
-21,-28,52
-21,-28,52
-21,-28,53
-21,-28,53
-21,-28,52
-21,-28,52
-21,-28,52
-21,-28,53
-21,-28,52
-21,-28,52
-21,-28,52
-21,-28,52
-21,-28,52
-21,-28,52
-21,-28,53
-21,-28,52
-21,-28,52
-21,-28,52
-20,-28,53
-20,-28,52
-22,-28,52
-21,-28,52
-20,-28,52
-21,-28,52
-21,-28,52
-21,-28,52
-21,-28,52
-21,-28,52
-20,-28,53
-21,-28,52
-21,-28,52
-21,-28,52
-21,-28,52
-21,-28,52
-21,-28,52
-21,-28,52
-21,-28,52
-21,-28,52
-21,-28,53
-21,-28,53
-21,-28,52
-21,-28,52
-21,-28,52
-21,-28,52
-21,-28,53
-21,-28,53
-21,-28,52
-21,-28,52
-20,-28,52
-21,-28,52
-21,-28,53
-21,-28,53
-22,-28,52
-21,-28,52
-20,-28,52
-21,-28,52
-21,-28,52
-21,-28,52
-21,-28,52
-21,-28,53
-20,-28,53
-21,-28,52
-21,-28,52
-21,-29,52
-21,-28,52
-21,-28,52
-21,-28,52
-21,-28,52
-21,-28,53
-21,-28,52
-21,-28,52
-21,-28,52
-21,-28,52
-21,-28,52
-21,-28,52
-21,-28,52
-21,-28,52
-21,-28,52
-21,-28,52
-21,-28,52
-21,-28,52
-21,-28,52
-21,-28,53
-21,-28,52
-21,-28,52
-21,-28,52
-21,-28,52
-21,-28,52
-21,-28,52
-21,-28,52
-21,-28,52
-21,-28,53
-21,-28,53
-21,-28,52
-21,-28,53
-21,-28,52
-21,-28,52
-21,-28,52
-21,-28,52
-21,-28,52
-21,-28,53
-21,-28,53
-21,-28,52
-21,-28,52
-21,-28,52
-21,-28,52
-21,-28,52
-21,-28,52
-21,-28,53
-21,-28,53
-21,-28,52
-21,-28,52
-21,-28,52
-21,-28,52
-21,-28,53
-22,-28,52
-21,-28,52
-20,-28,52
-21,-28,52
-21,-28,52
-21,-28,53
-21,-28,52
-21,-28,52
-21,-28,53
-21,-28,52
-21,-28,52
-21,-28,52
-21,-28,52
-21,-28,52
-21,-28,52
-21,-28,52
-21,-28,53
-21,-28,52
-21,-28,52
-21,-28,52
-21,-28,53
-21,-28,52
-21,-28,52
-21,-28,52
-21,-28,53
-21,-28,52
-21,-28,53
-21,-28,52
-21,-28,52
-21,-28,53
-21,-28,53
-21,-28,53
-21,-28,52
-22,-28,52
-21,-28,52
-21,-28,52
-21,-28,52
-21,-28,53
-21,-28,52
-21,-28,52
-21,-28,52
-21,-28,53
-21,-28,52
-21,-28,52
-21,-28,52
-21,-28,52
-21,-28,52
-21,-28,52
-21,-28,52
-21,-28,52
-21,-28,52
-21,-28,52
-21,-28,52
-21,-28,52
-21,-28,52
-21,-28,52
-21,-28,52
-21,-28,52
-21,-28,52
-21,-28,52
-21,-28,52
-21,-28,53
-21,-28,52
-21,-28,52
-21,-28,52
-21,-28,52
-21,-28,52
-21,-28,52
-21,-28,52
-21,-28,52
-21,-28,52
-21,-28,52
-21,-28,52
-21,-28,52
-21,-28,52
-21,-28,52
-21,-28,52
-21,-28,52
-21,-28,52
-21,-28,52
-21,-28,52
-21,-28,52
-21,-28,52
-21,-28,52
-21,-28,53
-21,-28,52
-21,-28,52
-21,-28,52
-21,-28,52
-21,-28,53
-21,-28,52
-21,-28,52
-21,-28,52
-21,-28,52
-21,-28,52
-21,-28,52
-20,-28,53
-21,-28,52
-21,-28,52
-20,-28,52
-21,-28,53
-21,-28,52
-21,-28,52
-21,-28,52
-21,-28,52
-21,-28,53
-21,-28,53
-21,-28,52
-21,-28,52
-21,-28,52
-21,-28,52
-21,-28,52
-21,-28,52
-21,-28,52
-20,-28,53
-21,-28,53
-21,-28,53
-21,-28,53
-21,-28,52
-21,-28,53
-21,-28,52
-21,-28,53
-21,-28,52
-21,-28,52
-21,-28,52
-21,-28,52
-21,-28,53
-21,-28,52
-21,-28,53
-21,-28,53
-21,-28,52
-21,-28,52
-20,-28,52
-21,-28,53
-21,-28,52
-21,-28,52
-21,-28,52
-21,-28,52
-21,-28,53
-21,-28,53
-21,-28,52
-21,-28,52
-21,-28,52
-21,-28,52
-21,-28,53
-21,-28,52
-21,-28,52
-20,-28,52
-21,-28,52
-21,-28,53
-21,-28,52
-21,-28,53
-21,-28,52
-21,-28,52
-21,-28,53
-21,-28,52
-21,-28,52
-21,-28,52
-21,-28,52
-21,-28,52
-21,-28,53
-21,-28,52
-21,-28,52
-21,-28,52
-20,-28,52
-21,-28,53
-21,-28,52
-21,-28,53
-21,-28,52
-21,-28,52
-20,-28,53
-21,-28,53
-21,-28,52
-21,-28,53
-21,-28,52
-21,-28,52
-21,-28,52
-21,-28,52
-21,-28,52
-21,-28,52
-21,-28,52
-21,-28,53
-21,-28,52
-21,-28,52
-21,-28,53
-21,-28,52
-21,-28,52
-20,-28,52
-21,-28,52
-21,-28,52
-20,-28,53
-21,-28,52
-21,-28,52
-20,-28,52
-21,-28,52
-21,-28,52
-21,-28,52
-20,-28,53
-21,-28,53
-21,-28,53
-21,-28,52
-21,-28,52
-21,-28,52
-21,-28,53
-21,-28,53
-21,-28,52
-20,-28,52
-21,-28,52
-21,-28,52
-21,-28,52
-21,-28,53
-21,-28,52
-21,-28,52
-21,-28,52
-21,-28,52
-21,-28,52
-21,-28,52
-21,-28,52
-21,-28,53
-21,-28,52
-21,-28,53
-21,-28,53
-21,-28,52
-21,-28,52
-21,-28,52
-21,-28,52
-20,-28,53
-21,-28,53
-21,-28,52
-20,-28,52
-20,-28,52
-21,-28,53
-21,-28,52
-21,-28,53
-21,-28,52
-21,-28,52
-20,-28,53
-21,-28,53
-21,-28,52
-21,-28,52
-20,-28,52
-21,-28,52
-21,-28,53
-21,-28,53
-21,-28,52
-21,-28,52
-21,-28,53
-21,-28,53
-21,-28,52
-21,-28,52
-21,-28,52
-21,-28,52
-21,-28,53
-21,-28,52
-21,-28,53
-21,-28,53
-21,-28,52
-21,-28,52
-21,-28,53
-21,-28,52
-20,-28,53
-21,-28,53
-21,-28,52
-21,-28,52
-21,-28,52
-21,-28,52
-21,-28,53
-21,-28,52
-21,-28,52
-21,-28,52
-21,-28,53
-21,-28,53
-20,-28,53
-21,-28,52
-21,-28,52
-21,-28,52
-21,-28,53
-21,-28,52
-21,-28,52
-21,-28,52
-21,-28,53
-21,-28,52
-21,-28,52
-21,-28,53
-21,-28,52
-21,-28,52
-21,-28,52
-21,-28,52
-21,-28,52
-21,-28,52
-21,-28,52
-21,-28,52
-20,-28,53
-21,-28,52
-21,-28,52
-21,-28,52
-20,-28,52
-21,-28,52
-21,-28,52
-21,-28,52
-21,-28,52
-21,-28,52
-20,-28,53
-21,-28,52
-21,-28,52
-20,-28,52
-21,-28,52
-21,-28,52
-21,-28,53
-21,-28,52
-21,-28,52
-21,-28,52
-21,-28,53
-21,-28,53
-21,-28,53
-21,-28,53
-20,-28,52
-21,-28,52
-21,-28,52
-21,-28,52
-21,-28,52
-20,-28,52
-21,-28,52
-21,-28,52
-21,-28,52
-20,-28,53
-21,-28,52
-21,-28,52
-20,-28,52
-20,-28,53
-21,-28,52
-21,-28,52
-21,-28,53
-21,-28,52
-21,-28,52
-21,-28,53
-21,-28,52
-21,-28,52
-20,-28,52
-21,-28,53
-21,-28,52
-21,-28,53
-21,-28,52
-21,-28,52
-21,-28,53
-21,-28,53
-21,-28,52
-21,-28,52
-21,-28,53
-21,-28,53
-21,-28,53
-20,-28,53
-21,-28,52
-21,-28,52
-21,-28,52
-21,-28,52
-21,-28,53
-21,-28,52
-21,-28,53
-21,-28,52
-21,-28,52
-21,-28,53
-21,-28,53
-21,-28,52
-21,-28,53
-21,-28,52
-21,-28,52
-21,-28,53
-21,-28,52
-21,-28,52
-20,-28,53
-21,-28,52
-21,-28,52
-21,-28,52
-21,-28,52
-21,-28,53
-21,-28,52
-21,-28,53
-21,-28,52
-21,-28,52
-21,-28,52
-21,-28,52
-21,-28,52
-21,-28,53
-21,-28,53
-21,-28,52
-21,-28,52
-21,-28,52
-21,-28,52
-21,-28,53
-20,-28,52
-22,-28,52
-21,-28,52
-20,-28,53
-21,-28,52
-21,-28,52
-20,-28,53
-21,-28,52
-21,-28,52
-20,-28,53
-21,-28,52
-21,-28,52
-20,-28,53
-21,-28,52
-21,-28,53
-21,-28,52
-21,-28,52
-21,-28,52
-21,-28,52
-21,-28,52
-21,-28,53
-21,-28,53
-21,-28,52
-21,-28,52
-21,-28,53
-21,-28,53
-21,-28,52
-21,-28,52
-21,-28,52
-21,-28,52
-21,-28,52
-20,-28,53
-21,-28,53
-21,-28,52
-20,-28,52
-20,-28,53
-21,-28,53
-21,-28,52
-21,-28,53
-21,-28,52
-21,-28,52
-21,-28,52
-21,-28,53
-21,-28,52
-20,-28,52
-21,-28,52
-21,-28,52
-21,-28,53
-21,-28,52
-21,-28,52
-21,-28,52
-21,-28,52
-21,-28,53
-21,-28,52
-21,-28,53
-21,-28,53
-21,-28,52
-21,-28,52
-21,-28,52
-21,-28,53
-21,-28,52
-21,-28,52
-21,-28,52
-21,-28,52
-21,-28,52
-20,-28,53
-21,-28,52
-21,-28,52
-21,-28,52
-21,-28,52
-21,-28,52
-21,-28,53
-21,-28,52
-21,-28,52
-21,-28,53
-21,-28,52
-21,-28,52
-20,-28,53
-21,-28,52
-21,-28,52
-21,-28,53
-21,-28,52
-21,-28,52
-21,-28,52
-20,-28,52
-21,-28,52
-21,-28,53
-21,-28,52
-21,-28,52
-21,-28,53
-21,-28,53
-21,-28,53
-21,-28,52
-21,-28,52
-21,-28,53
-21,-28,52
-20,-28,52
-21,-28,53
-21,-28,52
-21,-28,52
-20,-28,53
-21,-28,53
-21,-28,53
-21,-28,52
-21,-28,52
-21,-28,52
-21,-28,53
-21,-28,52
-21,-28,52
-21,-28,53
-21,-28,53
-21,-28,52
-21,-28,52
-21,-28,52
-21,-28,52
-21,-28,53
-21,-28,52
-20,-28,52
-21,-28,52
-21,-28,53
-21,-28,52
-21,-28,52
-21,-28,52
-21,-28,53
-21,-28,52
-21,-28,52
-21,-28,52
-21,-28,52
-21,-28,53
-20,-28,53
-21,-28,53
-21,-28,52
-21,-28,52
-20,-28,53
-21,-28,52
-21,-28,53
-20,-28,53
-21,-28,52
-21,-28,52
-20,-28,53
-21,-28,52
-21,-28,52
-20,-28,52
-21,-28,53
-21,-28,53
-21,-28,52
-21,-28,52
-20,-28,52
-21,-28,53
-21,-28,52
-21,-28,52
-21,-28,52
-21,-28,52
-21,-28,53
-21,-28,53
-21,-28,53
-21,-28,52
-21,-28,52
-21,-28,52
-21,-28,52
-21,-28,52
-21,-28,52
-20,-28,53
-21,-28,52
-21,-28,52
-20,-28,53
-21,-28,53
-21,-28,53
-21,-28,52
-21,-28,52
-21,-28,52
-21,-28,52
-21,-28,52
-21,-28,53
-20,-28,52
-21,-28,52
-21,-28,52
-21,-28,52
-21,-28,52
-21,-28,52
-21,-28,53
-20,-28,53
-21,-28,53
-21,-28,53
-21,-28,52
-21,-28,52
-21,-28,52
-21,-28,53
-21,-28,52
-21,-28,52
-21,-28,53
-21,-28,52
-21,-28,53
-20,-28,53
-21,-28,52
-21,-28,52
-20,-28,53
-21,-28,53
-21,-28,52
-21,-28,53
-20,-28,52
-21,-28,53
-21,-28,53
-21,-28,53
-21,-28,52
-20,-28,52
-21,-28,52
-21,-28,53
-21,-28,53
-21,-28,52
-21,-28,52
-20,-28,52
-20,-28,53
-21,-28,53
-21,-28,53
-21,-28,52
-21,-28,52
-21,-28,52
-21,-28,53
-21,-28,53
-21,-28,52
-20,-28,52
-21,-28,52
-21,-28,52
-20,-28,53
-21,-28,53
-21,-28,52
-21,-28,52
-20,-28,52
-21,-28,53
-21,-28,53
-21,-28,52
-21,-28,53
-20,-28,52
-21,-28,53
-21,-28,53
-21,-28,53
-20,-28,52
-20,-28,52
-21,-28,52
-21,-28,53
-21,-28,52
-21,-28,52
-20,-28,52
-21,-28,53
-21,-28,52
-21,-28,53
-21,-28,52
-21,-28,52
-20,-28,53
-21,-28,52
-21,-28,53
-21,-28,52
-21,-28,52
-21,-28,52
-21,-28,53
-20,-28,53
-21,-28,53
-21,-28,52
-20,-28,52
-20,-28,52
-21,-28,52
-21,-28,53
-21,-28,52
-21,-28,52
-21,-28,53
-21,-28,53
-21,-28,52
-21,-28,52
-20,-28,52
-21,-28,52
-21,-28,52
-21,-28,52
-21,-28,52
-21,-28,52
-20,-28,52
-21,-28,52
-21,-28,53
-21,-28,52
-21,-28,52
-21,-28,52
-21,-28,53
-21,-28,53
-20,-28,52
-21,-28,53
-21,-28,52
-20,-28,53
-21,-28,53
-21,-28,52
-21,-28,52
-20,-28,53
-21,-28,52
-21,-28,53
-21,-28,53
-21,-28,52
-21,-28,52
-20,-28,53
-21,-28,53
-21,-28,52
-20,-28,53
-21,-28,52
-21,-28,52
-21,-28,52
-21,-28,53
-21,-28,53
-20,-28,52
-21,-28,53
-21,-28,53
-21,-28,52
-21,-28,52
-21,-28,53
-21,-28,52
-21,-28,53
-21,-28,52
-21,-28,52
-20,-28,52
-21,-28,52
-21,-28,53
-20,-28,53
-21,-28,52
-21,-28,52
-20,-28,53
-21,-28,52
-21,-28,52
-20,-28,53
-21,-28,53
-21,-28,52
-20,-28,53
-21,-28,53
-21,-28,52
-20,-28,52
-20,-28,53
-21,-28,52
-21,-28,52
-21,-28,53
-21,-28,53
-21,-28,53
-21,-28,52
-21,-28,53
-21,-28,52
-21,-28,53
-21,-28,53
-21,-28,52
-21,-28,53
-21,-28,53
-21,-28,52
-20,-28,53
-21,-28,52
-21,-28,53
-20,-28,53
-20,-28,53
-21,-28,52
-20,-28,53
-20,-28,53
-21,-28,52
-21,-28,53
-21,-28,53
-21,-28,52
-20,-28,53
-20,-28,53
-21,-28,52
-21,-28,53
-20,-28,53
-21,-28,53
-21,-28,52
-21,-28,52
-21,-28,52
-20,-28,52
-20,-28,53
-21,-28,52
-21,-28,52
-21,-28,53
-21,-28,52
-21,-28,52
-21,-28,52
-20,-28,53
-21,-28,52
-21,-28,52
-21,-28,53
-21,-28,53
-20,-28,53
-21,-28,53
-21,-28,52
-20,-28,52
-21,-28,53
-21,-28,52
-21,-28,53
-21,-28,52
-21,-28,52
-20,-28,53
-21,-28,52
-21,-28,52
-20,-28,52
-21,-28,52
-21,-28,52
-21,-28,53
-21,-28,53
-21,-28,52
-20,-28,52
-21,-28,53
-20,-28,53
-21,-28,52
-20,-28,53
-20,-28,53
-21,-28,53
-21,-28,52
-21,-28,52
-21,-28,52
-20,-28,52
-21,-28,53
-21,-28,53
-20,-28,53
-20,-28,53
-21,-28,52
-20,-28,52
-20,-28,52
-21,-28,53
-21,-28,53
-20,-28,53
-21,-28,52
-21,-28,52
-20,-28,53
-21,-28,53
-21,-28,52
-20,-28,53
-21,-28,52
-21,-28,52
-21,-28,53
-21,-28,53
-20,-28,52
-20,-28,53
-20,-28,53
-21,-28,53
-21,-28,53
-21,-28,53
-21,-28,52
-21,-28,53
-21,-28,53
-21,-28,53
-21,-28,52
-21,-28,52
-21,-28,52
-21,-28,53
-20,-28,53
-20,-28,53
-21,-28,52
-20,-28,52
-20,-28,53
-21,-28,53
-21,-28,53
-21,-28,53
-21,-28,52
-20,-28,53
-21,-28,53
-21,-28,52
-20,-28,53
-20,-28,53
-21,-28,52
-21,-28,52
-21,-28,53
-21,-28,53
-20,-28,52
-21,-28,52
-21,-28,53
-21,-28,53
-21,-28,52
-21,-28,52
-21,-28,53
-21,-28,53
-21,-28,53
-21,-28,52
-21,-28,52
-21,-28,53
-21,-28,52
-20,-28,53
-21,-28,53
-21,-28,52
-20,-28,52
-20,-28,53
-21,-28,52
-21,-28,53
-20,-28,52
-21,-28,52
-21,-28,52
-20,-28,53
-21,-28,52
-21,-28,52
-20,-28,53
-21,-28,53
-21,-28,52
-21,-28,53
-21,-28,53
-21,-28,52
-21,-28,52
-20,-28,53
-21,-28,53
-21,-28,53
-20,-28,53
-21,-28,52
-21,-28,53
-21,-28,53
-21,-28,53
-21,-28,52
-20,-28,52
-20,-28,52
-21,-28,53
-20,-28,53
-21,-28,52
-21,-28,52
-21,-28,52
-20,-28,53
-21,-28,53
-21,-28,53
-20,-28,53
-21,-28,53
-20,-28,52
-20,-28,53
-21,-28,52
-21,-28,52
-20,-28,53
-20,-28,53
-21,-28,52
-21,-28,52
-21,-28,53
-21,-28,53
-20,-28,53
-21,-28,52
-20,-28,53
-20,-28,52
-21,-28,53
-21,-28,52
-20,-28,53
-20,-28,53
-21,-28,52
-20,-28,52
-20,-28,52
-21,-28,52
-20,-28,53
-20,-28,53
-21,-28,52
-21,-28,52
-20,-28,53
-21,-28,52
-21,-28,53
-20,-28,53
-21,-28,52
-20,-28,53
-20,-28,53
-21,-28,52
-21,-28,52
-20,-28,53
-21,-28,52
-21,-28,52
-21,-28,53
-21,-28,52
-21,-28,52
-20,-28,52
-21,-28,52
-20,-28,53
-21,-28,53
-21,-28,52
-21,-28,52
-21,-28,53
-21,-28,52
-21,-28,52
-21,-28,52
-20,-28,53
-21,-28,53
-21,-28,53
-21,-28,53
-21,-28,52
-21,-28,52
-20,-28,53
-21,-28,53
-21,-28,53
-20,-28,53
-21,-28,52
-21,-28,52
-20,-28,53
-21,-28,53
-21,-28,52
-20,-28,52
-20,-28,52
-21,-28,53
-21,-28,53
-21,-28,52
-21,-28,53
-20,-28,52
-20,-28,53
-21,-28,53
-21,-28,52
-20,-28,53
-21,-28,53
-21,-28,53
-21,-28,52
-21,-28,53
-21,-28,52
-20,-28,52
-21,-28,53
-21,-28,53
-20,-28,53
-21,-28,52
-21,-28,52
-20,-28,52
-20,-28,53
-21,-28,53
-20,-28,53
-20,-28,53
-21,-28,52
-21,-28,53
-21,-28,53
-21,-28,53
-20,-28,53
-20,-28,52
-21,-28,53
-21,-28,53
-21,-28,52
-20,-28,53
-20,-28,53
-20,-28,53
-20,-28,53
-20,-28,53
-21,-28,52
-21,-28,53
-21,-28,52
-20,-28,53
-21,-28,53
-21,-28,53
-21,-28,52
-20,-28,52
-21,-28,53
-20,-28,53
-20,-28,53
-21,-28,52
-21,-28,52
-20,-28,52
-20,-28,52
-21,-28,52
-21,-28,53
-21,-28,53
-21,-28,52
-20,-28,53
-21,-28,53
-21,-28,52
-21,-28,53
-20,-28,52
-21,-28,52
-21,-28,53
-21,-28,52
-21,-28,52
-20,-28,52
-20,-28,53
-20,-28,52
-21,-28,53
-21,-28,52
-20,-28,53
-21,-28,53
-21,-28,52
-21,-28,52
-21,-28,52
-20,-28,53
-21,-28,53
-21,-28,53
-20,-28,53
-21,-28,52
-21,-28,52
-20,-28,53
-21,-28,52
-21,-28,53
-20,-28,53
-21,-28,52
-21,-28,52
-20,-28,53
-21,-28,53
-21,-28,52
-20,-28,53
-20,-28,53
-21,-28,53
-21,-28,52
-21,-28,53
-20,-28,52
-20,-28,53
-20,-28,53
-20,-28,53
-20,-28,53
-20,-28,52
-21,-28,53
-21,-28,53
-20,-28,53
-21,-28,53
-21,-28,52
-20,-28,52
-20,-28,53
-21,-28,52
-20,-28,52
-21,-28,53
-21,-28,52
-21,-28,52
-20,-28,53
-21,-28,52
-21,-28,53
-20,-28,53
-21,-28,52
-21,-28,53
-20,-28,53
-21,-28,53
-21,-28,52
-20,-28,53
-21,-28,53
-21,-28,52
-21,-28,52
-20,-28,52
-21,-28,52
-20,-28,53
-20,-28,52
-20,-28,52
-21,-28,53
-20,-28,53
-20,-28,53
-21,-28,52
-20,-28,53
-20,-28,53
-21,-28,52
-20,-28,53
-21,-28,53
-21,-28,53
-20,-28,53
-21,-28,53
-21,-28,52
-20,-28,53
-20,-28,53
-21,-28,52
-21,-28,53
-21,-28,52
-20,-28,52
-21,-28,53
-21,-28,52
-21,-28,52
-20,-28,52
-20,-28,53
-21,-28,52
-21,-28,53
-21,-28,53
-21,-28,53
-21,-28,52
-20,-28,52
-21,-28,53
-21,-28,52
-21,-28,52
-21,-28,52
-21,-28,53
-21,-28,52
-21,-28,52
-21,-28,52
-20,-28,53
-21,-28,53
-21,-28,53
-21,-28,53
-21,-28,52
-21,-28,52
-20,-28,53
-21,-28,53
-21,-28,52
-21,-28,52
-20,-28,52
-20,-28,52
-21,-28,53
-21,-28,52
-20,-28,53
-20,-28,52
-21,-28,52
-21,-28,52
-21,-28,53
-20,-28,52
-20,-28,53
-20,-28,53
-20,-28,52
-21,-28,53
-21,-28,52
-21,-28,52
-21,-28,52
-21,-28,53
-21,-28,53
-20,-28,53
-20,-28,53
-20,-28,52
-21,-28,53
-20,-28,53
-20,-28,53
-21,-28,52
-21,-28,52
-20,-28,53
-21,-28,53
-21,-28,52
-21,-28,53
-20,-28,52
-21,-28,52
-20,-28,53
-21,-28,53
-20,-28,52
-20,-28,52
-21,-28,52
-21,-28,52
-21,-28,53
-21,-28,53
-21,-28,52
-20,-28,53
-20,-28,53
-20,-28,53
-20,-28,53
-21,-28,52
-21,-28,52
-21,-28,52
-20,-28,53
-21,-28,52
-21,-28,52
-20,-28,52
-21,-28,53
-21,-28,52
-20,-28,53
-21,-28,52
-21,-28,52
-20,-28,53
-21,-28,53
-21,-28,53
-20,-28,53
-21,-28,53
-21,-28,52
-20,-28,53
-20,-28,53
-21,-28,52
-20,-28,52
-20,-28,52
-21,-28,52
-21,-28,53
-21,-28,52
-21,-28,52
-20,-28,52
-21,-28,52
-20,-28,52
-21,-28,53
-21,-28,53
-21,-28,52
-21,-28,53
-21,-28,52
-21,-28,53
-20,-28,52
-20,-28,52
-21,-28,53
-20,-28,52
-20,-28,53
-21,-28,52
-21,-28,52
-20,-28,53
-20,-28,53
-21,-28,52
-21,-28,53
-20,-28,52
-20,-28,52
-21,-28,53
-21,-28,53
-21,-28,53
-20,-28,52
-20,-28,52
-21,-28,52
-21,-28,52
-21,-28,53
-20,-28,53
-20,-28,52
-21,-28,52
-20,-28,53
-21,-28,53
-21,-28,52
-20,-28,52
-21,-28,53
-21,-28,53
-21,-28,53
-20,-28,52
-20,-28,52
-20,-28,52
-21,-28,52
-20,-28,53
-21,-28,53
-21,-28,53
-21,-28,52
-20,-28,52
-21,-28,52
-21,-28,53
-20,-28,53
-21,-28,52
-21,-28,52
-21,-28,52
-20,-28,53
-21,-28,52
-20,-28,53
-20,-28,53
-21,-28,52
-21,-28,52
-21,-28,53
-21,-28,53
-20,-28,53
-20,-28,53
-21,-28,52
-20,-28,53
-20,-28,53
-21,-28,52
-21,-28,53
-21,-28,53
-21,-28,52
-20,-28,52
-20,-28,52
-22,-28,52
-21,-28,53
-20,-28,53
-21,-28,53
-21,-28,52
-20,-28,53
-21,-28,53
-21,-28,53
-21,-28,53
-20,-28,52
-20,-28,52
-21,-28,52
-20,-28,53
-21,-28,53
-21,-28,52
-20,-28,53
-20,-28,53
-21,-28,52
-21,-28,52
-21,-28,52
-21,-28,53
-21,-28,53
-21,-28,52
-21,-28,52
-20,-28,53
-21,-28,52
-21,-28,53
-21,-28,52
-21,-28,52
-21,-28,52
-21,-28,53
-21,-28,52
-20,-28,53
-21,-28,53
-21,-28,52
-20,-28,52
-21,-28,52
-21,-28,53
-21,-28,52
-21,-28,52
-20,-28,52
-20,-28,53
-21,-28,53
-21,-28,53
-20,-28,53
-20,-28,52
-21,-28,52
-21,-28,53
-21,-28,53
-21,-28,53
-21,-28,52
-21,-28,53
-20,-28,53
-20,-28,53
-21,-28,53
-21,-28,52
-20,-28,52
-20,-28,52
-21,-28,52
-21,-28,53
-20,-28,53
-21,-28,53
-21,-28,52
-20,-28,52
-20,-28,53
-21,-28,52
-21,-28,53
-21,-28,53
-20,-28,52
-21,-28,53
-21,-28,53
-21,-28,53
-20,-28,52
-20,-28,52
-20,-28,52
-21,-28,53
-21,-28,53
-21,-28,52
-20,-28,52
-21,-28,52
-21,-28,53
-20,-28,53
-21,-28,52
-21,-28,52
-20,-28,52
-21,-28,52
-21,-28,53
-21,-28,52
-21,-28,52
-21,-28,52
-20,-28,53
-21,-28,53
-21,-28,52
-20,-28,52
-20,-28,53
-21,-28,52
-21,-28,53
-20,-28,52
-20,-28,52
-21,-28,53
-21,-28,53
-21,-28,53
-21,-28,53
-20,-28,52
-21,-28,52
-21,-28,53
-21,-28,52
-21,-28,52
-20,-28,52
-20,-28,52
-20,-28,52
-21,-28,52
-21,-28,52
-21,-28,52
-21,-28,53
-21,-28,52
-21,-28,53
-21,-28,52
-20,-28,52
-21,-28,52
-21,-28,53
-20,-28,53
-21,-28,53
-21,-28,52
-21,-28,52
-20,-28,53
-21,-28,52
-21,-28,52
-21,-28,52
-21,-28,52
-20,-28,52
-21,-28,53
-21,-28,52
-20,-28,52
-21,-28,53
-21,-28,52
-21,-28,52
-21,-28,52
-20,-28,52
-21,-28,52
-20,-28,52
-21,-28,52
-21,-28,53
-21,-28,53
-21,-28,52
-21,-28,53
-20,-28,52
-21,-28,52
-21,-28,52
-21,-28,52
-21,-28,52
-21,-28,52
-21,-28,53
-21,-28,53
-21,-28,52
-22,-28,52
-21,-28,53
-21,-28,53
-21,-28,53
-20,-28,53
-20,-28,53
-21,-28,52
-21,-28,53
-21,-28,53
-21,-27,52
-20,-28,52
-19,-28,54
-20,-28,53
-20,-28,52
-20,-28,52
-20,-28,53
-21,-27,52
-21,-28,52
-21,-28,53
-22,-28,52
-22,-28,52
-21,-28,53
-21,-28,52
-21,-28,52
-21,-28,52
-21,-28,52
-21,-28,52
-20,-28,52
-21,-28,53
-22,-28,52
-21,-28,52
-20,-28,53
-22,-29,52
-21,-28,52
-21,-28,52
-21,-28,52
-21,-28,52
-20,-27,52
-21,-28,53
-21,-29,52
-21,-28,52
-21,-28,52
-21,-28,52
-21,-28,52
-21,-28,52
-21,-28,52
-21,-28,52
-21,-28,52
-21,-28,52
-21,-28,52
-21,-28,52
-21,-28,52
-21,-28,52
-21,-28,53
-20,-28,53
-21,-28,52
-21,-28,52
-21,-28,52
-21,-28,52
-21,-28,52
-21,-28,52
-21,-28,52
-21,-28,52
-21,-28,52
-21,-28,52
-21,-28,52
-21,-28,52
-21,-28,52
-21,-28,52
-21,-28,52
-21,-28,52
-21,-28,52
-21,-28,52
-21,-28,52
-21,-28,52
-21,-28,52
-21,-28,52
-21,-28,52
-21,-28,52
-21,-28,52
-21,-28,52
-21,-28,52
-21,-28,53
-21,-28,52
-21,-28,52
-21,-28,52
-21,-28,52
-21,-29,52
-21,-28,52
-21,-28,52
-21,-28,52
-21,-28,52
-21,-28,53
-21,-28,52
-21,-28,52
-21,-29,52
-21,-28,52
-21,-28,52
-21,-28,52
-21,-28,52
-21,-28,52
-21,-28,52
-21,-28,52
-21,-28,52
-21,-28,52
-21,-28,52
-21,-28,52
-21,-28,52
-21,-28,52
-21,-28,52
-21,-28,52
-21,-28,52
-21,-28,52
-21,-28,52
-21,-28,53
-22,-28,52
-21,-28,52
-21,-28,52
-21,-28,53
-21,-28,52
-21,-28,52
-21,-28,52
-21,-28,52
-21,-28,52
-21,-28,52
-21,-28,52
-21,-28,52
-21,-28,52
-21,-28,52
-21,-28,52
-21,-28,52
-21,-28,52
-21,-28,52
-21,-28,52
-21,-28,52
-21,-28,52
-21,-28,52
-21,-28,52
-21,-28,52
-21,-28,52
-21,-28,52
-21,-28,52
-21,-28,52
-21,-28,52
-21,-28,52
-21,-28,52
-21,-28,53
-21,-28,52
-21,-28,52
-21,-28,52
-21,-28,52
-21,-28,53
-21,-28,52
-21,-28,52
-21,-28,52
-21,-28,52
-21,-28,52
-21,-28,52
-21,-28,52
-21,-28,52
-21,-28,52
-21,-28,52
-21,-28,52
-21,-28,52
-21,-28,52
-21,-28,52
-21,-28,52
-21,-28,52
-21,-28,52
-21,-28,52
-21,-28,52
-21,-28,52
-21,-28,52
-21,-28,52
-21,-28,52
-21,-28,52
-21,-28,52
-21,-28,52
-21,-28,52
-22,-28,52
-21,-28,52
-21,-28,52
-21,-28,52
-21,-28,52
-21,-28,52
-21,-28,52
-21,-28,52
-21,-28,53
-21,-28,52
-21,-28,52
-21,-28,52
-21,-28,52
-21,-28,52
-21,-28,52
-21,-28,52
-21,-28,52
-21,-28,52
-21,-28,52
-21,-28,52
-21,-28,52
-21,-28,52
-21,-28,52
-21,-28,52
-21,-28,52
-21,-28,52
-21,-28,52
-21,-29,52
-21,-28,52
-20,-28,53
-21,-28,52
-21,-28,52
-21,-28,52
-21,-28,53
-21,-28,52
-21,-28,52
-21,-28,52
-21,-28,52
-21,-28,52
-21,-28,52
-21,-28,52
-21,-28,52
-21,-28,52
-21,-28,52
-21,-28,52
-21,-28,52
-21,-28,52
-21,-28,52
-21,-28,52
-21,-28,52
-21,-28,52
-21,-28,52
-21,-28,52
-21,-28,52
-21,-28,52
-21,-28,52
-21,-28,52
-21,-28,52
-21,-28,52
-21,-28,52
-21,-28,52
-21,-28,52
-21,-28,52
-21,-28,52
-21,-28,52
-21,-28,52
-21,-28,52
-21,-28,52
-21,-28,52
-21,-28,52
-21,-28,52
-21,-28,52
-21,-28,52
-21,-28,52
-21,-28,52
-21,-28,52
-21,-28,52
-21,-28,52
-21,-28,52
-21,-28,52
-21,-28,52
-21,-28,52
-21,-28,52
-21,-28,52
-21,-28,52
-21,-28,52
-21,-28,52
-21,-28,52
-21,-28,52
-21,-28,52
-21,-28,53
-21,-28,52
-21,-28,52
-21,-28,52
-21,-28,53
-21,-28,52
-21,-28,52
-21,-28,52
-21,-28,52
-21,-28,52
-21,-28,52
-21,-28,52
-21,-28,52
-21,-28,52
-21,-28,52
-21,-28,52
-21,-28,52
-21,-28,52
-21,-28,52
-21,-28,52
-21,-28,52
-21,-28,52
-21,-28,52
-21,-28,52
-21,-28,52
-21,-28,52
-21,-28,52
-21,-28,52
-21,-29,52
-21,-28,52
-21,-28,52
-21,-28,52
-21,-28,52
-21,-28,52
-21,-29,52
-22,-28,52
-21,-28,52
-21,-28,52
-21,-28,52
-21,-28,52
-21,-28,53
-21,-28,52
-21,-28,52
-21,-28,52
-21,-28,52
-21,-28,52
-22,-28,53
-21,-28,52
-21,-28,52
-21,-28,52
-21,-28,52
-21,-28,52
-20,-28,53
-21,-28,53
-22,-28,52
-21,-28,52
-21,-28,53
-21,-28,53
-21,-28,52
-22,-28,52
-20,-28,53
-21,-28,52
-21,-28,52
-20,-28,52
-20,-29,53
-21,-29,52
-21,-28,52
-20,-28,52
-21,-28,52
-21,-28,53
-21,-28,53
-20,-28,52
-20,-28,52
-21,-29,52
-22,-29,52
-21,-28,52
-21,-28,52
-20,-28,52
-21,-28,52
-21,-28,52
-21,-28,52
-21,-28,53
-21,-28,52
-21,-28,52
-21,-28,52
-22,-28,52
-22,-28,52
-21,-28,52
-21,-28,52
-21,-28,52
-21,-28,52
-21,-28,52
-21,-28,52
-21,-28,52
-22,-28,52
-22,-29,51
-21,-28,52
-21,-28,52
-21,-28,52
-21,-28,52
-22,-28,52
-21,-28,52
-21,-28,53
-21,-29,52
-22,-29,52
-21,-28,52
-21,-28,52
-21,-29,52
-21,-28,52
-21,-28,52
-21,-28,52
-21,-28,52
-21,-28,52
-21,-28,52
-21,-29,52
-22,-29,52
-22,-29,52
-21,-29,52
-21,-28,52
-21,-28,52
-21,-28,52
-21,-28,52
-21,-29,52
-21,-28,52
-21,-28,52
-21,-28,52
-21,-29,52
-21,-28,52
-21,-28,52
-21,-28,53
-21,-28,52
-21,-28,52
-21,-28,52
-21,-28,52
-22,-28,52
-21,-28,52
-21,-28,52
-21,-28,52
-21,-28,52
-21,-28,52
-21,-28,52
-21,-28,52
-22,-28,52
-21,-28,52
-21,-28,52
-21,-28,52
-21,-28,52
-21,-28,52
-21,-28,52
-21,-28,52
-21,-28,52
-21,-28,52
-21,-28,53
-22,-28,52
-22,-28,52
-21,-28,52
-21,-28,52
-21,-28,52
-21,-28,52
-22,-29,52
-22,-28,52
-21,-29,52
-21,-28,52
-21,-28,52
-21,-28,52
-21,-28,52
-21,-29,52
-21,-28,52
-21,-28,52
-22,-28,52
-21,-28,52
-21,-28,52
-21,-28,52
-21,-28,53
-21,-28,52
-21,-28,52
-21,-28,53
-21,-28,52
-21,-28,52
-21,-28,52
-21,-28,52
-22,-28,52
-21,-28,52
-20,-28,53
-22,-28,52
-21,-28,52
-21,-28,52
-21,-28,52
-21,-28,52
-21,-28,52
-21,-28,52
-21,-28,52
-21,-28,52
-21,-28,52
-21,-28,53
-21,-28,52
-21,-28,52
-21,-28,53
-21,-28,52
-21,-28,52
-21,-28,52
-22,-28,52
-21,-28,53
-21,-28,52
-22,-28,51
-20,-28,54
-22,-28,52
-21,-28,52
-21,-28,52
-21,-28,52
-21,-28,52
-21,-28,52
-21,-28,52
-21,-28,53
-21,-28,52
-21,-28,52
-21,-28,52
-21,-28,52
-21,-28,52
-21,-28,52
-21,-28,52
-21,-28,52
-21,-28,52
-21,-28,52
-21,-28,52
-21,-28,53
-20,-28,52
-21,-28,52
-21,-28,52
-21,-28,52
-21,-28,52
-21,-28,52
-21,-28,53
-21,-28,52
-21,-28,53
-21,-28,52
-21,-28,52
-20,-28,52
-21,-28,52
-21,-28,53
-21,-28,52
-22,-28,52
-21,-28,52
-21,-28,52
-16,-29,52
-30,-27,53
-21,-28,53
-21,-28,52
-21,-28,52
-20,-28,52
-21,-29,53
-21,-28,52
-21,-28,52
-20,-28,52
-21,-28,52
-21,-28,52
-20,-28,52
-20,-29,53
-21,-28,52
-21,-28,52
-21,-28,52
-21,-28,53
-21,-28,52
-21,-29,52
-21,-28,53
-21,-28,52
-22,-28,52
-21,-28,52
-21,-28,52
-21,-28,52
-21,-29,53
-21,-28,53
-21,-28,51
-21,-29,52
-20,-29,53
-22,-28,52
-21,-29,52
-21,-28,52
-21,-28,52
-21,-29,52
-20,-29,52
-21,-28,52
-21,-29,52
-21,-29,52
-21,-29,52
-20,-29,53
-20,-29,52
-20,-29,52
-21,-29,52
-21,-29,52
-20,-29,52
-20,-29,53
-21,-29,53
-21,-28,52
-20,-29,52
-21,-29,52
-22,-29,52
-21,-29,52
-20,-28,52
-20,-29,52
-21,-29,52
-21,-28,52
-20,-29,53
-21,-29,52
-22,-28,52
-21,-29,52
-23,-29,51
-23,-29,51
-22,-29,52
-23,-28,51
-22,-28,52
-20,-28,53
-22,-30,52
-23,-30,52
-22,-29,52
-21,-30,51
-20,-31,51
-23,-29,51
-21,-28,52
-21,-28,52
-21,-29,51
-21,-29,52
-21,-28,52
-22,-30,52
-23,-30,51
-22,-29,51
-20,-29,51
-21,-29,52
-21,-29,52
-22,-29,52
-22,-29,51
-22,-28,52
-21,-29,53
-22,-29,53
-21,-29,52
-20,-29,52
-21,-29,52
-21,-29,52
-22,-29,52
-22,-29,52
-21,-29,52
-21,-29,53
-21,-28,52
-20,-29,52
-21,-29,52
-21,-29,52
-19,-28,53
-20,-29,52
-21,-29,52
-21,-28,52
-21,-29,52
-21,-29,52
-21,-28,52
-21,-29,52
-21,-29,52
-20,-28,53
-21,-28,53
-22,-28,52
-21,-29,52
-20,-28,52
-21,-29,52
-20,-29,52
-22,-29,52
-22,-29,52
-20,-28,52
-20,-29,53
-21,-29,52
-21,-29,52
-20,-29,53
-21,-29,53
-21,-28,51
-21,-28,52
-21,-29,52
-21,-29,52
-21,-29,52
-21,-29,52
-21,-29,52
-21,-28,53
-22,-28,51
-21,-29,52
-22,-29,52
-21,-28,52
-21,-29,53
-21,-29,52
-22,-28,51
-21,-29,52
-21,-29,52
-22,-29,52
-22,-29,52
-21,-29,52
-22,-29,52
-22,-29,51
-22,-29,52
-22,-29,52
-21,-29,52
-21,-29,52
-21,-29,52
-22,-29,52
-22,-29,52
-22,-29,52
-22,-29,51
-22,-29,51
-22,-29,52
-21,-29,52
-22,-29,51
-22,-29,51
-21,-29,52
-21,-29,52
-22,-29,51
-21,-29,52
-21,-29,52
-21,-29,52
-22,-29,52
-22,-29,51
-21,-28,52
-21,-29,52
-21,-29,52
-21,-28,52
-21,-29,52
-21,-29,52
-22,-29,51
-22,-29,52
-22,-29,52
-22,-28,52
-21,-29,52
-21,-29,52
-21,-29,52
-21,-28,52
-21,-29,52
-21,-29,51
-21,-29,51
-21,-29,52
-21,-29,52
-22,-29,52
-21,-29,52
-22,-29,52
-22,-29,52
-21,-29,52
-21,-29,52
-21,-29,52
-22,-29,52
-22,-29,51
-21,-29,52
-21,-28,52
-21,-29,52
-21,-29,52
-22,-29,52
-21,-29,52
-21,-29,52
-22,-29,52
-22,-29,51
-22,-29,52
-21,-29,52
-21,-29,52
-22,-29,52
-22,-29,52
-21,-29,52
-22,-29,52
-22,-29,52
-21,-29,52
-21,-29,52
-22,-29,51
-21,-29,52
-21,-29,52
-22,-29,52
