1568061681.000000, 1568061681.000000, 1568061681.000000
32.000000, 32.000000, 32.000000
-5,-26,57
-7,-26,57
-7,-26,56
-8,-27,56
-4,-27,57
-7,-26,56
-7,-27,56
-8,-27,56
-6,-27,57
-7,-26,56
-8,-26,56
-7,-26,57
-7,-26,57
-7,-26,57
-7,-26,56
-6,-27,56
-6,-26,58
-6,-26,57
-7,-26,56
-7,-27,56
-7,-27,57
-6,-26,57
-7,-26,56
-7,-26,56
-7,-26,56
-7,-26,57
-6,-26,57
-6,-26,57
-7,-26,57
-8,-27,56
-7,-26,56
-7,-26,56
-7,-26,56
-7,-26,57
-7,-26,57
-7,-26,57
-7,-26,56
-7,-26,57
-7,-26,57
-8,-26,57
-7,-26,56
-7,-26,56
-8,-26,56
-7,-26,57
-7,-26,58
-7,-25,57
-8,-26,56
-7,-26,57
-7,-26,57
-7,-26,56
-7,-26,57
-7,-26,56
-7,-26,57
-7,-26,57
-8,-26,56
-8,-26,57
-8,-26,56
-8,-26,56
-7,-26,57
-6,-26,58
-8,-26,57
-7,-26,58
-7,-26,58
-9,-29,59
-4,-28,61
-1,-31,65
0,-25,73
7,-24,68
0,-22,60
-4,-19,66
0,-22,68
10,-22,66
11,-25,56
11,-26,46
-2,-26,19
-12,-40,6
-11,-32,12
-21,-25,9
-47,-4,22
-51,12,40
-78,21,40
-59,23,36
-30,27,68
-24,23,71
-27,41,65
-6,19,71
-40,2,90
-95,-21,41
-84,-39,49
-85,-11,69
-35,-2,67
-41,-1,64
-65,8,53
-40,12,60
-39,13,56
-53,17,51
-54,11,44
-53,7,45
-48,9,45
-40,6,40
-33,8,40
-35,8,34
-39,9,30
-37,8,32
-34,1,31
-29,0,41
-29,-4,45
-31,-6,46
-11,-10,62
13,-9,79
-5,-14,66
-10,-10,65
-10,-9,65
6,-8,66
10,-5,70
3,-7,60
-7,-5,61
-13,-4,57
-18,-10,56
-28,-11,47
-33,-10,42
-51,-8,34
-52,-8,33
-43,-14,33
-38,-13,38
-46,-18,31
-44,-20,30
-44,-18,33
-44,-12,38
-45,-11,39
-46,-4,45
-44,0,49
-44,-1,51
-46,-9,50
-49,-14,50
-47,-16,48
-48,-29,43
-44,-28,42
-44,-27,38
-41,-26,37
-42,-22,34
-43,-20,33
-46,-18,26
-47,-13,25
-50,-13,26
-40,-16,32
-43,-24,32
-41,-29,29
-34,-22,57
-68,-20,61
-66,-16,61
-38,-14,62
-41,-10,59
-36,-23,62
-33,-18,53
-38,-9,43
-31,-9,40
-29,-13,43
-36,-15,44
-20,-5,50
-32,-15,48
-34,-17,64
-25,-18,73
-17,-35,61
-24,-42,45
-8,-44,43
13,-32,77
7,-11,93
-9,-6,73
-13,-7,51
-16,-6,52
-11,-7,62
-8,-11,64
-4,-13,63
0,-10,63
-6,-9,62
-7,-8,62
7,-7,66
-7,-5,63
-9,-7,63
1,-3,66
-2,0,57
-15,-3,50
-11,-6,56
5,-11,68
1,-11,63
-4,-18,60
3,-23,60
7,-21,61
9,-23,65
-8,-17,59
-5,-14,59
1,-16,56
-6,-19,58
-16,-21,57
-8,-21,63
1,-19,63
-5,-18,61
-14,-15,58
-20,-16,56
-21,-16,57
-15,-16,59
-13,-15,61
-16,-14,61
-16,-13,60
-12,-12,59
-10,-12,58
-9,-14,60
-3,-16,62
-3,-17,62
-1,-18,62
0,-18,62
-8,-21,62
-15,-20,61
0,-17,59
-4,-14,56
-9,-13,57
-5,-13,62
2,-13,67
-6,-13,59
-7,-12,58
-2,-13,58
4,-11,63
4,-11,65
-3,-12,63
-10,-14,61
-13,-15,60
-14,-18,57
-13,-16,62
-14,-14,60
-11,-12,56
2,-13,63
0,-19,62
-14,-22,61
-14,-17,60
-13,-17,58
-6,-17,59
-9,-12,58
-8,-12,61
-2,-11,66
0,-7,62
-2,-8,62
-8,-14,64
0,-11,59
1,-9,59
-2,-8,59
8,-3,56
11,-1,55
16,-2,60
31,-3,67
30,-2,65
20,-3,62
12,-6,59
12,-6,59
5,-6,65
2,-5,67
4,-6,65
-1,-4,63
-6,-8,59
-8,-10,57
-2,-8,59
4,-6,59
9,-4,59
13,-1,64
15,-3,63
14,-5,63
13,-2,62
9,-3,60
7,-3,61
9,-3,64
8,-4,64
1,-4,63
0,-6,61
1,-6,61
-4,-5,63
-3,-6,62
-2,-5,63
2,-5,62
1,-5,63
0,-5,63
-1,-5,62
-1,-5,62
-2,-4,62
-2,-6,62
-1,-6,62
-1,-6,62
-2,-5,64
-2,-4,65
0,-4,63
0,-3,62
2,-4,62
0,-5,62
-4,-4,63
-5,-5,63
-4,-5,63
-3,-4,63
-3,-5,63
-3,-5,62
-3,-6,62
-4,-5,63
-4,-5,63
-5,-5,63
-6,-5,63
-5,-5,62
-4,-4,62
-4,-5,63
-5,-5,63
-3,-5,62
-3,-5,63
-3,-5,63
-5,-5,63
-6,-5,62
-5,-5,62
-4,-5,62
-5,-5,62
-4,-5,63
-4,-5,63
-4,-5,63
-5,-6,62
-5,-5,62
-4,-5,62
-4,-5,62
-4,-5,63
-4,-5,63
-5,-5,62
-5,-6,63
-6,-6,63
-7,-6,62
-6,-6,62
-6,-6,62
-5,-6,62
-6,-6,63
-6,-5,62
-6,-5,62
-5,-6,62
-5,-6,62
-6,-6,62
-7,-6,63
-9,-6,63
-11,-8,61
-12,-7,61
-12,-7,61
-9,-7,62
-9,-6,62
-9,-6,62
-10,-7,61
-9,-7,62
-10,-7,62
-10,-7,62
-9,-7,62
-9,-7,62
-9,-7,62
-10,-7,62
-10,-7,62
-10,-7,62
-10,-7,61
-9,-7,61
-10,-7,62
-9,-7,62
-9,-7,63
-9,-7,63
-11,-7,63
-13,-9,66
-15,-2,79
-13,7,82
-33,0,83
-49,5,80
-51,4,81
-53,-1,69
-42,-8,52
-30,-12,47
-11,-21,38
-3,-20,34
7,-18,40
14,-13,54
7,-16,50
11,-17,55
5,-19,46
27,-13,55
9,-29,40
21,-27,53
10,-25,66
-1,-26,66
6,-28,65
-10,-27,62
-15,-26,62
-14,-29,53
-14,-25,55
-9,-23,59
-10,-27,56
-9,-28,52
-10,-26,56
-5,-28,59
-10,-28,62
-14,-31,60
-12,-28,63
-19,-31,56
-14,-33,52
-11,-33,47
-7,-31,54
-2,-31,59
8,-31,60
8,-29,57
6,-27,52
10,-24,48
15,-29,50
18,-32,51
16,-30,48
2,-33,33
0,-35,29
-13,-37,26
-5,-35,26
-2,-27,33
-14,-12,47
-20,-7,54
-42,12,62
-23,9,57
-15,12,69
-41,11,127
-16,-15,67
16,-15,58
23,-5,56
33,2,56
28,5,59
4,-3,66
-10,-2,64
-16,-1,59
-5,-6,60
-1,-3,67
-5,-2,66
-13,-5,55
7,-2,71
-1,0,68
-16,-5,58
-15,-5,60
-14,-5,59
1,-3,62
1,-3,64
-1,-3,64
-9,-4,63
-11,-3,61
-10,-3,61
-10,-4,62
-8,-5,63
-7,-5,63
-7,-4,63
-10,-4,62
-12,-3,61
-10,-4,61
-11,-5,62
-12,-4,62
-10,-4,62
-9,-3,63
-8,-3,63
-9,-3,63
-10,-4,61
-10,-4,61
-10,-3,62
-10,-3,62
-10,-3,62
-9,-3,62
-10,-3,62
-10,-4,62
-9,-3,63
-8,-3,62
-9,-3,62
-10,-3,62
-10,-3,62
-9,-3,63
-10,-3,62
-11,-3,63
-10,-3,61
-9,-4,61
-9,-4,61
-10,-4,62
-10,-3,62
-9,-3,63
-10,-3,62
-9,-4,61
-10,-4,61
-9,-4,62
-10,-4,62
-10,-4,62
-10,-4,62
-10,-4,62
-10,-4,62
-10,-3,62
-9,-3,62
-9,-4,63
-9,-4,62
-9,-3,62
-10,-4,62
-10,-4,62
-10,-4,61
-10,-4,61
-10,-4,61
-8,-4,63
-8,-4,64
-8,-4,63
-11,-4,62
-11,-4,63
-11,-4,62
-11,-4,62
-10,-4,62
-10,-4,62
-10,-4,62
-9,-4,62
-10,-4,62
-11,-4,62
-10,-4,62
-10,-4,62
-10,-4,62
-10,-4,62
-10,-4,62
-11,-4,62
-11,-4,62
-10,-4,62
-10,-4,62
-10,-4,62
-10,-4,62
-10,-4,62
-10,-4,62
-10,-4,62
-10,-3,62
-10,-4,62
-10,-3,63
-11,-3,62
-10,-3,62
-10,-4,62
-10,-4,62
-10,-3,62
-10,-3,62
-10,-3,62
-10,-3,62
-10,-3,62
-10,-3,62
-10,-3,62
-10,-3,62
-10,-3,62
-9,-3,62
-9,-3,62
-9,-3,62
-9,-3,62
-10,-3,62
-10,-3,62
-10,-3,62
-9,-3,62
-9,-3,62
-10,-3,62
-9,-3,62
-10,-3,62
-11,-3,62
-10,-4,62
-10,-3,62
-9,-3,62
-9,-3,62
-10,-3,62
-10,-3,62
-10,-3,62
-9,-3,62
-10,-3,62
-10,-4,62
-10,-4,62
-10,-4,62
-10,-4,62
-10,-4,62
-10,-4,62
-10,-3,62
-10,-4,62
-9,-3,62
-10,-3,62
-10,-4,62
-10,-4,62
-10,-4,63
-11,-3,62
-10,-4,61
-10,-4,62
-11,-4,62
-11,-4,62
-10,-4,62
-10,-4,62
-10,-4,62
-10,-4,62
-10,-4,62
-10,-4,62
-10,-4,62
-10,-4,62
-11,-4,62
-11,-4,62
-11,-4,62
-10,-4,62
-10,-4,62
-10,-4,62
-10,-4,62
-10,-4,62
-10,-4,62
-10,-4,62
-10,-4,62
-10,-4,62
-11,-4,62
-10,-3,62
-10,-4,62
-11,-4,62
-11,-4,62
-10,-3,62
-10,-3,62
-10,-4,62
-10,-4,62
-10,-3,62
-10,-3,62
-10,-4,63
-10,-4,62
-10,-4,61
-10,-3,62
-10,-3,62
-11,-3,62
-10,-3,62
-10,-3,62
-10,-3,62
-10,-3,62
-10,-3,62
-10,-3,62
-10,-3,62
-10,-3,62
-10,-3,62
-10,-3,62
-10,-3,62
-9,-4,62
-10,-3,62
-10,-3,62
-9,-3,62
-10,-3,62
-10,-3,62
-9,-3,62
-10,-3,62
-10,-3,62
-10,-3,62
-10,-3,62
-9,-2,62
-9,-3,62
-10,-2,62
-10,-3,62
-9,-3,62
-9,-3,63
-10,-4,63
-11,-3,62
-10,-3,62
-10,-3,62
-10,-3,62
-10,-3,62
-9,-3,62
-9,-3,62
-10,-3,62
-10,-3,62
-9,-3,62
-10,-3,62
-10,-3,62
-10,-3,62
-10,-3,62
-10,-4,62
-11,-4,62
-11,-4,64
-10,-5,66
-10,-1,64
-13,-3,62
-12,-1,63
6,-5,65
14,-4,65
24,-4,67
17,-6,61
6,-7,56
7,-8,57
8,-8,59
0,-10,54
8,-10,59
25,-6,67
19,-5,64
16,-7,59
29,-5,60
27,-8,53
13,-7,44
24,-10,53
15,-9,52
-25,-8,70
0,-25,72
24,-25,74
33,-18,59
15,-14,52
7,-14,51
11,-18,61
14,-25,58
8,-27,54
6,-25,60
2,-19,60
4,-18,59
9,-18,60
13,-18,60
11,-19,61
12,-21,60
13,-20,57
15,-19,57
13,-20,55
16,-22,58
19,-19,61
22,-17,62
17,-16,59
14,-18,57
26,-20,64
24,-24,57
9,-24,50
17,-21,55
19,-22,52
21,-28,51
21,-19,49
25,-15,49
25,-20,49
27,-21,49
28,-27,45
31,-22,46
34,-21,48
34,-22,49
38,-33,49
38,-27,54
22,-27,47
20,-25,55
25,-23,64
43,-17,71
24,-35,50
-15,-18,39
1,-29,37
35,-31,46
33,-32,39
33,-36,36
36,-36,32
43,-40,33
40,-41,34
38,-37,35
41,-28,32
44,-42,37
58,-38,41
43,-26,41
44,-33,42
38,-33,38
31,-30,43
28,-32,43
32,-32,43
31,-33,38
31,-33,36
37,-42,36
32,-38,25
41,-36,26
30,-30,24
35,-40,31
30,-41,31
40,-30,33
37,-35,30
36,-34,31
39,-36,30
39,-38,32
33,-38,33
34,-39,36
37,-38,37
37,-38,36
36,-35,33
35,-33,32
37,-28,34
39,-26,31
42,-30,27
41,-34,22
55,-33,21
62,-33,23
60,-40,13
54,-38,10
54,-40,12
51,-36,5
44,-38,4
48,-35,5
57,-36,4
47,-37,5
36,-36,1
52,-40,7
48,-39,5
47,-38,5
50,-38,4
47,-37,3
45,-35,5
50,-36,2
52,-38,-4
57,-38,-5
45,-39,-9
49,-35,-9
49,-36,-10
49,-39,-12
47,-40,-5
50,-39,-1
51,-45,5
47,-40,9
52,-35,12
46,-40,11
47,-38,13
42,-37,13
43,-34,12
51,-34,14
44,-35,6
52,-36,8
52,-38,8
52,-31,7
47,-30,3
52,-31,-2
36,-45,-4
46,-41,6
43,-35,17
45,-37,22
36,-41,23
14,-43,27
11,-45,28
20,-34,41
13,-28,49
13,-23,52
18,-12,54
22,-7,74
23,-3,105
-4,-6,69
-8,-12,57
26,-13,76
0,-10,52
-18,-17,43
21,-9,68
17,-9,67
10,-6,64
5,-12,56
12,-13,62
21,-12,62
14,-10,59
10,-12,60
9,-12,61
14,-10,62
15,-10,59
16,-10,61
10,-12,60
9,-11,60
10,-11,61
10,-11,60
12,-10,60
12,-10,60
11,-12,60
10,-11,60
9,-11,59
11,-12,60
11,-11,62
11,-11,61
11,-12,60
12,-12,60
12,-11,61
10,-11,61
11,-10,61
11,-10,61
10,-11,61
10,-10,60
9,-11,60
9,-12,60
7,-12,61
7,-12,61
11,-12,63
15,-9,63
13,-10,60
7,-15,60
-1,-14,61
-3,-16,59
-3,-16,59
-1,-16,59
8,-15,61
4,-15,61
2,-15,61
1,-16,60
5,-15,61
7,-15,61
8,-14,61
6,-14,60
5,-15,60
5,-16,61
4,-15,61
4,-16,61
3,-15,60
3,-15,60
4,-15,61
5,-15,61
6,-15,61
4,-15,61
2,-15,61
3,-15,61
3,-15,61
4,-15,61
4,-15,60
4,-15,61
4,-15,61
4,-15,61
4,-14,60
5,-14,60
4,-15,61
4,-15,61
4,-14,61
4,-14,61
4,-14,60
3,-15,61
3,-15,61
4,-15,61
3,-15,61
3,-15,60
3,-14,61
4,-15,61
3,-15,60
2,-15,61
3,-16,61
1,-16,61
1,-16,62
1,-15,62
3,-15,62
1,-14,60
7,-13,60
11,-11,60
11,-6,58
15,-8,55
22,-9,58
26,-12,60
17,-14,58
15,-14,59
15,-14,56
23,-16,55
28,-17,57
19,-17,57
15,-16,59
14,-15,59
18,-15,57
21,-16,56
20,-15,56
21,-11,54
17,-23,62
3,-12,59
23,12,70
18,-35,49
13,-9,59
14,-21,60
13,-15,56
21,-11,61
10,-20,55
15,-17,57
9,-14,58
16,-21,58
17,-13,59
15,-14,58
19,-16,61
12,-18,59
11,-18,57
12,-14,60
9,-16,56
13,-17,57
14,-17,60
10,-17,60
8,-17,59
11,-15,58
15,-16,60
14,-16,60
12,-16,59
10,-18,59
9,-17,60
8,-16,60
14,-15,59
15,-14,59
14,-15,59
13,-15,60
14,-15,58
13,-14,60
13,-14,60
13,-14,59
18,-14,59
19,-14,59
15,-15,58
16,-16,60
14,-15,59
8,-16,58
10,-15,61
11,-14,61
11,-14,59
9,-17,59
9,-18,60
1,-19,51
21,-15,62
-12,-25,56
12,-16,62
10,-14,59
14,-16,64
10,-16,60
6,-17,56
9,-21,55
7,-18,59
14,-18,60
14,-17,61
7,-13,66
6,-17,59
7,-19,58
-4,-15,52
-6,-15,60
-1,-23,64
-2,-11,61
-9,-9,61
-7,-13,65
-5,-17,62
-5,-17,60
-7,-15,59
-4,-14,60
-10,-13,60
-6,-12,61
-4,-15,61
-8,-14,61
-6,-12,61
-4,-13,60
-4,-14,62
-5,-13,61
-2,-15,62
-3,-14,61
-5,-15,61
-1,-15,62
-1,-14,61
-2,-14,61
-3,-14,61
-1,-14,62
0,-14,61
-2,-14,61
-3,-14,61
-2,-14,61
-2,-14,61
-3,-14,61
-2,-14,61
-3,-14,61
-3,-15,61
-3,-14,61
-2,-14,61
-2,-14,61
-3,-14,61
-3,-14,61
-3,-14,61
-2,-14,61
-3,-13,61
-3,-13,61
-3,-13,63
-3,-14,61
-3,-14,60
-2,-13,61
0,-13,61
1,-13,61
-2,-13,60
-1,-12,64
-1,-11,63
-2,-13,61
-2,-12,61
-1,-12,61
1,-12,62
-1,-12,62
0,-13,62
-1,-12,61
0,-12,62
0,-13,62
0,-12,62
-1,-12,61
1,-12,61
0,-12,60
-1,-13,62
1,-13,62
0,-10,64
1,-11,62
5,-13,60
3,-10,63
4,-10,63
3,-11,62
5,-11,64
6,-10,64
4,-11,63
-1,-9,63
0,-12,65
-8,-18,62
0,-11,58
20,5,58
2,-11,56
4,-14,63
2,-14,62
-4,-16,61
-2,-14,62
3,-13,61
4,-13,61
4,-13,60
2,-15,60
1,-14,61
0,-13,62
0,-13,62
0,-14,61
2,-13,61
3,-13,61
3,-14,60
3,-13,61
2,-13,61
2,-13,61
1,-14,62
2,-14,62
0,-15,61
1,-15,61
1,-14,62
0,-13,61
1,-13,61
1,-14,61
0,-15,61
0,-14,61
0,-13,61
2,-13,61
2,-14,61
2,-14,61
0,-14,61
0,-14,61
0,-14,61
1,-14,61
2,-14,61
1,-14,61
0,-14,61
1,-15,61
1,-14,61
1,-13,61
1,-14,61
1,-14,61
1,-14,61
1,-14,61
0,-14,61
-1,-14,61
0,-14,61
0,-14,61
1,-14,61
2,-13,62
2,-14,61
0,-14,61
-1,-14,61
-1,-14,61
2,-14,61
2,-14,61
2,-14,61
1,-13,61
1,-14,61
0,-14,61
-1,-14,61
-2,-14,61
0,-14,60
0,-15,61
0,-15,62
-1,-14,61
-1,-14,61
0,-14,61
0,-14,61
-1,-14,61
-1,-14,61
1,-15,62
1,-14,61
0,-14,61
-1,-14,61
-1,-14,61
-1,-14,61
1,-14,61
2,-14,62
1,-14,61
-1,-15,61
0,-14,61
-1,-14,60
-1,-14,61
0,-14,62
1,-14,62
0,-13,61
1,-14,60
0,-15,61
0,-14,61
0,-14,61
1,-14,61
0,-13,62
-1,-13,61
-1,-14,61
2,-14,61
2,-14,61
2,-14,61
1,-15,61
0,-14,61
-1,-14,61
0,-13,62
0,-14,61
0,-14,61
0,-14,61
0,-14,60
1,-14,62
1,-14,61
1,-13,62
0,-13,62
0,-13,60
0,-14,60
2,-15,61
0,-15,60
-1,-16,60
0,-15,61
0,-14,62
0,-14,62
1,-14,61
1,-13,60
0,-14,61
3,-13,63
2,-14,59
2,-14,60
4,-14,64
1,-14,60
0,-14,61
0,-13,62
-1,-13,59
0,-14,59
4,-14,62
4,-15,61
3,-16,61
-4,-14,62
-6,-11,59
-5,-11,58
2,-13,62
4,-13,64
-1,-14,62
-4,-14,60
-4,-15,61
-4,-15,62
-4,-14,61
-4,-13,60
-3,-14,61
-2,-14,62
-2,-14,62
-3,-15,62
-6,-16,60
-8,-16,60
-8,-15,61
-6,-14,61
-5,-13,60
-2,-13,61
-2,-12,61
-2,-12,62
-2,-12,62
-3,-13,61
-4,-14,61
-5,-14,61
-4,-15,61
-4,-14,61
-4,-13,61
-5,-13,61
-5,-13,61
-6,-14,61
-6,-14,61
-8,-14,61
-7,-14,60
-4,-13,61
-4,-13,61
-4,-13,61
-5,-13,61
-5,-13,61
-6,-13,61
-4,-14,62
-6,-14,61
-6,-14,61
-5,-14,61
-4,-14,62
-6,-14,61
-6,-14,61
-6,-14,61
-6,-14,61
-6,-13,61
-5,-14,61
-4,-14,61
-5,-14,61
-6,-14,61
-5,-13,61
-5,-14,61
-6,-14,61
-5,-14,61
-5,-14,61
-6,-13,61
-6,-14,61
-6,-14,60
-5,-14,61
-5,-14,62
-5,-13,61
-6,-14,61
-6,-13,61
-5,-13,61
-5,-13,61
-4,-13,61
-4,-13,61
-5,-13,61
-5,-14,61
-5,-14,62
-6,-14,61
-5,-13,61
-5,-13,61
-4,-13,61
-6,-13,61
-5,-13,61
-5,-13,61
-4,-13,61
-4,-14,61
-5,-14,61
-4,-13,61
-5,-13,61
-5,-13,61
-3,-13,62
-3,-14,62
-7,-15,61
-8,-14,60
-7,-13,60
-5,-13,61
-1,-13,63
0,-13,62
-2,-12,60
-5,-13,61
-7,-14,62
-8,-15,61
-7,-15,60
-4,-14,60
-1,-13,61
-3,-13,62
-5,-13,61
-6,-13,60
-5,-13,61
-2,-13,62
-2,-13,61
-3,-13,61
-5,-13,61
-6,-13,62
-6,-14,61
-5,-15,60
-3,-14,61
-3,-14,61
-5,-14,62
-7,-13,60
-6,-14,60
-4,-14,61
-3,-14,63
-4,-14,62
-5,-13,61
-4,-14,61
-3,-15,61
-3,-14,60
-2,-14,60
-3,-14,61
-3,-13,62
-5,-13,61
-6,-14,61
-7,-14,61
-5,-14,60
-4,-14,61
-4,-14,62
-5,-14,61
-5,-14,60
-5,-14,60
-4,-13,61
-4,-13,61
-5,-14,61
-5,-14,61
-5,-14,61
-6,-14,61
-5,-14,61
-4,-14,61
-4,-13,61
-5,-13,61
-5,-13,61
-5,-13,61
-3,-14,61
-4,-13,61
-5,-13,61
-5,-13,61
-5,-13,61
-4,-13,61
-5,-14,61
-4,-14,61
-4,-14,61
-4,-14,61
-5,-13,61
-5,-13,61
-5,-13,61
-4,-13,61
-4,-13,61
-4,-13,61
-5,-13,61
-5,-13,61
-5,-14,61
-5,-13,61
-5,-14,61
-5,-14,61
-5,-13,61
-5,-13,61
-4,-13,61
-4,-14,61
-4,-14,61
-5,-13,61
-6,-14,61
-6,-14,61
-6,-13,61
-5,-12,61
-3,-12,62
-3,-12,62
-2,-13,61
-4,-13,61
-5,-13,61
-4,-13,61
-4,-13,61
-4,-13,61
-5,-13,61
-5,-13,61
-5,-13,61
-4,-13,61
-3,-13,61
-4,-13,61
-4,-13,61
-5,-13,61
-5,-13,61
-5,-13,61
-5,-14,61
-5,-13,61
-5,-13,61
-5,-13,61
-5,-13,61
-5,-14,61
-5,-13,61
-5,-13,61
-5,-14,61
-6,-14,61
-5,-14,61
-5,-13,61
-4,-13,61
-5,-14,61
-6,-13,61
-6,-14,61
-6,-14,61
-5,-14,61
-5,-14,61
-5,-14,61
-5,-14,61
-5,-13,61
-6,-14,61
-5,-14,61
-5,-14,61
-6,-14,61
-6,-14,61
-6,-13,61
-6,-13,61
-5,-13,61
-5,-14,61
-5,-13,61
-5,-13,61
-5,-13,61
-5,-14,61
-6,-14,61
-6,-14,61
-6,-13,61
-6,-14,61
-6,-14,61
-5,-14,61
-5,-13,61
-5,-13,61
-6,-13,61
-6,-13,61
-6,-13,61
-5,-13,61
-5,-13,61
-6,-14,61
-6,-14,61
-6,-13,61
-6,-13,62
-6,-13,61
-6,-13,61
-5,-13,61
-5,-13,61
-5,-13,61
-5,-13,61
-5,-13,62
-5,-13,61
-5,-13,61
-7,-14,61
-7,-13,61
-6,-13,61
-5,-14,61
-5,-13,61
-5,-13,61
-5,-13,61
-4,-13,61
-4,-13,62
-5,-13,61
-6,-14,61
-6,-14,61
-5,-14,62
-5,-13,61
-7,-13,61
-8,-14,60
-8,-14,60
-3,-13,61
-3,-12,61
-4,-12,61
-7,-14,61
-6,-14,62
-5,-14,61
-4,-12,61
-4,-13,62
-6,-14,61
-8,-15,61
-7,-13,61
-5,-13,61
-2,-13,61
-3,-12,61
-4,-12,61
-5,-13,62
-7,-13,61
-7,-13,60
-6,-14,61
-4,-13,61
-4,-13,61
-6,-13,61
-7,-13,61
-7,-13,61
-6,-13,61
-5,-13,61
-4,-13,61
-5,-13,61
-6,-13,61
-6,-13,61
-6,-13,61
-6,-13,61
-7,-13,61
-6,-13,61
-6,-13,61
-5,-13,61
-6,-13,61
-6,-13,61
-6,-13,61
-5,-13,61
-5,-13,61
-7,-13,61
-6,-13,61
-6,-13,61
-7,-13,61
-6,-13,60
-6,-13,61
-7,-13,61
-7,-13,61
-6,-13,61
-6,-13,61
-7,-13,61
-6,-13,61
-5,-13,61
-6,-13,61
-7,-13,61
-7,-13,61
-6,-13,61
-6,-13,61
-6,-13,61
-7,-13,61
-6,-13,61
-6,-13,61
-7,-13,61
-7,-13,61
-7,-13,61
-7,-12,61
-7,-12,61
-7,-13,61
-7,-13,61
-7,-13,61
-7,-13,61
-6,-13,61
-6,-13,61
-6,-13,61
-7,-12,61
-6,-13,62
-8,-13,61
-8,-13,61
-8,-14,61
-7,-13,61
-7,-13,61
-6,-13,61
-7,-13,61
-8,-13,61
-7,-13,61
-7,-13,61
-8,-13,61
-7,-13,61
-7,-13,61
-7,-14,61
-8,-14,61
-7,-13,61
-6,-13,61
-7,-13,61
-7,-13,61
-7,-13,61
-8,-13,61
-7,-13,61
-7,-13,61
-7,-14,61
-8,-14,61
-8,-13,61
-7,-13,61
-7,-13,61
-8,-13,61
-8,-13,61
-8,-14,61
-9,-14,60
-9,-14,61
-7,-14,61
-7,-14,61
-7,-14,61
-8,-13,61
-8,-13,61
-8,-14,61
-8,-14,61
-8,-13,61
-8,-13,60
-8,-13,61
-8,-14,61
-8,-14,61
-8,-13,61
-9,-13,61
-8,-14,60
-7,-14,61
-8,-14,61
-8,-13,61
-8,-13,61
-8,-13,61
-8,-13,60
-8,-13,61
-8,-13,61
-7,-13,61
-6,-13,61
-6,-13,61
-8,-13,60
-8,-13,60
-7,-13,61
-7,-13,61
-7,-13,61
-7,-13,61
-8,-13,61
-8,-13,61
-7,-13,61
-7,-13,61
-6,-13,61
-7,-13,61
-7,-13,61
-8,-13,61
-7,-13,61
-7,-13,61
-7,-13,61
-8,-13,61
-7,-13,61
-7,-13,61
-7,-13,61
-7,-13,61
-7,-13,61
-8,-13,61
-8,-13,61
-7,-13,61
-8,-13,61
-7,-13,61
-8,-13,61
-8,-13,61
-8,-13,61
-8,-13,61
-8,-13,61
-7,-13,61
-8,-13,61
-8,-13,61
-8,-13,61
-8,-13,61
-7,-13,61
-7,-13,61
-8,-13,61
-9,-13,61
-8,-13,61
-8,-13,61
-8,-13,61
-8,-13,61
-8,-13,61
-7,-13,61
-7,-13,61
-7,-13,61
-8,-13,61
-8,-13,61
-8,-13,61
-8,-13,61
-9,-13,61
-8,-13,61
-7,-13,61
-8,-13,61
-8,-13,61
-7,-13,61
-8,-13,61
-8,-13,61
-7,-13,61
-8,-13,61
-8,-13,61
-8,-13,61
-8,-13,61
-7,-13,61
-8,-13,61
-8,-13,61
-8,-13,61
-8,-13,61
-8,-13,61
-7,-13,61
-7,-13,61
-9,-13,61
-9,-13,61
-8,-14,61
-8,-13,61
-8,-13,61
-8,-13,61
-8,-13,61
-7,-13,61
-8,-13,61
-8,-13,61
-8,-13,61
-8,-13,61
-8,-13,61
-8,-13,60
-7,-14,61
-8,-14,61
-8,-13,61
-8,-13,61
-7,-13,61
-8,-13,61
-8,-13,61
-8,-13,61
-7,-13,61
-8,-13,61
-8,-13,61
-8,-13,61
-8,-13,61
-8,-13,61
-8,-13,61
-8,-13,61
-7,-13,61
-7,-13,61
-8,-13,61
-8,-13,61
-8,-13,61
-7,-13,61
-8,-13,61
-8,-13,61
-8,-13,61
-7,-13,61
-8,-13,61
-8,-13,61
-7,-13,61
-8,-13,61
-8,-13,61
-8,-13,61
-7,-13,61
-8,-13,61
-7,-13,61
-8,-13,61
-8,-13,61
-7,-13,61
-8,-13,61
-8,-13,61
-8,-13,61
-8,-13,61
-8,-13,61
-7,-13,61
-7,-13,61
-7,-13,61
-7,-13,61
-8,-13,61
-8,-13,61
-8,-13,61
-7,-13,61
-8,-13,61
-8,-13,61
-8,-13,61
-7,-13,61
-8,-13,61
-8,-13,61
-7,-13,61
-8,-13,61
-8,-13,61
-8,-13,61
-7,-13,61
-8,-13,61
-8,-13,60
-8,-13,61
-7,-13,61
-8,-13,61
-8,-13,60
-8,-13,61
-7,-13,61
-7,-13,61
-7,-13,61
-8,-13,61
-8,-13,61
-9,-14,60
-9,-13,61
-8,-13,61
-7,-13,61
-8,-13,61
-8,-13,61
-7,-13,61
-7,-13,61
-8,-13,61
-8,-13,61
-8,-13,61
-8,-13,60
-8,-13,61
-8,-13,61
-9,-13,61
-9,-14,61
-8,-13,60
-7,-13,61
-8,-13,61
-8,-13,61
-8,-13,61
-8,-13,61
-8,-14,61
-8,-14,61
-9,-13,61
-8,-13,61
-8,-13,61
-9,-13,61
-9,-14,61
-8,-13,61
-8,-14,61
-9,-13,61
-8,-13,61
-8,-13,61
-9,-13,61
-9,-13,61
-9,-14,61
-9,-13,61
-9,-13,61
-8,-13,60
-9,-13,61
-8,-13,61
-9,-13,61
-8,-13,61
-8,-14,61
-9,-14,61
-9,-13,61
-9,-13,61
-9,-13,61
-9,-13,61
-9,-14,61
-9,-13,61
-9,-13,61
-8,-13,61
-9,-13,61
-9,-13,61
-8,-13,61
-8,-13,61
-9,-14,61
-9,-13,60
-8,-13,61
-8,-13,61
-8,-13,61
-9,-13,61
-9,-13,61
-8,-13,61
-9,-14,61
-9,-13,61
-9,-13,61
-8,-13,61
-8,-13,61
-8,-13,61
-8,-13,61
-8,-13,61
-9,-13,61
-8,-13,61
-8,-13,61
-8,-13,61
-8,-13,61
-9,-13,61
-9,-13,61
-9,-13,61
-8,-13,61
-9,-13,61
-8,-13,61
-8,-13,61
-8,-13,61
-9,-13,61
-9,-13,61
-9,-13,61
-9,-13,61
-9,-13,61
-9,-13,61
-9,-13,61
-8,-13,61
-8,-13,61
-9,-13,61
-9,-13,61
-9,-13,61
-9,-13,61
-9,-13,61
-9,-13,61
-9,-13,61
-9,-13,61
-9,-13,61
-9,-13,61
-9,-13,61
-9,-13,61
-9,-13,61
-10,-13,61
-10,-13,61
-10,-13,60
-9,-13,60
-9,-13,61
-9,-13,61
-9,-13,61
-10,-13,60
-10,-13,61
-9,-13,61
-9,-13,61
-10,-13,61
-9,-13,61
-9,-13,61
-9,-13,60
-10,-13,61
-10,-13,61
-9,-13,61
-10,-13,61
-10,-13,61
-9,-13,61
-9,-13,61
-9,-13,61
-9,-13,61
-9,-13,61
-10,-13,61
-10,-13,60
-10,-13,61
-9,-13,61
-9,-13,61
-8,-13,60
-8,-13,61
-8,-13,61
-8,-13,61
-8,-12,61
-8,-13,61
-8,-13,61
-8,-13,61
-8,-13,61
-9,-13,61
-8,-13,61
-8,-13,61
-9,-13,61
-9,-13,61
-9,-13,61
-9,-13,61
-9,-13,61
-8,-13,61
-8,-13,61
-9,-13,61
-9,-13,61
-8,-13,61
-9,-13,61
-9,-13,61
-10,-13,61
-9,-13,61
-8,-13,61
-9,-13,61
-9,-13,61
-9,-13,61
-9,-13,61
-9,-13,60
-9,-13,61
-8,-13,61
-8,-13,61
-8,-13,61
-9,-13,61
-9,-13,61
-9,-13,61
-9,-13,61
-9,-13,61
-9,-13,61
-9,-13,61
-9,-13,61
-9,-13,61
-8,-13,61
-8,-13,61
-9,-13,61
-9,-13,61
-10,-13,61
-9,-13,60
-9,-13,61
-9,-14,61
-10,-13,60
-10,-13,61
-9,-13,61
-9,-13,61
-8,-13,60
-9,-13,61
-9,-13,61
-9,-13,61
-9,-13,61
-9,-13,61
-10,-14,60
-11,-14,60
-11,-13,60
-10,-13,61
-9,-13,61
-9,-13,61
-9,-13,61
-9,-13,61
-9,-14,61
-10,-13,61
-10,-14,61
-10,-14,60
-10,-13,60
-10,-13,60
-10,-13,61
-10,-13,61
-10,-13,61
-10,-13,61
-10,-14,60
-9,-14,61
-9,-13,60
-9,-13,61
-8,-13,61
-9,-13,61
-9,-13,61
-9,-13,61
-8,-13,61
-9,-13,61
-10,-13,61
-9,-13,61
-8,-13,61
-9,-13,61
-9,-13,61
-9,-13,61
-9,-13,61
-9,-13,61
-9,-13,61
-9,-13,61
-10,-14,60
-10,-13,61
-9,-13,61
-9,-13,61
-9,-13,61
-9,-13,61
-8,-13,61
-8,-13,61
-9,-13,61
-10,-13,61
-10,-13,61
-9,-13,61
-9,-13,61
-9,-13,61
-9,-13,61
-9,-13,61
-9,-13,61
-9,-13,61
-10,-13,61
-9,-13,61
-8,-13,61
-8,-13,61
-8,-13,61
-9,-13,60
-9,-13,61
-9,-13,61
-9,-13,61
-9,-13,61
-9,-13,61
-9,-13,61
-9,-13,61
-9,-13,61
-9,-13,61
-9,-13,61
-9,-13,61
-9,-13,61
-8,-13,61
-8,-13,61
-9,-13,61
-9,-13,61
-9,-13,61
-8,-13,61
-8,-13,61
-9,-13,61
-9,-13,61
-8,-13,61
-9,-13,61
-8,-13,61
-9,-13,61
-9,-13,61
-8,-13,61
-8,-13,61
-8,-13,61
-9,-13,61
-8,-13,61
-8,-13,61
-9,-13,61
-9,-13,61
-9,-13,61
-9,-13,61
-9,-13,61
-9,-13,61
-9,-13,61
-9,-13,61
-8,-13,61
-9,-13,61
-9,-13,61
-9,-13,61
-8,-13,61
-8,-13,61
-9,-13,61
-9,-13,61
-8,-13,61
-8,-13,61
-9,-13,61
-9,-13,61
-9,-13,61
-9,-13,61
-9,-13,61
-9,-13,61
-9,-13,61
-9,-13,61
-9,-13,61
-9,-13,61
-9,-13,61
-9,-13,61
-9,-13,61
-10,-13,61
-9,-13,61
-9,-13,61
-9,-13,61
-9,-13,61
-9,-13,61
-9,-13,60
-9,-13,61
-9,-13,61
-10,-13,61
-10,-13,60
-10,-13,61
-10,-13,61
-10,-13,61
-9,-13,61
-9,-13,61
-9,-13,60
-9,-13,61
-10,-13,61
-10,-13,61
-9,-13,61
-10,-13,61
-10,-13,61
-10,-13,61
-9,-13,61
-10,-13,61
-10,-13,61
-9,-13,61
-9,-13,61
-9,-13,61
-10,-13,61
-9,-13,61
-9,-13,61
-10,-13,61
-9,-13,60
-9,-13,61
-9,-13,61
-10,-13,61
-10,-13,61
-9,-13,61
-10,-13,61
-10,-13,61
-9,-13,61
-10,-13,61
-10,-13,61
-9,-13,61
-9,-13,61
-9,-13,61
-9,-13,61
-9,-13,61
-9,-13,61
-9,-13,61
-9,-13,61
-10,-13,61
-9,-13,61
-9,-13,61
-9,-13,61
-9,-13,61
-9,-13,61
-9,-13,60
-9,-13,61
-9,-13,61
-9,-13,61
-9,-13,61
-10,-13,61
-9,-13,61
-9,-13,61
-9,-13,61
-9,-13,61
-9,-13,61
-9,-13,61
-9,-13,61
-10,-13,61
-9,-13,61
-9,-13,61
-10,-13,61
-9,-13,61
-9,-13,61
-9,-13,61
-9,-13,61
-9,-13,61
-9,-13,61
-9,-13,61
-9,-13,61
-9,-13,61
-9,-13,61
-9,-13,61
-9,-13,61
-9,-13,61
-9,-13,61
-9,-13,61
-9,-13,61
-9,-13,61
-9,-13,61
-9,-13,61
-9,-13,61
-9,-13,61
-9,-13,61
-9,-13,61
-9,-13,61
-9,-13,61
-9,-13,61
-9,-13,61
-9,-13,61
-9,-13,61
-9,-13,60
-9,-13,61
-9,-13,61
-9,-13,61
-9,-13,61
-9,-13,61
-9,-13,61
-9,-13,61
-9,-13,61
-9,-13,61
-9,-13,61
-9,-13,61
-9,-13,61
-8,-13,61
-9,-13,61
-9,-13,61
-9,-13,61
-9,-13,61
-9,-13,61
-9,-13,61
-9,-13,61
-9,-13,61
-9,-13,61
-9,-13,61
-9,-13,61
-9,-13,61
-9,-13,61
-9,-13,61
-9,-13,61
-9,-13,61
-9,-13,61
-9,-13,60
-8,-13,61
-9,-13,61
-9,-13,61
-9,-13,61
-10,-13,61
-9,-13,60
-8,-13,61
-8,-13,61
-9,-13,60
-9,-13,61
-9,-13,61
-9,-13,61
-9,-13,61
-9,-13,61
-9,-13,61
-10,-13,61
-9,-13,61
-9,-13,61
-8,-13,61
-9,-13,61
-9,-13,61
-9,-13,61
-9,-13,61
-9,-13,61
-9,-13,61
-9,-12,61
-9,-13,61
-9,-13,60
-9,-14,61
-9,-13,61
-9,-13,61
-9,-13,61
-9,-13,61
-9,-13,61
-9,-13,61
-9,-13,61
-9,-13,61
-9,-13,61
-9,-13,61
-9,-13,61
-9,-12,61
-9,-13,61
-9,-13,61
-8,-12,61
-8,-13,61
-8,-13,61
-9,-13,61
-9,-13,61
-9,-12,61
-10,-13,61
-9,-13,61
-8,-13,61
-9,-12,61
-8,-13,61
-9,-13,61
-9,-13,61
-9,-13,61
-9,-13,61
-9,-13,61
-9,-13,61
-9,-13,61
-9,-13,61
-9,-13,61
-9,-13,61
-9,-13,61
-8,-13,61
-8,-13,61
-9,-13,61
-9,-13,61
-9,-13,61
-9,-13,61
-9,-13,61
-9,-13,61
-9,-13,61
-8,-13,61
-8,-13,61
-9,-13,61
-9,-13,61
-9,-13,61
-9,-13,61
-9,-13,61
-9,-13,61
-9,-13,61
-9,-13,61
-8,-13,61
-9,-13,61
-9,-13,61
-9,-13,61
-9,-13,61
-9,-13,61
-9,-13,61
-8,-13,61
-8,-13,61
-9,-13,61
-9,-13,61
-9,-13,61
-9,-13,61
-8,-13,61
-8,-13,61
-9,-13,61
-9,-13,61
-9,-13,61
-9,-13,61
-9,-13,61
-9,-13,61
-8,-13,61
-9,-13,61
-9,-13,61
-8,-13,61
-9,-13,61
-9,-13,61
-9,-13,61
-8,-13,61
-9,-13,61
-9,-13,60
-8,-13,61
-8,-13,61
-9,-13,61
-9,-13,61
-8,-13,61
-9,-13,61
-9,-13,61
-9,-13,61
-9,-13,61
-9,-13,61
-9,-13,61
-9,-13,61
-9,-13,61
-9,-13,61
-9,-13,61
-9,-13,61
-8,-13,61
-9,-13,61
-9,-13,61
-9,-13,61
-9,-13,61
-9,-13,61
-9,-13,61
-9,-13,61
-9,-13,61
-9,-12,61
-9,-13,61
-9,-13,61
-9,-13,61
-9,-13,61
-9,-13,61
-9,-13,61
-9,-13,61
-9,-13,61
-8,-13,61
-9,-13,61
-9,-13,61
-10,-13,61
-9,-13,61
-9,-13,61
-9,-13,61
-9,-13,61
-9,-13,61
-9,-13,61
-9,-13,61
-9,-13,61
-9,-13,61
-9,-13,61
-9,-13,61
-9,-13,61
-10,-13,60
-10,-14,60
-11,-13,60
-9,-14,61
-9,-13,61
-10,-13,61
-9,-13,61
-9,-13,60
-11,-13,60
-10,-13,61
-9,-13,61
-10,-13,61
-10,-13,61
-10,-13,61
-10,-13,60
-10,-14,61
-10,-13,61
-10,-13,60
-10,-13,61
-10,-13,61
-10,-13,60
-10,-13,60
-10,-13,60
-10,-14,61
-10,-13,61
-10,-13,60
-10,-13,61
-10,-13,61
-10,-14,60
-10,-13,61
-10,-13,61
-10,-13,60
-10,-13,61
-10,-14,61
-10,-13,61
-11,-13,60
-10,-13,61
-9,-13,61
-10,-13,61
-10,-13,60
-10,-13,61
-10,-13,61
-10,-13,61
-10,-13,61
-10,-14,61
-10,-14,61
-9,-13,61
-10,-13,60
-10,-13,60
-10,-14,61
-10,-14,61
-10,-13,61
-10,-13,61
-10,-13,61
-10,-13,61
-10,-13,60
-10,-13,61
-10,-13,61
-10,-13,61
-10,-14,61
-10,-13,61
-10,-13,60
-10,-13,61
-10,-13,61
-10,-13,61
-10,-13,61
-10,-13,61
-10,-13,60
-10,-13,61
-10,-13,61
-9,-13,62
-9,-13,61
-11,-13,60
-10,-14,60
-10,-14,60
-6,-13,61
-6,-12,61
-7,-13,61
-10,-13,60
-10,-13,61
-9,-13,61
-11,-14,61
-11,-14,60
-9,-14,60
-7,-13,62
-9,-13,61
-9,-13,61
-9,-13,61
-8,-13,61
-8,-13,61
-8,-13,61
-10,-13,61
-10,-13,61
-9,-13,61
-9,-13,61
-9,-13,61
-9,-13,61
-8,-13,61
-8,-13,61
-9,-13,61
-9,-13,61
-9,-13,61
-9,-13,61
-9,-13,61
-9,-13,61
-9,-13,61
-9,-13,61
-9,-13,61
-8,-13,61
-8,-13,61
-9,-13,61
-9,-13,61
-9,-13,61
-9,-13,61
-9,-13,61
-9,-13,61
-9,-13,61
-9,-13,61
-9,-13,61
-9,-13,61
-8,-13,61
-9,-13,61
-9,-13,61
-9,-13,61
-9,-13,61
-9,-13,61
-9,-13,60
-9,-14,61
-9,-13,61
-9,-13,61
-9,-13,61
-9,-13,61
-10,-13,61
-8,-14,62
-9,-13,61
-9,-13,61
-9,-13,61
-9,-13,60
-9,-13,61
-9,-13,61
-9,-13,61
-9,-13,61
-9,-13,61
-9,-13,61
-9,-13,61
-9,-13,61
-8,-13,61
-8,-13,61
-8,-13,61
-9,-14,61
-9,-13,61
-10,-13,61
-9,-14,61
-8,-14,61
-8,-13,61
-8,-13,61
-9,-13,61
-9,-13,61
-9,-13,61
-8,-13,61
-8,-13,61
-8,-13,61
-8,-13,61
-9,-13,61
-10,-13,61
-9,-13,60
-8,-13,61
-8,-12,61
-9,-13,61
-9,-13,61
-10,-14,61
-8,-13,61
-8,-13,61
-9,-13,61
-9,-12,61
-8,-13,61
-9,-13,61
-10,-13,61
-10,-13,61
-8,-13,60
-8,-13,61
-8,-13,61
-9,-13,61
-10,-13,61
-9,-13,61
-8,-13,61
-8,-13,61
-9,-13,61
-9,-13,61
-9,-13,61
-9,-13,61
-9,-13,61
-9,-13,61
-9,-13,60
-9,-13,61
-9,-13,61
-9,-13,61
-9,-14,61
-10,-14,60
-10,-13,61
-9,-13,61
-9,-13,61
-9,-13,61
-9,-13,61
-9,-13,61
-9,-13,60
-9,-13,61
-9,-13,61
-9,-13,61
-9,-13,61
-10,-13,61
-10,-13,60
-9,-13,60
-8,-14,61
-9,-14,60
-9,-13,61
-9,-13,61
-9,-13,61
-9,-13,61
-9,-13,61
-10,-13,61
-9,-14,61
-9,-14,61
-8,-14,61
-9,-13,61
-8,-13,61
-8,-13,61
-7,-13,61
-7,-13,61
-8,-13,61
-8,-13,61
-8,-13,61
-9,-13,61
-9,-13,60
-8,-14,61
-8,-14,61
-8,-13,61
-9,-13,61
-8,-13,61
-8,-13,61
-7,-13,61
-8,-13,61
-8,-13,61
-8,-14,61
-8,-14,61
-8,-13,61
-8,-13,61
-8,-13,61
-8,-13,61
-8,-14,61
-8,-13,61
-8,-13,61
-8,-13,61
-8,-13,61
-8,-13,61
-7,-13,61
-8,-13,61
-8,-13,61
-8,-13,61
-8,-14,61
-8,-13,61
-7,-13,61
-7,-13,61
-8,-13,61
-8,-13,61
-8,-13,61
-8,-13,61
-8,-13,61
-8,-13,61
-8,-13,61
-7,-13,61
-8,-13,61
-8,-13,61
-8,-13,61
-8,-13,61
-9,-13,61
-8,-13,60
-8,-13,61
-7,-13,61
-8,-13,61
-9,-13,61
-8,-13,61
-8,-13,61
-8,-13,61
-8,-13,61
-8,-13,61
-8,-13,61
-9,-13,61
-8,-14,61
-8,-13,61
-8,-13,61
-8,-13,61
-8,-13,61
-8,-13,61
-8,-13,60
-8,-13,61
-7,-13,61
-8,-13,61
-7,-13,61
-8,-13,61
-9,-13,61
-9,-14,60
-8,-13,60
-8,-13,62
-9,-13,62
-11,-14,60
-10,-13,60
-8,-13,61
-7,-13,62
-8,-13,60
-9,-13,60
-9,-13,61
-9,-13,61
-8,-13,60
-8,-14,61
-10,-14,61
-10,-13,61
-9,-13,61
-9,-13,61
-8,-13,61
-8,-13,61
-8,-13,61
-8,-13,61
-9,-13,61
-9,-13,61
-9,-13,61
-9,-13,61
-9,-13,61
-9,-13,61
-9,-13,61
-9,-13,61
-8,-13,61
-9,-13,61
-8,-13,61
-8,-13,61
-9,-13,61
-9,-13,61
-9,-13,61
-9,-13,61
-8,-13,61
-8,-13,61
-8,-13,61
-10,-13,61
-9,-13,61
-8,-13,61
-8,-13,61
-8,-13,61
-9,-13,61
-9,-13,61
-8,-13,61
-8,-13,61
-8,-13,61
-8,-13,61
-9,-13,61
-9,-13,60
-8,-12,61
-10,-13,61
-11,-13,61
-10,-14,59
-7,-13,61
-7,-13,62
-9,-12,61
-11,-13,60
-11,-13,60
-10,-14,61
-8,-13,61
-8,-13,61
-9,-13,60
-10,-12,61
-10,-13,61
-8,-13,61
-8,-13,61
-8,-13,61
-9,-13,61
-9,-13,61
-9,-13,61
-10,-13,61
-9,-13,61
-9,-13,61
-8,-13,61
-8,-13,61
-9,-13,61
-9,-13,61
-9,-13,61
-9,-13,61
-9,-13,61
-9,-13,61
-10,-13,60
-8,-13,60
-8,-13,61
-9,-13,61
-11,-13,60
-11,-14,60
-9,-14,60
-7,-13,61
-8,-13,61
-10,-13,61
-10,-13,61
-9,-13,61
-8,-13,61
-8,-13,61
-9,-13,61
-9,-13,61
-9,-13,61
-8,-13,61
-8,-13,61
-8,-13,61
-8,-13,61
-8,-13,61
-9,-13,61
-9,-13,61
-9,-13,60
-8,-13,61
-9,-13,61
-8,-13,61
-9,-13,61
-9,-13,60
-9,-13,61
-9,-13,61
-8,-13,61
-9,-13,61
-9,-13,61
-9,-13,61
-9,-13,61
-8,-13,61
-8,-13,61
-9,-13,61
-9,-13,61
-9,-13,61
-10,-13,61
-10,-13,62
-7,-13,61
-8,-13,60
-8,-13,61
-7,-13,61
-8,-13,61
-9,-13,61
-9,-13,61
-8,-13,61
-8,-13,61
-8,-13,61
-9,-13,61
-9,-13,61
-8,-13,61
-8,-13,61
-8,-13,61
-8,-13,61
-8,-12,61
-8,-12,61
-8,-13,61
-8,-13,61
-8,-13,61
-8,-13,61
-8,-13,61
-8,-13,61
-9,-13,61
-9,-13,61
-8,-13,61
-8,-13,61
-8,-13,61
-8,-13,61
-8,-13,61
-8,-13,61
-8,-13,61
-8,-13,61
-8,-13,61
-8,-13,61
-8,-13,61
-9,-13,61
-8,-13,61
-8,-13,61
-8,-13,61
-8,-13,61
-8,-13,61
-9,-13,61
-9,-13,61
-8,-13,61
-8,-13,61
-8,-13,61
-8,-13,61
-8,-13,61
-8,-13,61
-8,-13,61
-8,-13,61
-9,-13,61
-9,-13,61
-9,-13,61
-8,-13,61
-9,-13,61
-9,-13,61
-8,-13,61
-8,-13,61
-8,-13,61
-9,-13,61
-9,-13,61
-9,-13,61
-9,-13,61
-9,-13,61
-8,-13,61
-8,-13,61
-9,-13,61
-8,-13,61
-8,-13,61
-8,-13,61
-8,-13,61
-8,-13,61
-8,-13,61
-9,-13,61
-8,-13,61
-8,-13,61
-8,-13,61
-8,-13,61
-9,-13,61
-8,-13,61
-8,-13,61
-8,-13,61
-8,-13,61
-8,-12,61
-8,-13,61
-8,-13,61
-8,-12,61
-8,-13,61
-8,-13,61
-8,-13,61
-8,-13,61
-8,-13,61
-8,-13,61
-8,-13,61
-8,-13,61
-8,-13,61
-8,-13,61
-10,-12,61
-10,-13,60
-9,-13,60
-6,-13,61
-8,-13,61
-10,-13,60
-10,-13,61
-7,-13,62
-8,-13,61
-9,-13,61
-8,-13,61
-8,-13,61
-8,-13,61
-8,-13,61
-8,-13,61
-7,-12,61
-8,-13,61
-9,-12,61
-9,-13,61
-8,-13,61
-8,-13,61
-8,-13,61
-7,-13,61
-8,-13,61
-8,-13,61
-7,-13,61
-7,-13,61
-8,-13,61
-8,-13,60
-8,-13,61
-8,-13,61
-9,-13,61
-9,-13,61
-8,-13,61
-8,-13,61
-8,-13,61
-8,-13,61
-7,-13,61
-7,-13,61
-8,-13,61
-8,-13,61
-8,-13,61
-8,-13,61
-7,-13,61
-7,-13,61
-7,-13,61
-9,-13,61
-10,-13,61
-8,-13,61
-6,-13,61
-6,-13,61
-8,-13,61
-9,-13,60
-8,-13,61
-8,-13,61
-8,-13,61
-8,-13,61
-7,-13,61
-7,-13,61
-8,-13,61
-8,-13,61
-7,-13,61
-7,-13,61
-7,-13,61
-7,-13,61
-7,-13,61
-8,-13,61
-8,-12,61
-7,-13,61
-8,-13,61
-9,-13,61
-8,-13,61
-6,-12,61
-6,-12,62
-7,-12,61
-7,-12,61
-8,-13,61
-8,-13,61
-8,-13,61
-8,-13,61
-7,-13,62
-8,-12,61
-8,-12,61
-7,-13,61
-8,-13,61
-8,-13,61
-7,-13,61
-8,-12,61
-8,-12,61
-8,-13,61
-8,-13,61
-8,-13,61
-7,-13,61
-7,-13,61
-7,-13,61
-7,-13,61
-7,-13,61
-7,-12,61
-8,-13,61
-8,-13,61
-7,-13,61
-7,-13,61
-7,-13,61
-7,-12,61
-7,-13,61
-7,-13,61
-7,-12,61
-7,-13,61
-7,-13,61
-8,-13,61
-7,-13,61
-8,-13,61
-8,-13,61
-8,-13,61
-7,-13,61
-7,-13,61
-7,-13,61
-7,-13,61
-8,-13,61
-7,-13,61
-7,-13,61
-7,-13,61
-7,-13,61
-7,-13,61
-8,-13,61
-8,-13,61
-7,-13,61
-7,-13,61
-7,-13,61
-7,-13,61
-7,-13,61
-7,-13,61
-7,-13,61
-8,-13,61
-7,-13,61
-7,-13,61
-7,-13,61
-8,-13,61
-7,-13,61
-7,-13,61
-8,-13,61
-7,-13,61
-6,-13,61
-7,-13,61
-8,-13,61
-8,-13,61
-7,-13,61
-7,-13,61
-8,-13,61
-7,-13,61
-7,-13,61
-7,-13,61
-7,-13,61
-7,-13,61
-7,-13,61
-7,-13,61
-7,-13,61
-7,-13,61
-7,-13,61
-7,-13,62
-7,-12,61
-7,-13,61
-7,-13,61
-7,-13,61
-8,-12,61
-7,-13,61
-8,-13,61
-8,-13,61
-7,-13,61
-7,-13,61
-7,-13,61
-7,-13,61
-7,-13,62
-8,-13,61
-8,-13,61
-7,-13,61
-7,-13,61
-8,-13,61
-7,-13,61
-7,-13,61
-8,-13,61
-7,-12,61
-7,-13,61
-7,-13,61
-8,-13,61
-7,-12,61
-8,-13,61
-8,-13,61
-8,-13,61
-7,-13,61
-8,-13,61
-8,-13,61
-8,-13,61
-8,-13,61
-7,-13,61
-7,-13,61
-7,-13,61
-7,-13,61
-8,-13,61
-8,-13,61
-8,-13,61
-8,-13,61
-8,-13,61
-7,-13,61
-7,-13,61
-8,-13,61
-8,-13,61
-7,-13,61
-7,-13,61
-7,-13,61
-8,-13,61
-8,-13,61
-8,-13,61
-7,-13,61
-7,-13,61
-7,-13,61
-8,-13,61
-8,-13,61
-7,-13,61
-8,-13,61
-8,-13,61
-8,-13,61
-7,-13,61
-7,-13,61
-8,-13,61
-7,-13,61
-7,-13,61
-7,-13,61
-8,-13,61
-8,-13,61
-7,-13,61
-8,-13,61
-7,-13,61
-7,-13,61
-8,-13,61
-8,-13,61
-8,-13,61
-7,-13,61
-7,-13,62
-8,-13,61
-7,-13,61
-7,-13,61
-7,-13,61
-8,-13,61
-8,-13,61
-7,-13,61
-8,-13,61
-7,-13,61
-7,-13,61
-7,-13,61
-7,-13,61
-6,-13,61
-8,-13,60
-9,-14,61
-8,-13,61
-7,-13,61
-7,-13,61
-7,-13,61
-7,-13,61
-7,-13,61
-8,-13,61
-8,-13,61
-7,-13,61
-8,-13,61
-8,-13,61
-7,-13,61
-8,-13,61
-8,-13,61
-8,-13,61
-8,-13,61
-7,-13,61
-8,-13,61
-8,-13,61
-8,-13,61
-7,-13,61
-8,-13,61
-8,-13,61
-8,-13,61
-8,-13,61
-8,-13,61
-7,-13,61
-8,-13,61
-8,-13,61
-8,-13,61
-8,-13,61
-8,-13,61
-8,-13,61
-8,-13,61
-8,-13,61
-8,-13,61
-8,-13,61
-8,-13,61
-8,-13,61
-8,-13,61
-8,-13,61
-8,-13,61
-8,-13,61
-8,-13,61
-8,-13,61
-8,-13,61
-7,-13,61
-8,-13,61
-7,-13,61
-8,-13,61
-7,-13,61
-7,-13,61
-8,-13,61
-8,-13,61
-8,-13,61
-7,-13,61
-7,-13,61
-8,-13,61
-8,-13,61
-8,-13,61
-8,-13,61
-7,-13,61
-8,-13,61
-8,-13,61
-8,-13,61
-7,-13,61
-7,-13,61
-8,-13,61
-8,-13,61
-8,-13,61
-8,-13,61
-7,-13,61
-7,-13,61
-8,-12,61
-7,-13,61
-8,-13,61
-7,-13,61
-8,-13,61
-8,-13,61
-8,-13,61
-8,-13,61
-8,-13,61
-7,-13,62
-7,-13,61
-7,-13,61
-8,-13,61
-7,-12,61
-7,-13,61
-7,-13,61
-8,-13,61
-8,-13,61
-7,-12,61
-8,-13,61
-8,-13,61
-8,-13,60
-7,-12,62
-8,-12,61
-8,-13,61
-7,-13,61
-7,-13,61
-8,-12,61
-7,-13,61
-7,-13,61
-7,-13,61
-8,-13,61
-7,-12,61
-8,-13,61
-8,-13,61
-8,-13,61
-7,-13,61
-7,-13,61
-8,-13,61
-8,-13,61
-7,-13,61
-7,-13,61
-8,-12,61
-8,-12,61
-7,-13,61
-7,-13,61
-8,-13,61
-7,-12,61
-8,-13,61
-8,-13,61
-8,-12,61
-7,-13,61
-7,-13,61
-8,-13,61
-7,-13,61
-7,-13,61
-8,-13,61
-8,-13,61
-8,-13,61
-8,-13,61
-7,-13,61
-7,-13,61
-7,-13,61
-7,-13,61
-7,-13,61
-8,-13,61
-8,-13,61
-7,-13,61
-8,-13,61
-8,-13,61
-8,-13,61
-7,-13,61
-7,-13,61
-7,-13,61
-8,-13,61
-7,-13,61
-7,-13,61
-8,-13,61
-7,-13,61
-7,-13,61
-7,-13,61
-8,-13,61
-8,-13,61
-8,-13,61
-8,-13,61
-8,-13,61
-8,-13,61
-8,-13,61
-8,-13,61
-7,-13,61
-7,-13,61
-8,-13,61
-8,-13,61
-8,-13,61
-7,-13,61
-8,-13,61
-8,-13,61
-8,-13,61
-8,-13,61
-7,-13,61
-8,-13,61
-8,-13,61
-8,-13,61
-8,-13,61
-7,-13,61
-8,-13,61
-7,-13,61
-8,-13,61
-8,-13,61
-7,-13,61
-7,-13,61
-8,-13,61
-8,-13,61
-7,-13,61
-8,-13,61
-7,-13,61
-8,-13,61
-8,-13,60
-8,-13,61
-7,-12,61
-8,-13,61
-8,-12,61
-8,-13,61
-8,-13,61
-8,-13,61
-8,-13,61
-7,-13,61
-8,-13,61
-8,-12,61
-8,-12,61
-8,-13,61
-8,-13,61
-8,-13,61
-7,-13,61
-8,-13,61
-8,-13,61
-8,-13,61
-8,-13,61
-8,-13,61
-8,-13,61
-8,-13,61
-8,-13,61
-8,-13,61
-8,-13,61
-7,-13,61
-8,-13,61
-8,-13,61
-8,-12,61
-7,-13,61
-7,-13,61
-8,-13,61
-8,-13,61
-7,-13,61
-8,-14,61
-8,-13,61
-8,-13,61
-8,-13,61
-8,-13,61
-8,-13,61
-7,-13,61
-8,-13,61
-8,-13,61
-8,-13,61
-8,-13,61
-8,-13,61
-8,-13,61
-8,-13,61
-8,-13,61
-8,-13,61
-8,-13,61
-8,-13,61
-7,-13,61
-8,-13,61
-8,-13,61
-8,-13,61
-8,-13,61
-8,-13,61
-8,-13,61
-8,-13,61
-8,-13,61
-7,-13,61
-8,-13,61
-8,-13,61
-8,-13,61
-8,-13,61
-9,-14,61
-8,-13,61
-7,-13,61
-8,-13,61
-8,-13,61
-8,-13,61
-7,-13,61
-9,-13,61
-8,-13,61
-8,-13,61
-8,-13,61
-8,-13,61
-8,-13,61
-7,-13,61
-7,-13,61
-8,-13,61
-7,-13,61
-8,-13,61
-8,-13,61
-8,-13,61
-9,-13,61
-8,-13,61
-7,-13,61
-8,-13,61
-8,-13,61
-8,-13,61
-8,-13,61
-8,-13,61
-8,-13,61
-8,-13,61
-7,-13,61
-8,-13,61
-8,-13,61
-7,-13,61
-7,-13,61
-8,-13,61
-8,-13,61
-8,-13,61
-8,-13,61
-9,-13,62
-7,-13,61
-5,-12,61
-6,-13,61
-6,-13,61
-6,-13,61
-8,-12,61
-8,-13,61
-8,-13,61
-8,-13,61
-8,-13,61
-8,-13,61
-8,-13,61
-8,-13,61
-8,-13,61
-7,-13,61
-8,-13,61
-7,-13,61
-7,-13,61
-8,-13,61
-8,-13,61
-8,-13,61
-8,-13,61
-8,-13,61
-8,-13,61
-8,-13,61
-8,-13,61
-8,-13,61
-8,-13,61
-7,-13,61
-8,-13,61
-7,-13,61
-8,-13,61
-8,-13,61
-8,-13,61
-9,-14,60
-7,-12,62
-6,-13,62
-8,-13,61
-8,-13,61
-7,-13,61
-8,-13,61
-8,-13,61
-8,-13,61
-7,-13,61
-7,-13,61
-8,-13,61
-9,-13,60
-8,-13,61
-8,-13,61
-8,-13,61
-8,-13,61
-8,-13,61
-8,-13,61
-8,-13,61
-8,-13,61
-8,-13,61
-8,-13,61
-8,-13,61
-9,-13,61
-8,-13,60
-8,-13,61
-8,-13,61
-8,-13,61
-8,-13,61
-8,-13,61
-8,-13,61
-8,-13,61
-7,-13,61
-8,-13,61
-8,-13,61
-8,-13,61
-8,-13,61
-8,-13,61
-8,-13,61
-8,-13,61
-8,-13,61
-8,-13,61
-8,-13,61
-8,-13,61
-8,-13,61
-8,-13,61
-8,-13,61
-8,-13,61
-8,-13,61
-8,-13,61
-8,-13,61
-8,-13,61
-8,-13,61
-8,-13,60
-8,-13,61
-8,-13,61
-8,-13,61
-8,-13,61
-8,-13,61
-8,-13,61
-8,-13,61
-7,-13,61
-8,-13,61
-8,-13,61
-8,-13,61
-8,-13,61
-8,-13,61
-8,-13,61
-8,-13,61
-8,-13,61
-8,-13,61
-8,-13,61
-8,-13,61
-8,-13,61
-7,-13,61
-7,-13,61
-8,-13,61
-8,-13,61
-8,-13,61
-8,-13,61
-8,-13,61
-8,-13,61
-8,-13,61
-7,-13,61
-8,-13,61
-8,-13,61
-8,-13,61
-7,-13,61
-8,-13,61
-8,-13,61
-8,-13,61
-8,-13,61
-7,-13,61
-8,-13,61
-8,-13,61
-7,-13,61
-8,-13,61
-8,-13,61
-8,-13,61
-7,-13,61
-8,-13,61
-8,-13,61
-8,-13,61
-8,-14,61
-8,-13,61
-8,-13,61
-8,-13,61
-7,-13,61
-8,-14,60
-9,-13,61
-8,-13,61
-8,-13,61
-8,-13,61
-8,-13,61
-8,-13,61
-8,-13,61
-8,-13,61
-8,-13,61
-8,-14,61
-9,-13,61
-8,-13,61
-8,-13,61
-8,-13,61
-8,-13,61
-8,-13,61
-8,-13,61
-8,-13,61
-8,-13,61
-8,-13,61
-8,-13,61
-7,-13,61
-8,-13,61
-9,-13,61
-8,-13,61
-8,-13,61
-8,-13,61
-8,-13,61
-8,-13,61
-8,-13,61
-8,-13,61
-8,-13,61
-7,-13,61
-7,-13,61
-8,-13,61
-8,-13,61
-8,-13,61
-8,-13,61
-8,-13,61
-8,-13,61
-8,-13,61
-8,-13,61
-8,-13,61
-8,-13,61
-8,-13,61
-8,-13,61
-8,-13,61
-8,-13,61
-7,-13,61
-8,-13,61
-8,-13,61
-8,-13,61
-8,-13,61
-8,-13,61
-8,-13,61
-8,-13,61
-8,-13,61
-8,-13,61
-8,-13,61
-8,-13,61
-8,-13,61
-8,-13,61
-8,-13,61
-8,-13,61
-8,-14,61
-8,-13,61
-8,-13,61
-8,-13,61
-7,-13,61
-8,-13,61
-8,-14,61
-8,-13,61
-8,-13,61
-8,-13,61
-8,-14,61
-8,-13,61
-8,-13,61
-8,-13,61
-8,-13,61
-8,-13,61
-8,-13,61
-8,-13,61
-8,-13,61
-8,-13,61
-8,-13,61
-8,-13,61
-8,-13,61
-8,-13,61
-8,-13,61
-8,-13,61
-8,-13,61
-8,-13,61
-8,-13,61
-7,-13,61
-8,-13,61
-8,-13,61
-8,-13,61
-8,-13,61
-8,-14,61
-8,-13,61
-8,-13,61
-8,-13,61
-8,-14,61
-9,-13,61
-8,-13,61
-8,-13,61
-8,-13,61
-8,-13,61
-8,-13,61
-8,-13,61
-8,-13,61
-8,-13,61
-8,-13,61
-8,-13,61
-8,-13,61
-8,-13,61
-8,-13,61
-8,-13,61
-8,-13,61
-8,-14,61
-8,-13,61
-8,-13,61
-8,-13,61
-8,-13,61
-8,-13,61
-8,-13,61
-8,-13,61
-8,-13,61
-8,-13,61
-8,-13,61
-8,-13,61
-8,-13,61
-8,-13,61
-8,-13,61
-8,-13,61
-8,-13,61
-8,-13,61
-8,-13,61
-8,-13,61
-8,-13,61
-8,-13,61
-8,-13,61
-8,-13,61
-8,-13,61
-8,-13,61
-8,-14,61
-9,-13,61
-8,-13,61
-8,-13,61
-8,-13,61
-8,-13,61
-8,-13,61
-9,-13,61
-8,-13,60
-8,-13,61
-8,-14,61
-8,-13,61
-8,-13,61
-8,-13,61
-8,-13,61
-8,-13,61
-7,-13,61
-8,-13,61
-8,-13,60
-8,-13,61
-8,-13,61
-8,-13,61
-8,-13,61
-8,-13,61
-8,-14,60
-8,-13,61
-8,-13,61
-8,-13,61
-8,-13,61
-8,-13,61
-8,-13,61
-8,-14,61
-8,-14,61
-8,-13,61
-9,-13,61
-8,-13,61
-8,-13,61
-8,-14,61
-9,-13,61
-8,-13,61
-8,-13,61
-8,-13,61
-8,-13,61
-8,-13,61
-8,-13,61
-8,-14,61
-8,-13,61
-7,-13,61
-8,-13,61
-8,-13,61
-8,-13,61
-8,-13,61
-8,-13,61
-8,-13,61
-8,-13,61
-8,-13,61
-7,-13,61
-7,-13,61
-8,-13,61
-8,-13,61
-8,-13,61
-7,-13,60
-7,-14,60
-8,-13,61
-8,-13,61
-8,-13,61
-8,-13,61
-8,-13,61
-8,-13,61
-8,-13,61
-8,-13,61
-8,-13,61
-8,-13,61
-8,-13,61
-8,-13,61
-8,-13,61
-9,-13,61
-8,-13,61
-8,-13,61
-8,-13,61
-8,-13,61
-8,-13,61
-8,-13,61
-8,-13,61
-8,-13,61
-8,-13,61
-8,-13,61
-8,-13,61
-8,-13,61
-8,-13,61
-8,-13,61
-8,-13,61
-8,-13,61
-7,-13,61
-8,-13,61
-8,-13,61
-7,-13,61
-8,-13,61
-8,-13,61
-8,-13,61
-8,-13,61
-8,-13,61
-9,-13,61
-8,-13,61
-8,-13,61
-8,-13,61
-8,-13,61
-8,-13,61
-8,-13,61
-8,-13,61
-9,-13,61
-8,-13,61
-8,-13,61
-8,-13,61
-8,-13,61
-8,-13,61
-8,-13,61
-8,-13,61
-8,-13,61
-8,-13,61
-8,-13,61
-8,-13,61
-8,-13,61
-8,-13,61
-8,-13,61
-8,-13,61
-8,-13,61
-8,-13,61
-8,-13,61
-8,-13,61
-9,-13,61
-8,-13,61
-9,-13,61
-9,-13,61
-8,-13,61
-8,-13,61
-8,-13,61
-9,-13,60
-8,-14,61
-8,-14,61
-9,-14,61
-9,-13,61
-8,-13,61
-8,-13,61
-8,-13,61
-8,-13,61
-8,-13,61
-8,-13,61
-8,-13,61
-8,-13,61
-9,-13,61
-9,-13,61
-8,-13,61
-9,-13,61
-9,-13,61
-8,-13,61
-8,-13,61
-8,-13,61
-8,-13,61
-8,-13,61
-8,-13,61
-8,-13,61
-9,-13,61
-8,-13,61
-8,-14,61
-9,-14,61
-8,-13,61
-8,-13,61
-8,-13,61
-8,-13,61
-8,-13,61
-8,-13,61
-8,-13,61
-8,-13,61
-8,-13,61
-8,-13,61
-8,-13,61
-8,-13,61
-8,-13,61
-8,-13,61
-9,-13,61
-8,-13,61
-8,-13,61
-8,-13,61
-8,-13,61
-8,-13,61
-9,-14,61
-9,-13,61
-9,-13,61
-8,-13,61
-8,-13,61
-9,-13,61
-9,-13,60
-8,-13,61
-9,-13,61
-9,-13,61
-8,-13,61
-8,-13,61
-8,-13,61
-9,-13,60
-9,-13,61
-8,-13,61
-9,-13,61
-9,-13,61
-9,-13,61
-9,-13,61
-9,-13,61
-8,-13,61
-8,-13,61
-8,-13,61
-9,-13,61
-8,-13,61
-9,-13,61
-8,-13,61
-9,-13,61
-9,-13,60
-8,-14,61
-9,-14,61
-9,-14,61
-9,-13,61
-8,-13,61
-8,-13,61
-8,-14,60
-8,-13,61
-9,-13,61
-8,-14,61
-8,-13,61
-8,-13,61
-9,-13,61
-8,-14,61
-8,-13,61
-8,-13,61
-9,-13,61
-8,-13,61
-8,-14,61
-8,-13,61
-9,-13,61
-8,-13,61
-8,-13,61
-8,-13,61
-8,-13,61
-8,-13,61
-8,-13,61
-8,-13,61
-8,-13,61
-9,-13,61
-8,-13,61
-8,-13,61
-9,-13,61
-8,-13,61
-8,-13,61
-8,-13,61
-8,-13,61
-8,-13,61
-8,-13,61
-9,-13,61
-8,-13,61
-8,-13,61
-9,-13,61
-9,-13,61
-8,-13,61
-8,-13,61
-8,-13,61
-8,-13,61
-8,-13,61
-8,-13,61
-9,-13,61
-9,-13,60
-8,-13,61
-8,-13,61
-9,-13,61
-8,-13,61
-8,-13,61
-8,-13,61
-9,-13,60
-8,-13,61
-8,-13,61
-9,-13,61
-8,-13,61
-8,-13,61
-8,-13,61
-8,-13,61
-8,-13,61
-8,-13,61
-8,-13,61
-8,-13,61
-8,-13,61
-8,-13,61
-8,-13,61
-8,-13,61
-8,-14,61
-8,-13,61
-8,-13,61
-9,-14,61
-8,-13,60
-8,-14,61
-8,-13,61
-9,-13,61
-8,-13,61
-8,-13,61
-9,-13,61
-9,-13,61
-8,-13,61
-8,-13,61
-9,-14,61
-8,-14,61
-8,-14,61
-8,-13,61
-9,-13,61
-9,-13,61
-9,-13,61
-8,-13,61
-8,-13,61
-9,-13,61
-9,-13,61
-9,-13,61
-9,-14,61
-9,-13,61
-9,-13,60
-9,-14,61
-9,-13,61
-9,-13,61
-8,-13,60
-8,-14,61
-8,-14,61
-9,-13,61
-9,-13,61
-8,-13,61
-9,-13,61
-8,-14,61
-8,-14,61
-9,-13,61
-9,-14,61
-9,-13,61
-8,-13,61
-9,-13,61
-9,-13,61
-9,-13,61
-9,-13,61
-9,-13,61
-8,-13,61
-8,-13,61
-9,-13,61
-9,-13,61
-8,-13,61
-8,-13,61
-9,-13,61
-9,-13,61
-9,-13,61
-8,-13,61
-8,-13,61
-9,-13,61
-9,-13,61
-9,-13,61
-9,-13,61
-9,-13,61
-9,-13,61
-8,-13,61
-8,-13,61
-8,-13,61
-9,-13,61
-8,-13,61
-9,-13,61
-9,-13,61
-9,-13,61
-9,-13,61
-8,-13,61
-8,-13,61
-8,-13,61
-8,-13,61
-8,-14,61
-9,-14,61
-9,-13,61
-8,-13,61
-8,-14,61
-9,-14,61
-9,-13,61
-8,-13,61
-8,-13,61
-9,-13,61
-9,-13,61
-8,-13,61
-8,-13,61
-9,-13,61
-8,-13,61
-8,-13,61
-8,-13,61
-9,-13,61
-8,-13,61
-9,-13,61
-9,-14,61
-8,-13,61
-8,-13,61
-8,-13,61
-8,-13,61
-8,-13,61
-9,-13,61
-8,-13,61
-9,-13,61
-9,-13,61
-8,-13,61
-8,-13,61
-8,-14,61
-8,-13,61
-9,-13,61
-8,-13,61
-8,-13,61
-9,-13,61
-9,-14,61
-8,-13,61
-9,-13,61
-8,-13,61
-8,-13,61
-8,-13,61
-9,-13,61
-9,-13,61
-8,-14,61
-9,-14,61
-9,-13,60
-9,-13,61
-8,-13,61
-8,-13,61
-8,-13,61
-8,-13,61
-8,-13,61
-8,-13,61
-9,-13,61
-9,-13,61
-9,-13,61
-9,-14,60
-8,-14,61
-9,-13,61
-8,-13,61
-8,-13,61
-8,-13,61
-8,-13,61
-8,-13,61
-8,-13,61
-8,-13,61
-8,-13,61
-9,-13,61
-8,-13,61
-8,-13,61
-8,-13,61
-8,-13,61
-9,-13,61
-9,-13,61
-8,-13,61
-7,-13,61
-8,-13,61
-8,-13,61
-8,-13,61
-8,-13,61
-8,-13,61
-8,-13,61
-8,-13,61
-8,-13,61
-8,-13,61
-8,-13,61
-8,-13,61
-8,-13,61
-8,-13,60
-8,-13,61
-8,-14,61
-8,-13,61
-9,-14,61
-8,-13,61
-8,-13,61
-8,-14,61
-9,-13,61
-9,-13,61
-8,-13,61
-8,-13,61
-8,-14,61
-8,-13,61
-8,-13,61
-9,-13,61
-8,-13,61
-8,-14,61
-8,-14,61
-8,-13,61
-9,-13,61
-8,-14,61
-8,-14,61
-8,-14,61
-8,-13,61
-9,-13,61
-8,-13,61
-8,-13,61
-8,-14,61
-8,-13,61
-8,-13,61
-8,-14,61
-8,-14,61
-8,-13,61
-8,-13,61
-8,-13,61
-8,-14,61
-9,-13,61
-8,-14,61
-8,-14,61
-8,-14,61
-8,-13,61
-8,-13,61
-8,-13,61
-9,-13,61
-9,-13,61
-9,-13,61
-8,-14,61
-8,-14,61
-9,-13,61
-8,-13,61
-8,-13,61
-9,-13,61
-9,-13,60
-8,-13,61
-8,-13,61
-8,-13,61
-8,-13,61
-8,-13,61
-8,-13,61
-8,-13,61
-8,-13,61
-9,-13,61
-9,-13,61
-9,-13,61
-8,-13,61
-8,-13,61
-8,-13,61
-8,-13,61
-8,-13,61
-9,-13,61
-8,-13,61
-8,-14,61
-9,-14,61
-9,-13,61
-9,-13,61
-8,-13,61
-9,-13,61
-9,-13,61
-8,-14,61
-9,-14,61
-10,-14,61
-9,-13,61
-8,-13,61
-8,-13,61
-9,-13,61
-9,-13,61
-8,-13,61
-8,-13,61
-8,-13,61
-8,-13,61
-9,-13,61
-9,-14,61
-9,-14,61
-9,-13,61
-9,-13,61
-8,-13,61
-7,-13,62
-8,-13,61
-9,-13,61
-9,-13,61
-9,-13,61
-8,-13,61
-8,-13,61
-7,-13,61
-8,-13,61
-8,-14,60
-8,-14,61
-9,-13,62
-9,-13,61
-9,-14,60
-8,-14,60
-9,-14,61
-9,-13,61
-8,-13,61
-8,-13,61
-8,-13,60
-8,-13,60
-8,-14,61
-8,-13,61
-9,-14,61
-10,-14,61
-9,-13,61
-8,-13,61
-8,-14,61
-7,-13,61
-8,-13,61
-9,-14,61
-9,-14,61
-10,-13,61
-9,-13,61
-7,-13,61
-7,-14,61
-9,-13,60
-9,-13,61
-8,-13,61
-8,-14,61
-9,-14,61
-8,-13,61
-9,-13,61
-9,-13,61
-9,-14,61
-8,-13,61
-8,-13,61
-8,-13,61
-8,-13,61
-9,-14,61
-9,-13,61
-8,-13,61
-8,-13,61
-8,-13,61
-9,-13,61
-9,-13,61
-9,-14,61
-9,-13,61
-9,-13,61
-8,-13,61
-9,-13,61
-9,-14,61
-9,-13,61
-8,-13,61
-9,-13,61
-9,-14,61
-9,-14,61
-9,-13,61
-9,-13,61
-8,-13,61
-9,-14,60
-9,-13,61
-9,-14,61
-9,-14,61
-9,-14,61
-9,-14,61
-9,-13,61
-9,-14,61
-9,-14,60
-8,-14,61
-9,-14,61
-9,-13,61
-8,-13,61
-9,-14,61
-9,-13,61
-8,-14,61
-9,-14,61
-9,-13,61
-9,-14,61
-9,-14,61
-9,-14,61
-9,-13,61
-9,-13,61
-9,-14,61
-9,-14,61
-8,-14,61
-8,-14,61
-9,-14,61
-9,-14,61
-8,-13,61
-9,-14,61
-8,-13,60
-8,-14,60
-8,-14,61
-8,-14,61
-8,-13,61
-8,-13,61
-8,-14,61
-8,-13,61
-9,-13,61
-9,-13,61
-9,-13,61
-8,-13,61
-8,-13,61
-8,-13,61
-8,-13,61
-8,-13,61
-9,-13,61
-8,-13,61
-8,-13,60
-8,-13,61
-8,-13,61
-9,-13,61
-8,-13,61
-8,-13,61
-8,-13,61
-8,-13,61
-8,-13,61
-8,-13,61
-8,-13,61
-9,-13,61
-9,-13,61
-8,-13,61
-8,-13,61
-8,-13,60
-9,-14,61
-8,-13,61
-8,-13,61
-9,-13,61
-8,-13,61
-9,-13,61
-8,-13,61
-8,-13,61
-8,-13,61
-8,-13,61
-8,-13,61
-9,-13,61
-8,-13,61
-9,-14,61
-9,-14,61
-9,-13,61
-8,-13,61
-8,-13,61
-8,-13,61
-8,-13,61
-8,-13,61
-8,-13,61
-8,-14,61
-8,-14,61
-9,-13,61
-9,-13,61
-9,-13,60
-8,-14,61
-8,-14,61
-9,-13,61
-8,-13,61
-8,-13,61
-8,-13,61
-8,-14,61
-8,-14,61
-8,-13,61
-9,-13,61
-9,-13,61
-8,-13,61
-8,-14,60
-8,-13,61
-9,-13,61
-9,-14,61
-8,-14,61
-8,-14,61
-8,-14,61
-8,-13,61
-8,-13,61
-8,-13,61
-8,-14,61
-9,-13,61
-9,-14,61
-8,-14,61
-8,-13,61
-9,-13,60
-8,-14,61
-8,-14,60
-9,-14,61
-9,-13,61
-9,-13,61
-9,-13,61
-9,-14,60
-8,-14,61
-8,-13,61
-8,-13,61
-9,-14,61
-8,-13,61
-8,-13,61
-9,-13,61
-8,-13,61
-8,-14,61
-9,-14,61
-8,-14,61
-8,-13,61
-9,-13,61
-8,-13,61
-8,-13,61
-9,-13,61
-8,-13,61
-8,-14,61
-9,-14,61
-9,-13,61
-8,-13,61
-8,-13,60
-8,-14,60
-9,-13,61
-9,-13,61
-9,-13,61
-8,-13,61
-9,-13,61
-9,-14,61
-8,-13,61
-8,-13,61
-8,-13,61
-8,-13,61
-8,-13,61
-8,-13,61
-8,-13,61
-9,-14,60
-9,-14,61
-9,-13,61
-8,-13,61
-8,-13,61
-8,-13,61
-8,-13,61
-8,-13,61
-8,-13,61
-8,-13,61
-9,-13,61
-9,-13,61
-8,-14,61
-8,-14,61
-8,-14,61
-8,-13,61
-8,-13,61
-9,-14,61
-9,-13,60
-8,-13,61
-8,-14,61
-9,-14,61
-9,-14,61
-8,-13,61
-8,-13,61
-8,-13,61
-9,-14,61
-9,-14,61
-9,-14,61
-8,-14,61
-8,-14,61
-8,-14,61
-9,-14,61
-9,-14,61
-8,-13,61
-8,-14,61
-9,-14,61
-9,-13,61
-9,-13,60
-8,-13,60
-8,-14,61
-9,-13,61
-9,-13,61
-8,-13,61
-8,-14,61
-9,-14,61
-8,-14,61
-8,-14,61
-8,-13,61
-9,-14,61
-9,-14,61
-8,-14,61
-9,-13,61
-8,-13,61
-8,-14,61
-9,-14,61
-9,-13,61
-8,-13,61
-8,-13,61
-8,-13,61
-8,-13,61
-8,-13,60
-9,-13,61
-8,-13,61
-8,-13,61
-8,-13,61
-9,-14,60
-9,-14,61
-9,-13,61
-8,-13,61
-9,-13,61
-9,-14,60
-9,-14,60
-8,-13,61
-8,-13,61
-8,-13,61
-9,-13,61
-9,-13,61
-8,-13,61
-9,-13,61
-9,-13,61
-9,-13,61
-9,-14,61
-8,-13,61
-8,-14,61
-8,-13,61
-8,-13,61
-9,-14,61
-9,-13,61
-8,-13,61
-9,-13,61
-9,-14,61
-9,-14,61
-9,-14,61
-9,-13,61
-9,-13,61
-8,-13,61
-8,-13,61
-8,-14,61
-9,-14,61
-9,-13,61
-9,-13,61
-8,-13,61
-9,-13,61
-9,-14,61
-9,-14,61
-9,-14,61
-9,-13,61
-8,-13,61
-8,-14,61
-9,-13,61
-8,-13,61
-9,-14,61
-9,-14,61
-9,-14,61
-9,-13,61
-9,-13,60
-8,-14,61
-9,-13,61
-9,-14,60
-9,-13,61
-8,-13,61
-9,-13,61
-8,-14,61
-9,-14,61
-9,-13,61
-9,-14,61
-9,-14,61
-9,-14,61
-9,-14,61
-9,-14,61
-9,-13,61
-9,-14,61
-9,-14,61
-8,-13,61
-8,-14,61
-9,-13,61
-9,-13,61
-8,-13,61
-9,-14,61
-9,-13,61
-9,-13,60
-9,-14,61
-8,-14,61
-9,-14,61
-9,-13,60
-9,-13,61
-9,-13,61
-9,-13,61
-9,-14,61
-9,-13,61
-9,-14,61
-9,-14,61
-9,-13,61
-9,-14,61
-9,-13,61
-9,-13,61
-9,-14,61
-9,-14,61
-9,-14,61
-9,-14,61
-8,-13,61
-9,-13,61
-9,-13,61
-9,-13,61
-9,-13,61
-9,-14,60
-9,-14,61
-9,-13,61
-9,-13,61
-9,-13,61
-9,-13,61
-9,-13,61
-8,-14,61
-9,-13,61
-9,-14,61
-9,-14,61
-9,-13,61
-9,-13,60
-9,-13,61
-9,-13,61
-9,-14,61
-9,-14,61
-9,-14,61
-9,-13,61
-9,-13,61
-8,-13,60
-8,-14,61
-9,-13,61
-9,-13,61
-9,-13,60
-9,-14,61
-9,-14,61
-9,-13,61
-9,-13,61
-9,-14,61
-8,-13,61
-9,-14,61
-9,-14,61
-9,-13,61
-9,-14,61
-9,-14,61
-9,-14,61
-9,-14,61
-9,-14,61
-9,-14,61
-9,-14,61
-9,-14,61
-9,-13,60
-9,-14,61
-9,-13,61
-9,-13,61
-8,-14,61
-8,-14,61
-9,-14,61
-9,-13,61
-9,-13,60
-8,-14,61
-9,-14,61
-9,-13,61
-9,-13,61
-9,-14,61
-9,-13,61
-9,-14,61
-9,-14,61
-9,-13,61
-9,-13,61
-9,-14,61
-9,-13,61
-9,-13,61
-9,-13,61
-9,-13,61
-9,-13,61
-9,-14,61
-9,-13,61
-8,-13,61
-8,-13,61
-8,-13,61
-9,-13,61
-9,-13,61
-9,-13,61
-9,-13,61
-9,-13,61
-9,-14,61
-8,-14,61
-8,-13,61
-9,-13,61
-9,-13,61
-9,-13,61
-9,-13,61
-8,-14,61
-9,-13,61
-9,-13,61
-9,-13,61
-9,-14,61
-10,-14,60
-9,-13,61
-8,-13,61
-9,-14,61
-10,-13,61
-9,-14,60
-9,-13,61
-9,-13,61
-9,-13,61
-9,-13,61
-9,-14,61
-9,-14,61
-9,-13,61
-9,-14,61
-9,-14,61
-9,-14,61
-10,-14,61
-9,-13,61
-9,-13,61
-9,-14,61
-9,-14,61
-9,-14,61
-9,-13,61
-9,-14,61
-9,-14,61
-9,-14,61
-9,-13,61
-9,-14,61
-10,-14,61
-9,-14,61
-9,-14,61
-8,-14,61
-9,-14,61
-9,-13,61
-8,-13,61
-9,-14,61
-9,-13,61
-9,-14,61
-9,-14,60
-9,-14,61
-9,-13,61
-9,-14,60
-9,-14,61
-9,-14,61
-8,-14,61
-8,-13,61
-9,-13,61
-9,-13,61
-8,-14,60
-8,-14,61
-9,-14,61
-9,-14,61
-9,-14,61
-9,-14,61
-9,-13,61
-8,-13,61
-8,-13,61
-9,-14,61
-9,-14,61
-9,-13,61
-8,-14,61
-9,-14,61
-9,-14,61
-9,-14,61
-9,-13,61
-9,-13,61
-9,-14,61
-9,-14,61
-8,-13,61
-8,-13,61
-8,-14,61
-9,-14,61
-9,-13,61
-9,-13,61
-9,-14,61
-9,-14,60
-9,-14,61
-8,-13,61
-9,-13,61
-9,-13,61
-8,-14,61
-9,-13,61
-9,-14,60
-9,-14,61
-9,-13,61
-9,-13,61
-9,-13,61
-9,-13,60
-8,-13,61
-8,-14,61
-9,-14,61
-9,-13,61
-9,-14,61
-9,-14,61
-8,-13,61
-8,-13,61
-8,-13,61
-9,-14,61
-8,-14,61
-8,-13,61
-8,-13,61
-9,-14,61
-8,-14,61
-8,-14,61
-9,-13,61
-9,-13,61
-8,-14,60
-9,-14,60
-9,-14,61
-9,-13,61
-9,-13,61
-8,-14,61
-8,-14,61
-8,-14,61
-8,-13,61
-8,-13,61
-8,-14,61
-9,-14,61
-9,-13,61
-8,-14,61
-8,-14,61
-9,-14,61
-9,-13,61
-9,-13,61
-8,-13,60
-8,-14,61
-9,-14,61
-9,-13,61
-8,-13,61
-9,-13,61
-9,-14,60
-8,-14,61
-8,-14,61
-9,-13,61
-9,-13,61
-8,-13,61
-8,-14,61
-9,-14,61
-8,-13,61
-8,-13,61
-9,-13,61
-9,-14,60
-9,-14,61
-9,-14,61
-9,-13,61
-8,-13,61
-8,-13,61
-7,-13,61
-8,-13,61
-8,-13,62
-8,-13,61
-8,-13,60
-8,-14,61
-8,-13,61
-9,-13,60
-8,-13,61
-8,-13,61
-9,-14,61
-8,-13,61
-8,-13,61
-8,-13,61
-8,-13,61
-8,-13,61
-8,-13,61
-8,-13,61
-8,-13,61
-9,-13,61
-9,-13,61
-9,-13,61
-8,-13,61
-8,-13,61
-9,-13,61
-8,-13,61
-8,-14,61
-8,-13,61
-9,-13,61
-9,-13,61
-8,-14,60
-8,-14,61
-9,-14,61
-9,-13,60
-8,-13,61
-8,-13,61
-9,-13,61
-8,-13,61
-8,-14,61
-9,-14,61
-9,-13,61
-8,-13,61
-9,-13,61
-9,-13,61
-9,-14,61
-9,-14,61
-9,-14,61
-9,-14,61
-8,-14,61
-8,-13,61
-8,-13,61
-8,-14,61
-8,-14,61
-9,-14,61
-9,-13,61
-9,-13,61
-8,-13,61
-8,-14,61
-8,-14,61
-9,-14,61
-8,-13,61
-8,-14,61
-9,-14,61
-8,-14,61
-9,-14,61
-9,-13,61
-9,-14,61
-8,-14,61
-8,-13,61
-8,-13,61
-8,-14,61
-9,-13,61
-9,-13,61
-8,-13,61
-8,-13,61
-8,-13,61
-8,-13,61
-8,-13,61
-9,-13,61
-8,-13,61
-8,-14,61
-9,-13,61
-8,-13,61
-8,-14,60
-8,-13,61
-9,-13,61
-8,-13,61
-9,-13,61
-8,-13,61
-8,-13,61
-8,-13,61
-8,-13,61
-8,-13,61
-8,-13,61
-8,-13,61
-8,-13,61
-9,-13,61
-9,-13,61
-8,-13,61
-8,-13,61
-8,-13,61
-8,-13,61
-8,-13,61
-8,-13,61
-8,-13,61
-8,-13,61
-8,-13,61
-8,-13,61
-8,-13,61
-9,-14,61
-9,-13,61
-9,-13,61
-8,-13,61
-8,-13,61
-8,-13,61
-8,-13,61
-8,-13,61
-8,-14,61
-8,-13,61
-8,-13,61
-8,-13,61
-8,-13,61
-9,-14,61
-9,-14,61
-9,-14,61
-8,-14,61
-8,-13,61
-8,-13,61
-8,-13,61
-8,-13,61
-8,-13,61
-9,-14,61
-9,-14,61
-9,-13,61
-8,-13,60
-8,-14,61
-8,-14,61
-9,-14,60
-9,-13,61
-8,-14,61
-8,-13,61
-8,-13,61
-8,-13,61
-8,-14,61
-9,-14,61
-8,-14,61
-8,-13,61
-8,-13,60
-8,-14,61
-8,-14,61
-8,-13,61
-8,-13,61
-8,-13,61
-8,-14,61
-8,-13,61
-8,-13,61
-8,-13,61
-8,-14,61
-8,-13,61
-8,-13,61
-8,-13,61
-8,-14,61
-8,-14,61
-9,-14,61
-9,-13,61
-9,-13,61
-9,-13,61
-8,-14,60
-8,-13,61
-8,-13,61
-8,-13,61
-9,-14,61
-8,-13,61
-8,-13,61
-8,-13,61
-9,-13,61
-8,-13,61
-8,-13,61
-8,-14,61
-8,-13,61
-8,-13,61
-8,-13,61
-8,-13,61
-8,-13,61
-9,-13,61
-9,-13,61
-8,-14,61
-8,-14,61
-9,-14,61
-9,-13,61
-8,-13,61
-8,-13,61
-9,-13,61
-8,-13,61
-8,-14,61
-8,-13,61
-8,-13,61
-8,-13,61
-8,-13,61
-9,-13,61
-8,-13,61
-8,-13,61
-9,-13,61
-8,-14,61
-8,-13,61
-8,-13,61
-9,-13,61
-9,-13,61
-7,-13,61
-7,-13,61
-9,-14,61
-10,-13,61
-10,-13,61
-8,-14,61
-8,-14,61
-8,-13,61
-8,-13,60
-8,-13,61
-9,-13,61
-9,-13,61
-9,-13,61
-8,-14,61
-8,-13,61
-8,-13,61
-8,-13,61
-8,-13,61
-8,-13,61
-9,-13,61
-8,-14,61
-8,-13,61
-8,-13,61
-8,-14,60
-8,-14,61
-8,-14,61
-8,-14,61
-8,-13,61
-8,-13,60
-8,-14,61
-8,-13,61
-9,-13,61
-8,-14,61
-8,-14,61
-9,-13,61
-9,-13,61
-8,-13,61
-9,-13,61
-8,-13,61
-8,-13,61
-8,-13,61
-9,-13,61
-9,-13,61
-8,-13,61
-8,-13,61
-9,-13,61
-9,-13,61
-9,-13,61
-8,-14,61
-8,-13,61
-9,-13,61
-8,-13,61
-8,-13,61
-8,-13,61
-8,-13,61
-9,-13,61
-9,-13,61
-9,-13,61
-8,-14,61
-8,-14,61
-9,-14,61
-8,-13,61
-8,-13,61
-9,-13,61
-8,-13,61
-8,-13,61
-8,-13,61
-9,-13,61
-8,-13,61
-8,-13,61
-9,-13,61
-8,-13,61
-8,-13,61
-9,-13,61
-9,-13,61
-8,-13,61
-8,-13,61
-8,-13,61
-8,-13,61
-8,-13,61
-8,-13,61
-8,-14,61
-9,-13,61
-9,-13,61
-8,-14,60
-8,-14,61
-8,-14,61
-9,-13,61
-9,-13,61
-8,-13,61
-8,-13,61
-9,-13,61
-9,-13,61
-8,-13,61
-8,-13,61
-8,-13,61
-9,-14,61
-9,-14,61
-9,-14,61
-9,-14,61
-8,-14,61
-8,-13,61
-8,-13,61
-8,-13,61
-9,-14,61
-9,-14,61
-9,-14,61
-10,-14,61
-8,-13,61
-8,-13,61
-9,-13,60
-8,-14,61
-8,-14,61
-9,-13,61
-9,-13,61
-9,-13,61
-8,-13,61
-8,-14,61
-8,-14,61
-9,-13,61
-9,-14,61
-8,-14,61
-8,-13,61
-8,-13,60
-9,-13,61
-9,-13,61
-8,-14,61
-8,-13,61
-8,-13,60
-8,-13,61
-8,-13,61
-8,-13,61
-8,-13,61
-8,-13,61
-8,-13,61
-9,-13,61
-8,-13,61
-8,-14,61
-9,-13,61
-9,-13,60
-8,-13,61
-9,-13,61
-9,-13,61
-9,-13,61
-8,-13,61
-9,-13,61
-9,-13,61
-8,-14,61
-8,-13,61
-8,-13,61
-9,-13,61
-9,-14,60
-9,-14,61
-9,-14,61
-8,-14,61
-8,-13,61
-8,-13,61
-9,-13,61
-9,-13,61
-8,-13,61
-9,-14,61
-8,-14,60
-8,-14,61
-9,-14,61
-9,-13,61
-9,-14,61
-8,-13,61
-8,-14,60
-8,-14,61
-8,-13,61
-9,-14,61
-8,-14,61
-8,-14,61
-9,-14,61
-9,-14,60
-8,-14,61
-9,-14,61
-9,-14,61
-8,-13,61
-8,-13,61
-8,-14,61
-9,-14,61
-9,-14,61
-9,-14,61
-9,-14,61
-10,-13,60
-9,-13,60
-8,-14,61
-8,-14,61
-9,-14,61
-10,-14,61
-10,-14,61
-9,-14,60
-8,-14,60
-8,-13,61
-7,-13,61
-8,-13,61
-10,-14,61
-10,-14,61
-10,-14,60
-10,-14,60
-8,-14,61
-8,-13,61
-9,-13,61
-9,-14,61
-8,-14,61
-8,-14,61
-8,-13,61
-8,-13,61
-9,-14,61
-10,-13,61
-9,-14,61
-9,-14,60
-8,-14,61
-8,-14,61
-8,-13,61
-8,-13,61
-9,-13,61
-9,-13,60
-8,-13,61
-8,-13,61
-8,-14,61
-9,-14,61
-9,-13,61
-8,-13,61
-8,-13,61
-9,-13,61
-9,-13,61
-9,-13,61
-8,-14,61
-8,-14,61
-9,-13,61
-9,-13,61
-8,-14,61
-9,-13,61
-9,-13,61
-8,-13,61
-9,-14,61
-9,-14,60
-9,-13,61
-9,-13,61
-9,-13,60
-9,-14,60
-9,-13,61
-8,-14,61
-9,-13,61
-9,-13,61
-8,-14,61
-9,-14,61
-9,-14,61
-9,-14,61
-9,-14,61
-9,-13,61
-9,-14,61
-9,-14,60
-9,-14,60
-9,-13,61
-9,-13,61
-9,-13,61
-9,-14,61
-9,-13,61
-9,-13,61
-8,-13,60
-8,-14,61
-9,-13,61
-10,-14,60
-9,-14,61
-9,-14,61
-9,-14,60
-8,-13,61
-8,-13,61
-8,-14,61
-9,-14,61
-8,-14,61
-8,-13,61
-9,-13,61
-9,-14,61
-9,-14,61
-9,-14,61
-9,-13,61
-8,-13,61
-8,-14,61
-10,-13,60
-9,-13,60
-7,-13,61
-8,-13,61
-10,-14,61
-11,-14,61
-10,-13,60
-9,-14,60
-7,-14,61
-8,-13,61
-8,-13,61
-8,-13,61
-9,-13,61
-10,-14,60
-10,-14,61
-8,-14,61
-8,-13,61
-8,-14,61
-9,-13,61
-8,-13,61
-8,-13,61
-8,-13,61
-10,-14,60
-10,-14,61
-9,-13,61
-8,-13,61
-9,-13,61
-9,-13,60
-8,-13,61
-8,-14,61
-9,-13,61
-9,-13,61
-9,-13,61
-8,-13,61
-9,-14,61
-9,-13,60
-10,-13,60
-9,-13,61
-9,-13,61
-9,-13,61
-8,-14,61
-10,-13,61
-9,-13,61
-8,-14,61
-8,-13,61
-8,-13,61
-9,-13,61
-10,-13,61
-10,-14,61
-9,-14,61
-9,-14,61
-9,-14,61
-8,-13,61
-8,-13,61
-8,-13,61
-9,-13,61
-9,-14,61
-9,-14,61
-9,-14,60
-9,-14,61
-9,-14,61
-9,-14,61
-9,-14,61
-8,-14,61
-9,-14,61
-8,-13,61
-8,-13,61
-9,-13,61
-9,-14,61
-9,-14,61
-9,-14,61
-9,-14,61
-9,-14,61
-8,-13,61
-9,-13,61
-9,-13,61
-9,-14,61
-9,-13,61
-9,-13,61
-9,-14,61
-9,-14,61
-9,-14,61
-9,-14,61
-9,-14,61
-9,-14,61
-8,-14,60
-8,-14,60
-9,-14,61
-9,-13,61
-9,-13,61
-9,-13,61
-9,-14,61
-8,-14,60
-9,-13,61
-8,-13,61
-9,-14,61
-9,-13,61
-9,-14,61
-9,-14,61
-9,-13,61
-9,-14,61
-9,-14,61
-9,-14,60
-9,-14,61
-8,-13,61
-9,-13,61
-8,-13,61
-8,-13,61
-9,-14,60
-8,-14,61
-8,-13,61
-9,-13,61
-9,-14,60
-9,-14,61
-9,-13,60
-8,-13,61
-9,-13,61
-9,-13,61
-9,-13,61
-8,-13,61
-9,-14,61
-9,-13,61
-9,-13,61
-9,-13,61
-9,-13,61
-9,-13,61
-9,-13,61
-9,-13,61
-9,-13,61
-9,-13,61
-8,-13,61
-8,-13,61
-9,-14,61
-9,-13,61
-9,-13,61
-9,-13,61
-9,-13,61
-9,-13,61
-9,-14,60
-9,-14,61
-9,-14,61
-9,-13,61
-9,-13,61
-9,-13,61
-8,-14,61
-8,-14,61
-9,-13,61
-9,-13,61
-9,-13,61
-9,-14,61
-9,-14,60
-8,-13,61
-8,-13,61
-8,-13,61
-9,-13,61
-9,-14,61
-10,-14,60
-9,-14,60
-8,-14,61
-7,-13,61
-8,-13,61
-9,-13,61
-9,-14,61
-9,-14,61
-10,-14,61
-8,-13,61
-8,-14,61
-9,-14,61
-9,-13,60
-9,-13,61
-9,-13,61
-8,-14,61
-8,-14,60
-8,-13,61
-9,-13,61
-9,-13,61
-9,-13,61
-8,-13,61
-8,-13,61
-9,-14,61
-10,-14,60
-9,-14,60
-8,-13,61
-8,-13,61
-8,-13,61
-8,-13,61
-9,-13,61
-9,-13,61
-8,-14,60
-8,-14,61
-10,-13,61
-10,-14,60
-8,-13,61
-7,-13,61
-8,-13,61
-8,-13,61
-8,-13,61
-8,-13,61
-8,-13,61
-8,-13,61
-8,-13,61
-8,-13,61
-8,-13,61
-8,-13,61
-8,-13,61
-8,-13,61
-8,-13,61
-8,-13,61
-8,-13,61
-9,-13,61
-9,-14,61
-8,-13,61
-8,-13,61
-8,-13,61
-8,-14,61
-8,-13,61
-8,-13,61
-8,-13,61
-8,-13,61
-8,-14,61
-8,-14,61
-9,-13,61
-8,-13,61
-9,-13,61
-8,-13,61
-8,-13,61
-8,-14,61
-8,-14,61
-9,-13,61
-8,-13,61
-8,-13,61
-8,-13,61
-9,-13,61
-8,-13,61
-8,-14,61
-8,-13,61
-8,-13,61
-8,-13,61
-8,-13,61
-8,-13,61
-8,-13,61
-8,-14,61
-8,-14,61
-8,-13,61
-8,-13,61
-8,-13,61
-8,-14,61
-8,-14,61
-8,-13,61
-8,-13,61
-8,-13,61
-9,-14,60
-7,-13,61
-7,-13,61
-7,-13,61
-8,-13,61
-8,-13,61
-8,-14,61
-8,-13,61
-8,-13,61
-8,-13,61
-8,-14,61
-9,-14,60
-8,-13,61
-6,-14,61
-7,-14,61
-7,-13,61
-8,-13,61
-8,-13,61
-8,-13,61
-8,-13,61
-8,-13,61
-8,-13,61
-7,-14,61
-7,-13,61
-8,-13,61
-7,-13,61
-8,-13,61
-8,-13,61
-8,-13,61
-8,-13,61
-8,-13,61
-7,-13,61
-7,-13,61
-9,-14,60
-6,-13,61
-7,-13,61
-8,-13,61
-7,-13,61
-7,-13,61
-7,-13,61
-7,-13,61
-7,-13,61
-7,-13,61
-7,-13,61
-7,-13,61
-8,-13,61
-7,-13,61
-7,-13,61
-7,-13,61
-8,-13,61
-8,-13,61
-8,-13,61
-8,-13,61
-7,-13,61
-7,-13,61
-7,-13,61
-7,-13,61
-8,-13,61
-8,-13,61
-7,-13,61
-8,-13,61
-8,-13,61
-8,-13,61
-8,-13,61
-8,-13,61
-7,-13,61
-7,-13,61
-7,-13,61
-7,-13,61
-8,-13,61
-8,-13,61
-7,-13,61
-8,-13,61
-7,-13,61
-7,-13,61
-7,-13,61
-7,-13,61
-7,-13,61
-8,-13,61
-7,-13,61
-7,-13,61
-8,-13,61
-8,-13,61
-8,-13,61
-7,-13,61
-7,-13,61
-7,-13,61
-8,-13,61
-8,-13,61
-8,-13,61
-8,-13,61
-7,-13,61
-7,-13,61
-7,-13,61
-7,-13,61
-7,-13,61
-7,-13,61
-8,-13,61
-8,-13,61
-7,-13,61
-8,-13,61
-8,-13,61
-8,-13,61
-7,-13,61
-8,-13,61
-8,-13,61
-7,-13,61
-7,-13,61
-8,-13,61
-8,-13,61
-7,-13,61
-8,-13,61
-8,-13,61
-7,-13,61
-7,-13,61
-7,-13,61
-8,-13,61
-8,-13,61
-8,-13,61
-8,-13,61
-8,-14,61
-8,-13,61
-8,-13,60
-7,-13,61
-8,-13,61
-8,-13,61
-8,-13,61
-7,-13,61
-8,-13,61
-8,-13,61
-8,-13,61
-8,-13,61
-8,-13,61
-8,-13,61
-7,-13,61
-7,-13,61
-8,-13,61
-8,-13,61
-7,-13,61
-8,-13,61
-8,-13,61
-8,-13,61
-8,-13,61
-8,-13,61
-8,-13,61
-7,-13,61
-7,-13,61
-8,-13,61
-8,-13,61
-7,-13,61
-8,-14,61
-8,-13,61
-8,-13,61
-8,-13,61
-7,-13,61
-8,-13,61
-8,-13,61
-8,-13,61
-7,-13,61
-8,-13,61
-8,-13,60
-8,-14,61
-8,-14,61
-8,-13,61
-7,-13,61
-8,-13,61
-8,-13,61
-8,-13,61
-8,-13,61
-8,-13,61
-8,-13,61
-8,-13,61
-8,-14,61
-8,-14,61
-8,-13,61
-8,-13,61
-7,-13,61
-7,-13,61
-8,-13,61
-8,-13,61
-8,-13,61
-8,-14,61
-8,-14,61
-8,-13,61
-8,-13,61
-8,-13,61
-8,-13,61
-8,-13,60
-8,-13,61
-8,-13,61
-8,-13,61
-8,-13,61
-8,-13,61
-8,-13,61
-8,-13,61
-8,-13,61
-8,-13,61
-8,-13,61
-7,-13,61
-8,-14,61
-8,-13,61
-8,-13,61
-7,-13,61
-7,-14,61
-9,-13,61
-8,-13,61
-8,-13,61
-8,-14,61
-8,-14,61
-8,-13,61
-8,-13,61
-8,-13,61
-8,-13,61
-8,-13,61
-8,-13,61
-8,-13,61
-9,-13,61
-8,-13,61
-8,-13,61
-8,-13,61
-8,-14,61
-9,-14,61
-8,-13,61
-8,-13,61
-8,-13,61
-9,-13,61
-8,-13,61
-8,-13,61
-8,-14,61
-8,-13,61
-8,-13,61
-7,-13,61
-8,-13,61
-8,-14,61
-8,-14,61
-8,-13,61
-8,-13,61
-8,-13,61
-8,-13,61
-8,-13,61
-8,-13,61
-8,-14,61
-8,-14,61
-8,-14,61
-8,-13,61
-8,-13,61
-8,-13,61
-8,-14,61
-8,-14,61
-8,-14,61
-7,-13,61
-8,-13,61
-8,-13,61
-8,-13,61
-8,-13,61
-8,-13,61
-8,-14,61
-8,-13,61
-8,-13,61
-7,-13,60
-7,-14,61
-8,-13,61
-8,-13,61
-7,-13,61
-8,-14,61
-8,-13,61
-8,-13,61
-7,-13,61
-7,-13,61
-8,-13,61
-8,-14,61
-8,-13,61
-8,-13,61
-8,-13,61
-8,-14,61
-8,-13,61
-7,-13,61
-7,-13,61
-8,-13,61
-8,-13,61
-8,-13,61
-8,-13,61
-7,-13,61
-8,-14,61
-8,-13,61
-8,-13,61
-8,-13,61
-8,-13,61
-8,-13,61
-8,-13,61
-8,-13,61
-8,-13,61
-8,-13,61
-8,-13,61
-8,-13,61
-8,-13,61
-8,-13,61
-8,-13,61
-7,-13,61
-8,-13,61
-8,-13,61
-8,-13,61
-8,-13,61
-8,-13,61
-8,-13,61
-8,-13,61
-8,-13,61
-7,-13,61
-7,-13,61
-7,-13,61
-8,-13,61
-8,-13,61
-7,-13,61
-8,-13,61
-8,-13,61
-8,-13,61
-8,-13,61
-8,-13,61
-8,-13,61
-8,-13,61
-7,-13,61
-7,-13,61
-8,-13,61
-8,-13,61
-8,-13,61
-8,-13,61
-8,-13,61
-8,-13,61
-8,-13,61
-8,-13,61
-8,-13,61
-7,-13,61
-8,-13,61
-7,-13,61
-8,-13,61
-8,-13,61
-8,-13,61
-8,-13,61
-8,-13,61
-8,-13,61
-7,-13,61
-7,-13,61
-7,-13,61
-8,-13,61
-8,-13,61
-8,-13,61
-7,-13,61
-8,-13,61
-7,-13,61
-8,-13,61
-8,-13,61
-7,-13,61
-7,-13,61
-8,-13,61
-8,-13,61
-7,-13,61
-8,-14,61
-8,-13,61
-8,-13,61
-8,-13,61
-8,-13,61
-8,-13,61
-8,-13,61
-8,-13,61
-8,-13,61
-8,-13,61
-8,-13,61
-8,-13,61
-8,-13,61
-7,-13,61
-7,-14,61
-8,-14,61
-8,-13,61
-8,-13,61
-8,-13,61
-8,-13,61
-8,-14,61
-8,-13,61
-8,-13,61
-8,-13,61
-8,-13,61
-8,-13,61
-8,-13,61
-8,-13,61
-8,-13,61
-8,-13,61
-8,-13,61
-8,-13,61
-8,-13,61
-8,-13,61
-8,-13,61
-8,-13,61
-8,-13,61
-8,-13,60
-9,-14,61
-8,-13,61
-8,-13,61
-8,-13,61
-8,-14,61
-8,-13,61
-8,-13,61
-8,-13,61
-8,-13,61
-8,-13,61
-7,-13,61
-8,-13,61
-8,-13,61
-8,-13,61
-8,-13,61
-8,-13,61
-8,-13,61
-8,-13,61
-8,-13,61
-8,-14,61
-8,-13,61
-8,-13,61
-8,-13,61
-8,-13,61
-8,-13,61
-8,-13,61
-8,-13,61
-8,-13,61
-7,-13,61
-8,-13,61
-8,-13,61
-8,-13,61
-8,-13,61
-8,-13,61
-8,-13,61
-8,-13,61
-8,-13,61
-8,-13,61
-8,-13,61
-8,-13,61
-8,-13,61
-8,-13,61
-8,-13,61
-8,-13,61
-8,-13,61
-8,-13,61
-8,-13,61
-8,-14,61
-8,-13,61
-8,-13,61
-8,-13,61
-8,-13,61
-8,-13,61
-7,-13,61
-8,-13,61
-8,-14,61
-9,-13,61
-8,-13,61
-8,-13,61
-8,-14,61
-8,-14,61
-8,-13,61
-8,-13,61
-8,-13,61
-8,-13,61
-8,-13,61
-8,-13,61
-8,-13,61
-8,-14,61
-8,-13,61
-8,-13,61
-8,-13,61
-8,-13,61
-8,-13,61
-8,-13,61
-8,-13,61
-8,-13,61
-8,-13,61
-8,-13,61
-8,-13,61
-8,-13,61
-8,-13,61
-8,-13,61
-8,-13,61
-8,-13,61
-8,-13,61
-8,-13,61
-8,-14,61
-8,-13,61
-8,-13,61
-8,-13,61
-8,-13,61
-8,-13,61
-8,-13,61
-8,-13,61
-8,-13,61
-8,-13,61
-8,-13,61
-8,-13,61
-8,-13,61
-8,-13,61
-8,-13,61
-8,-13,61
-7,-13,61
-8,-13,61
-8,-13,61
-8,-13,61
-8,-13,61
-8,-13,61
-8,-13,61
-8,-13,61
-8,-13,61
-8,-13,61
-8,-14,61
-8,-13,61
-8,-13,61
-8,-13,61
-8,-13,61
-8,-13,61
-8,-13,61
-8,-13,61
-8,-13,61
-8,-13,61
-8,-13,61
-8,-13,61
-8,-13,61
-8,-13,61
-9,-13,61
-8,-13,61
-8,-13,61
-8,-13,61
-8,-13,61
-8,-13,61
-8,-13,61
-8,-14,61
-8,-13,61
-8,-13,61
-8,-13,61
-8,-13,61
-8,-13,61
-8,-14,61
-8,-13,61
-8,-13,61
-8,-13,61
-8,-13,61
-8,-13,61
-8,-14,61
-8,-13,61
-8,-13,61
-8,-13,61
-8,-13,61
-8,-13,61
-8,-13,61
-8,-13,61
-8,-14,61
-8,-13,61
-8,-13,61
-8,-14,61
-8,-14,61
-8,-13,61
-8,-13,61
-8,-14,61
-8,-13,61
-8,-14,61
-8,-13,61
-8,-13,61
-8,-13,61
-8,-14,61
-8,-14,61
-9,-13,61
-8,-13,61
-8,-14,61
-8,-14,61
-8,-13,61
-8,-13,61
-8,-13,61
-8,-13,61
-9,-13,61
-8,-13,61
-8,-13,61
-8,-13,61
-9,-14,61
-8,-13,61
-8,-13,61
-8,-13,61
-8,-13,61
-8,-13,61
-8,-13,61
-8,-13,61
-8,-13,61
-8,-13,60
-8,-13,61
-8,-13,61
-8,-13,61
-8,-13,61
-8,-14,61
-8,-13,61
-8,-13,61
-8,-13,61
-8,-13,61
-8,-13,61
-8,-13,61
-8,-13,61
-8,-13,61
-8,-13,61
-8,-13,61
-8,-13,61
-8,-13,61
-8,-13,61
-8,-13,61
-8,-13,61
-8,-13,61
-8,-13,61
-7,-13,61
-8,-13,61
-8,-13,61
-8,-13,61
-8,-13,61
-8,-13,61
-9,-13,61
-8,-13,61
-8,-14,61
-9,-13,61
-8,-13,61
-8,-13,61
-8,-13,61
-8,-13,61
-8,-13,61
-8,-13,61
-8,-13,61
-8,-13,61
-8,-13,61
-8,-13,61
-8,-13,61
-8,-13,61
-8,-13,61
-8,-14,61
-8,-13,61
-8,-13,61
-8,-13,61
-8,-13,61
-8,-13,61
-8,-13,61
-8,-13,61
-8,-13,61
-8,-13,61
-8,-13,61
-8,-13,60
-8,-13,61
-8,-14,61
-9,-13,61
-8,-13,61
-8,-13,61
-8,-13,61
-8,-13,61
-8,-14,61
-10,-13,61
-9,-13,61
-8,-14,61
-8,-13,61
-9,-13,61
-8,-13,61
-8,-14,61
-8,-13,61
-8,-13,61
-8,-13,61
-8,-13,61
-8,-13,61
-8,-13,61
-8,-13,61
-8,-13,61
-8,-13,61
-8,-14,61
-8,-13,61
-8,-13,61
-8,-13,61
-8,-14,61
-8,-14,61
-9,-13,61
-8,-13,61
-8,-13,61
-8,-13,61
-8,-13,61
-8,-13,61
-8,-13,61
-8,-13,61
-8,-13,61
-8,-13,61
-8,-13,61
-7,-13,61
-8,-13,61
-8,-13,61
-8,-13,61
-9,-13,61
-7,-13,61
-7,-13,61
-8,-13,61
-8,-13,61
-8,-13,61
-8,-13,61
-8,-13,61
-8,-14,61
-8,-13,61
-8,-13,61
-8,-13,61
-8,-14,61
-8,-13,61
-8,-13,61
-8,-13,61
-8,-13,61
-9,-13,60
-7,-13,61
-8,-13,61
-8,-13,61
-8,-13,61
-8,-13,61
-8,-13,61
-8,-13,61
-8,-13,61
-8,-13,61
-8,-13,61
-8,-13,61
-8,-13,61
-8,-13,61
-8,-13,61
-8,-13,61
-8,-13,61
-8,-13,61
-8,-13,61
-8,-13,61
-8,-13,61
-8,-14,61
-8,-13,61
-8,-13,61
-8,-13,61
-8,-13,61
-8,-13,61
-8,-13,61
-8,-14,61
-8,-13,61
-8,-13,61
-8,-13,61
-8,-13,61
-8,-13,61
-8,-13,61
-8,-13,61
-9,-13,61
-8,-13,61
-8,-13,61
-8,-13,61
-8,-13,61
-8,-13,61
-8,-13,61
-8,-13,61
-8,-13,61
-8,-13,61
-8,-13,61
-9,-13,61
-8,-14,61
-7,-14,61
-7,-13,61
-8,-13,61
-8,-13,61
-8,-13,61
-8,-14,61
-8,-13,61
-8,-14,61
-8,-13,61
-8,-13,61
-8,-13,61
-8,-13,61
-8,-14,61
-9,-14,61
-9,-14,61
-8,-13,61
-8,-13,61
-8,-14,61
-8,-13,61
-8,-13,61
-8,-14,61
-9,-14,61
-8,-13,61
-8,-14,61
-8,-14,61
-8,-13,61
-8,-13,61
-8,-13,61
-8,-14,61
-8,-13,61
-8,-13,61
-8,-13,61
-8,-13,61
-8,-14,60
-9,-13,60
-8,-13,61
-8,-13,61
-8,-13,61
-8,-13,61
-8,-13,61
-8,-13,61
-8,-13,61
-8,-13,61
-8,-13,61
-8,-13,61
-8,-13,61
-8,-13,61
-8,-13,61
-8,-13,61
-8,-13,61
-8,-13,61
-8,-13,61
-9,-13,61
-8,-13,61
-7,-13,61
-8,-14,61
-8,-13,61
-8,-13,61
-8,-13,61
-8,-13,61
-8,-13,61
-8,-13,61
-8,-13,61
-8,-13,61
-8,-13,61
-8,-13,61
-8,-13,61
-8,-13,61
-8,-13,61
-8,-13,61
-8,-13,61
-8,-13,61
-8,-13,61
-8,-13,61
-8,-13,61
-8,-13,61
-8,-13,61
-8,-14,61
-8,-13,61
-8,-13,61
-8,-14,61
-9,-14,61
-9,-13,61
-8,-13,61
-8,-13,61
-8,-13,60
-8,-13,61
-8,-13,61
-9,-14,61
-9,-13,61
-8,-13,61
-8,-13,61
-8,-13,61
-8,-13,61
-8,-13,61
-8,-13,61
-8,-14,61
-8,-13,61
-8,-13,61
-8,-13,61
-8,-13,61
-8,-13,61
-8,-13,61
-8,-13,61
-8,-14,61
-8,-13,61
-8,-13,61
-8,-13,61
-8,-14,61
-8,-13,61
-9,-13,61
-8,-13,61
-8,-13,61
-8,-13,61
-8,-14,61
-8,-13,61
-8,-13,61
-9,-14,61
-8,-13,61
-8,-13,61
-8,-14,61
-8,-14,61
-8,-13,61
-8,-13,61
-8,-13,61
-8,-13,61
-8,-13,61
-8,-13,61
-8,-13,61
-8,-13,61
-8,-13,61
-8,-13,61
-8,-13,61
-8,-13,61
-8,-13,61
-8,-14,61
-8,-14,61
-8,-13,61
-8,-13,61
-8,-13,61
-8,-13,61
-8,-13,61
-8,-13,61
-8,-13,61
-8,-13,61
-8,-13,61
-8,-13,61
-8,-13,61
-8,-13,61
-8,-13,61
-8,-13,61
-8,-13,61
-8,-13,61
-8,-13,61
-6,-13,61
-8,-13,61
-8,-13,61
-8,-13,61
-8,-13,61
-8,-13,61
-8,-13,61
-8,-13,61
-8,-13,61
-8,-13,61
-8,-13,61
-8,-13,61
-8,-13,61
-7,-13,61
-8,-13,61
-8,-13,61
-8,-13,61
-8,-13,61
-8,-13,61
-8,-13,61
-8,-13,61
-8,-13,61
-8,-13,61
-8,-13,61
-8,-13,61
-8,-13,61
-8,-13,61
-8,-13,61
-8,-13,61
-8,-13,61
-8,-13,61
-8,-13,61
-8,-13,61
-8,-14,61
-8,-13,61
-8,-13,61
-8,-13,61
-8,-13,61
-8,-13,61
-8,-13,61
-8,-13,61
-8,-13,61
-8,-13,61
-7,-13,61
-8,-13,61
-8,-13,61
-8,-13,61
-8,-13,61
-8,-13,61
-8,-13,61
-7,-13,61
-8,-13,61
-8,-13,61
-8,-13,61
-8,-13,61
-8,-13,61
-8,-13,61
-8,-13,61
-8,-13,61
-8,-14,60
-8,-14,61
-9,-13,61
-8,-13,61
-8,-13,61
-8,-13,61
-8,-13,60
-8,-14,61
-8,-13,61
-8,-14,61
-8,-13,61
-8,-13,61
-9,-14,60
-9,-14,60
-9,-14,61
-8,-13,61
-8,-14,61
-8,-13,61
-8,-13,61
-8,-13,61
-8,-13,61
-8,-13,61
-8,-13,61
-8,-14,61
-9,-14,61
-9,-13,61
-8,-13,61
-8,-14,61
-8,-13,61
-8,-13,60
-8,-13,61
-8,-13,61
-8,-13,61
-8,-13,61
-8,-14,61
-8,-13,61
-8,-13,61
-8,-14,61
-8,-13,61
-8,-13,61
-9,-13,61
-9,-13,61
-8,-13,61
-8,-13,61
-8,-13,61
-8,-13,61
-8,-13,61
-8,-13,61
-8,-14,61
-8,-13,61
-8,-13,61
-8,-13,61
-8,-14,60
-8,-14,61
-8,-13,61
-8,-13,61
-8,-13,61
-8,-13,61
-8,-13,61
-7,-13,61
-8,-13,61
-8,-14,60
-8,-13,61
-8,-13,61
-8,-13,61
-8,-13,61
-8,-13,61
-8,-13,61
-8,-13,61
-8,-13,61
-8,-13,61
-8,-13,61
-8,-13,61
-8,-13,61
-8,-13,61
-8,-14,61
-8,-13,61
-8,-13,61
-7,-13,61
-8,-14,61
-9,-13,61
-8,-13,61
-7,-13,61
-8,-14,61
-8,-14,61
-8,-13,61
-8,-13,61
-8,-13,61
-8,-14,61
-8,-13,61
-8,-13,61
-8,-13,61
-8,-13,61
-8,-13,61
-8,-13,61
-8,-14,61
-8,-14,61
-8,-14,61
-8,-13,61
-8,-13,61
-8,-14,61
-9,-13,61
-9,-14,61
-8,-14,61
-8,-13,61
-9,-13,60
-8,-13,60
-8,-14,61
-9,-14,61
-8,-14,61
-8,-14,61
-8,-13,61
-8,-13,61
-8,-14,61
-8,-13,61
-8,-13,61
-8,-14,61
-8,-14,61
-8,-13,61
-8,-13,61
-8,-13,61
-8,-13,61
-8,-13,61
-8,-13,61
-8,-13,61
-8,-13,61
-8,-13,61
-8,-14,61
-9,-13,61
-8,-13,61
-8,-13,61
-9,-13,61
-9,-13,61
-8,-13,61
-8,-13,61
-8,-14,61
-8,-14,61
-8,-13,61
-8,-13,61
-9,-14,60
-10,-13,60
-9,-13,61
-7,-13,62
-8,-13,61
-9,-13,61
-8,-13,61
-8,-13,61
-9,-13,61
-9,-13,61
-8,-13,61
-8,-13,61
-8,-13,61
-8,-13,61
-8,-13,61
-8,-13,61
-8,-13,61
-8,-13,61
-8,-13,61
-8,-13,61
-8,-13,61
-8,-13,61
-8,-13,61
-8,-13,61
-8,-14,61
-8,-13,61
-9,-13,61
-9,-13,61
-8,-13,61
-8,-13,61
-8,-13,61
-8,-13,61
-8,-13,61
-8,-13,61
-8,-14,61
-8,-13,61
-8,-13,61
-8,-14,61
-8,-13,61
-8,-13,61
-8,-13,61
-8,-13,61
-8,-13,61
-8,-14,61
-8,-14,61
-8,-13,61
-8,-13,61
-8,-13,61
-9,-13,60
-8,-13,61
-8,-13,61
-8,-13,61
-8,-13,61
-8,-14,61
-8,-13,61
-8,-13,61
-8,-13,61
-8,-13,61
-8,-13,61
-8,-14,61
-8,-13,61
-8,-13,61
-8,-13,61
-8,-13,61
-8,-13,61
-9,-14,61
-8,-13,61
-8,-14,61
-8,-13,61
-8,-13,61
-8,-13,61
-8,-13,61
-8,-14,61
-8,-13,61
-8,-13,61
-8,-13,61
-8,-13,61
-8,-14,60
-9,-14,61
-9,-13,61
-7,-13,61
-8,-13,61
-8,-14,61
-8,-13,61
-8,-13,61
-8,-14,61
-8,-13,61
-8,-13,61
-8,-13,61
-8,-13,61
-8,-13,61
-8,-13,61
-8,-13,61
-8,-13,61
-8,-13,61
-9,-14,61
-9,-14,61
-8,-13,61
-8,-13,61
-8,-13,61
-8,-13,61
-8,-13,61
-8,-13,61
-8,-13,61
-8,-13,61
-8,-13,61
-8,-13,61
-8,-13,61
-8,-13,61
-8,-13,61
-8,-13,61
-8,-14,61
-8,-13,61
-8,-13,61
-8,-13,61
-8,-13,61
-8,-13,61
-8,-13,61
-8,-13,61
-8,-13,61
-8,-13,61
-8,-13,61
-8,-13,61
-8,-13,61
-8,-13,61
-8,-13,61
-8,-13,61
-8,-13,61
-8,-13,61
-8,-13,61
-7,-13,61
-8,-13,61
-9,-13,61
-8,-13,61
-8,-13,61
-8,-13,61
-8,-13,61
-8,-13,61
-8,-14,61
-8,-14,61
-8,-13,61
-8,-13,61
-8,-13,61
-8,-13,61
-8,-13,61
-8,-13,61
-8,-13,61
-8,-13,61
-8,-13,61
-8,-13,61
-8,-13,61
-8,-13,61
-8,-13,61
-8,-13,61
-8,-13,61
-8,-13,61
-8,-13,61
-8,-13,61
-8,-13,61
-8,-13,61
-8,-13,61
-8,-13,61
-8,-13,61
-8,-14,61
-8,-13,61
-8,-13,61
-8,-13,61
-8,-14,61
-8,-14,61
-8,-13,61
-8,-13,61
-8,-13,61
-8,-13,61
-8,-13,60
-8,-14,61
-8,-13,61
-8,-13,61
-8,-13,61
-8,-13,61
-8,-13,61
-8,-14,60
-9,-13,61
-8,-13,61
-8,-13,61
-8,-13,61
-8,-13,61
-8,-13,61
-8,-13,61
-8,-13,61
-8,-13,61
-8,-13,61
-8,-13,61
-8,-13,61
-8,-13,61
-8,-13,61
-8,-13,60
-8,-14,61
-8,-14,61
-8,-13,61
-8,-13,61
-8,-13,61
-8,-13,60
-8,-13,60
-8,-13,61
-8,-13,61
-8,-13,61
-8,-13,61
-8,-13,61
-8,-13,61
-8,-13,61
-8,-13,61
-8,-13,61
-8,-13,61
-8,-13,61
-8,-13,61
-8,-13,61
-8,-13,61
-8,-13,61
-8,-13,61
-8,-13,61
-8,-13,61
-8,-13,61
-8,-13,61
-8,-13,61
-8,-13,61
-8,-13,61
-8,-13,61
-8,-13,61
-8,-13,61
-8,-13,61
-8,-13,61
-8,-13,61
-8,-13,61
-8,-13,61
-8,-13,61
-8,-13,61
-8,-13,61
-8,-13,61
-8,-13,61
-8,-13,61
-8,-13,61
-8,-13,61
-8,-13,61
-8,-13,61
-8,-13,61
-8,-13,61
-7,-13,61
-8,-13,61
-8,-13,61
-8,-13,61
-8,-14,61
-8,-14,61
-8,-13,61
-8,-13,61
-8,-13,61
-8,-13,61
-8,-13,61
-8,-13,61
-8,-13,61
-8,-13,61
-8,-13,61
-8,-13,61
-8,-13,61
-8,-13,61
-8,-14,61
-8,-13,61
-8,-13,61
-8,-13,61
-8,-13,61
-8,-13,61
-8,-13,61
-8,-14,61
-8,-13,61
-8,-13,61
-7,-13,61
-9,-13,61
-9,-13,61
-9,-13,60
-7,-14,61
-7,-14,61
-9,-14,61
-10,-13,60
-9,-13,61
-8,-13,61
-8,-13,60
-8,-13,61
-8,-13,61
-9,-14,61
-9,-13,61
-9,-14,61
-8,-13,61
-8,-13,61
-8,-13,61
-8,-13,61
-9,-13,61
-9,-13,61
-9,-13,61
-8,-13,61
-9,-13,61
-9,-13,61
-9,-13,60
-8,-13,61
-8,-13,61
-8,-13,61
-9,-14,61
-10,-13,61
-10,-13,61
-8,-13,61
-8,-13,61
-8,-13,61
-8,-13,61
-8,-13,61
-8,-13,61
-8,-13,61
-8,-13,61
-9,-13,61
-9,-13,60
-8,-13,60
-8,-13,61
-9,-13,61
-9,-13,61
-9,-13,61
-8,-13,61
-8,-13,61
-8,-13,61
-8,-13,61
-8,-13,61
-10,-13,61
-10,-13,60
-9,-13,60
-9,-13,61
-9,-13,61
-8,-13,61
-9,-13,61
-9,-13,61
-9,-13,61
-9,-13,61
-9,-13,61
-9,-13,61
-9,-13,61
-9,-13,60
-9,-14,60
-9,-14,61
-9,-13,61
-9,-13,61
-9,-13,61
-9,-13,61
-9,-13,61
-10,-13,61
-10,-13,61
-10,-14,61
-9,-13,61
-9,-13,61
-9,-13,61
-9,-13,61
-9,-13,61
-9,-13,61
-9,-13,61
-9,-13,61
-9,-13,61
-10,-13,61
-10,-13,60
-9,-14,60
-10,-14,61
-10,-14,61
-10,-13,61
-10,-13,61
-10,-13,61
-9,-13,61
-9,-14,60
-10,-14,60
-10,-14,60
-10,-14,61
-10,-14,61
-10,-13,60
-10,-13,60
-10,-14,60
-10,-13,61
-10,-13,61
-11,-14,61
-11,-14,60
-9,-13,61
-8,-13,61
-9,-13,61
-11,-13,60
-10,-13,60
-10,-14,61
-10,-13,61
-10,-13,60
-9,-13,61
-8,-14,61
-9,-13,61
-10,-13,61
-10,-13,61
-9,-13,61
-10,-13,60
-10,-13,60
-9,-13,61
-9,-13,61
-9,-13,61
-9,-13,61
-9,-13,60
-9,-13,61
-9,-13,61
-9,-13,61
-9,-13,61
-10,-13,60
-10,-13,61
-10,-13,61
-10,-13,61
-9,-13,60
-8,-13,60
-8,-13,61
-10,-13,61
-10,-13,61
-9,-13,61
-9,-13,60
-8,-14,60
-9,-13,61
-8,-13,61
-8,-13,61
-10,-13,61
-10,-13,60
-10,-14,60
-8,-13,61
-8,-13,61
-9,-13,61
-9,-14,60
-9,-13,60
-9,-13,61
-9,-13,61
-9,-13,61
-9,-13,61
-9,-13,61
-9,-13,61
-9,-13,61
-9,-13,61
-9,-13,61
-9,-14,60
-9,-13,61
-9,-13,61
-9,-13,61
-9,-13,61
-9,-14,60
-10,-14,61
-9,-13,61
-9,-13,60
-9,-13,61
-8,-13,61
-8,-13,61
-8,-13,61
-10,-13,61
-10,-14,60
-9,-14,61
-9,-14,61
-9,-13,61
-9,-13,61
-8,-13,61
-9,-13,61
-9,-13,61
-9,-13,61
-8,-13,61
-9,-13,61
-10,-13,61
-9,-13,61
-9,-14,61
-8,-13,61
-8,-13,61
-10,-13,61
-9,-13,60
-8,-14,61
-8,-13,61
-10,-13,61
-10,-13,61
-9,-13,61
-9,-13,61
-8,-13,61
-8,-13,61
-9,-13,61
-9,-13,61
-9,-13,61
-10,-14,61
-10,-14,60
-9,-13,61
-8,-13,61
-8,-13,61
-9,-13,61
-9,-13,61
-10,-14,61
-10,-14,61
-9,-13,61
-9,-13,61
-9,-13,60
-9,-13,61
-9,-13,61
-9,-13,61
-9,-13,61
-8,-13,61
-9,-14,61
-10,-13,61
-10,-13,61
-9,-13,61
-9,-13,61
-9,-13,61
-9,-13,61
-9,-13,61
-9,-13,61
-9,-13,61
-9,-13,61
-9,-13,61
-9,-13,61
-9,-13,61
-10,-13,61
-9,-13,61
-9,-13,61
-9,-13,61
-9,-13,61
-9,-13,61
-9,-13,61
-9,-13,61
-10,-13,61
-10,-13,61
-9,-13,61
-9,-13,60
-9,-13,60
-10,-13,61
-10,-13,61
-9,-13,61
-10,-13,61
-10,-14,60
-10,-13,61
-10,-13,61
-10,-13,61
-9,-13,61
-9,-13,61
-9,-13,61
-9,-13,61
-10,-13,61
-10,-13,61
-10,-13,61
-10,-13,61
-10,-13,61
-10,-13,61
-10,-13,61
-10,-13,61
-10,-14,60
-10,-13,60
-10,-13,61
-10,-14,61
-10,-14,60
-10,-14,60
-10,-14,61
-10,-14,61
-10,-14,61
-10,-13,61
-9,-13,61
-10,-13,61
-10,-13,61
-10,-13,61
-10,-14,61
-10,-14,61
-10,-14,61
-10,-14,61
-10,-14,61
-10,-14,61
-10,-14,61
-10,-14,61
-10,-14,61
-10,-14,60
-10,-13,61
-9,-14,61
-10,-13,61
-10,-13,61
-10,-14,60
-10,-14,61
-10,-13,61
-10,-13,61
-10,-14,60
-10,-14,60
-10,-14,61
-10,-13,60
-10,-14,60
-10,-13,61
-10,-13,60
-10,-14,60
-10,-13,61
-10,-13,61
-10,-14,60
-10,-14,61
-10,-13,61
-10,-13,61
-10,-13,61
-10,-13,61
-10,-13,60
-10,-14,61
-10,-13,61
-9,-13,61
-9,-13,61
-10,-13,60
-9,-13,61
-10,-13,61
-10,-13,61
-10,-13,61
-10,-13,60
-10,-14,61
-10,-13,61
-10,-13,61
-10,-13,61
-10,-13,61
-10,-13,61
-10,-13,61
-10,-13,61
-10,-13,61
-10,-13,60
-10,-13,61
-10,-13,61
-10,-13,61
-10,-13,61
-10,-13,61
-10,-13,61
-10,-13,61
-10,-13,61
-10,-13,61
-10,-13,61
-10,-13,61
-10,-13,61
-10,-13,61
-10,-13,61
-10,-13,60
-10,-14,61
-10,-13,61
-10,-13,61
-10,-13,61
-10,-13,60
-10,-13,61
-10,-14,61
-10,-13,61
-10,-13,61
-10,-13,61
-10,-14,61
-10,-13,61
-10,-13,61
-10,-14,61
-10,-14,60
-10,-14,60
-10,-13,61
-10,-13,61
-10,-13,60
-10,-13,61
-10,-13,60
-10,-13,61
-10,-13,61
-10,-13,60
-10,-14,60
-10,-14,61
-10,-14,61
-10,-13,61
-10,-13,61
-10,-14,60
-10,-14,60
-10,-14,60
-10,-13,61
-10,-13,61
-10,-13,60
-10,-14,60
-10,-13,61
-10,-14,60
-10,-13,61
-10,-13,61
-10,-14,61
-10,-14,60
-10,-13,60
-9,-13,61
-9,-13,61
-10,-13,61
-10,-13,61
-10,-14,60
-10,-13,61
-10,-13,61
-10,-13,61
-10,-13,60
-9,-14,61
-10,-14,60
-10,-13,61
-10,-13,61
-10,-13,61
-10,-13,60
-10,-14,60
-10,-13,61
-10,-13,61
-10,-13,61
-9,-13,61
-10,-13,61
-10,-13,61
-10,-13,61
-10,-13,61
-10,-13,61
-10,-13,61
-9,-13,61
-10,-13,60
-10,-13,60
-10,-13,61
-10,-13,61
-10,-13,60
-9,-13,60
-10,-13,61
-10,-13,61
-10,-13,60
-10,-14,60
-10,-14,61
-10,-13,61
-10,-13,61
-10,-13,61
-10,-13,61
-10,-13,60
-10,-13,61
-10,-13,61
-10,-13,61
-10,-13,61
-10,-13,61
-10,-13,61
-10,-13,61
-10,-13,61
-10,-13,61
-10,-13,61
-10,-13,61
-10,-13,61
-9,-13,60
-10,-13,61
-10,-13,61
-10,-13,61
-10,-13,61
-10,-13,61
-10,-13,61
-10,-14,60
-10,-14,60
-10,-13,61
-10,-13,61
-10,-13,61
-10,-13,61
-10,-13,61
-10,-13,61
-10,-13,60
-10,-13,61
-10,-13,61
-10,-14,60
-10,-13,61
-10,-13,61
-10,-13,61
-10,-13,61
-10,-13,61
-10,-13,61
-10,-13,61
-10,-13,61
-10,-14,60
-10,-13,61
-10,-13,61
-10,-13,61
-10,-13,61
-10,-13,61
-10,-14,60
-10,-13,61
-10,-13,61
-10,-13,60
-10,-14,61
-10,-14,61
-10,-13,61
-10,-13,61
-10,-13,61
-10,-13,61
-10,-13,61
-10,-13,61
-10,-13,61
-10,-13,61
-10,-13,61
-10,-13,61
-10,-13,61
-10,-13,61
-10,-14,61
-10,-14,61
-10,-13,61
-10,-13,60
-10,-13,61
-10,-13,61
-10,-13,61
-10,-13,61
-10,-13,61
-10,-13,61
-10,-13,60
-10,-14,61
-10,-13,61
-10,-13,61
-10,-13,60
-10,-14,60
-10,-14,61
-10,-13,60
-10,-13,61
-10,-13,61
-10,-13,60
-10,-13,61
-10,-13,61
-10,-13,61
-10,-13,61
-10,-13,61
-10,-13,61
-10,-13,61
-10,-13,61
-10,-13,61
-10,-13,61
-10,-13,61
-10,-13,61
-10,-13,61
-10,-13,61
-10,-13,61
-10,-13,61
-10,-13,61
-10,-13,61
-10,-13,61
-10,-13,61
-10,-13,60
-10,-13,61
-10,-13,61
-10,-13,61
-10,-13,61
-10,-13,61
-10,-13,61
-10,-13,60
-10,-13,61
-10,-13,61
-10,-13,61
-10,-13,61
-10,-13,61
-10,-13,61
-10,-13,60
-10,-13,61
-10,-13,61
-10,-13,61
-10,-13,61
-10,-13,61
-10,-13,61
-10,-13,61
-10,-13,61
-10,-13,60
-10,-13,61
-10,-14,60
-10,-14,61
-10,-13,61
-10,-13,61
-10,-13,60
-10,-14,61
-10,-14,61
-10,-13,61
-10,-13,61
-10,-14,60
-10,-13,60
-9,-13,61
-9,-13,61
-10,-13,61
-10,-13,61
-9,-14,61
-10,-13,61
-10,-13,60
-10,-13,61
-10,-14,61
-10,-13,60
-10,-13,61
-10,-13,61
-10,-13,61
-10,-13,61
-10,-13,61
-10,-13,61
-10,-13,61
-10,-13,60
-10,-14,61
-10,-13,61
-10,-13,61
-10,-13,60
-10,-14,61
-10,-14,61
-10,-14,61
-10,-13,61
-10,-13,61
-10,-14,61
-10,-13,60
-10,-13,61
-10,-13,61
-10,-13,60
-10,-14,60
-10,-13,61
-10,-14,61
-10,-13,61
-10,-13,61
-10,-13,60
-10,-13,61
-10,-13,61
-10,-13,61
-10,-13,61
-10,-13,61
-10,-13,61
-10,-13,61
-10,-13,61
-10,-13,61
-10,-13,61
-10,-13,61
-10,-13,61
-9,-13,61
-10,-13,61
-10,-13,61
-10,-13,61
-10,-13,61
-10,-13,61
-10,-13,60
-10,-13,61
-10,-13,61
-10,-13,61
-10,-13,61
-10,-13,61
-10,-13,61
-10,-13,61
-10,-13,60
-10,-13,61
-10,-13,61
-10,-13,61
-10,-13,60
-10,-13,61
-10,-13,61
-10,-13,61
-10,-13,61
-10,-13,61
-10,-13,61
-10,-13,61
-10,-13,61
-10,-13,60
-10,-14,60
-10,-13,60
-10,-13,61
-10,-13,61
-10,-13,60
-10,-13,60
-10,-13,61
-10,-13,61
-10,-13,61
-10,-13,60
-9,-13,61
-10,-13,61
-10,-13,61
-10,-13,61
-9,-13,61
-10,-13,60
-10,-13,61
-10,-13,61
-10,-13,61
-10,-13,61
-9,-13,61
-10,-13,61
-10,-13,60
-10,-14,60
-10,-14,61
-10,-13,61
-10,-13,61
-10,-13,60
-10,-14,61
-10,-14,60
-11,-13,61
-10,-13,61
-9,-13,61
-10,-13,60
-10,-13,61
-10,-13,61
-10,-13,61
-10,-13,61
-9,-13,61
-10,-13,61
-10,-13,60
-11,-13,61
-10,-14,61
-10,-13,61
-10,-13,60
-9,-14,61
-10,-13,61
-10,-13,61
-9,-13,61
-10,-13,61
-10,-13,60
-10,-13,60
-10,-13,61
-10,-13,61
-10,-13,61
-10,-13,61
-10,-14,61
-10,-13,61
-10,-13,61
-10,-13,61
-10,-13,61
-10,-13,61
-10,-13,60
-9,-13,61
-10,-13,61
-10,-13,60
-10,-13,61
-9,-13,61
-10,-13,60
-10,-13,61
-10,-13,61
-10,-13,61
-10,-13,61
-10,-13,61
-9,-13,61
-10,-13,61
-10,-13,61
-10,-13,61
-9,-13,61
-10,-13,61
-10,-13,61
-10,-13,61
-9,-13,61
-10,-13,61
-10,-13,61
-10,-13,61
-10,-13,61
-10,-13,61
-10,-13,61
-10,-13,61
-10,-13,61
-10,-13,61
-10,-13,61
-10,-13,60
-10,-13,61
-10,-13,61
-10,-13,61
-10,-13,61
-10,-13,61
-9,-13,61
-9,-13,61
-10,-13,61
-10,-13,61
-10,-13,61
-10,-13,61
-10,-13,61
-10,-13,61
-10,-13,61
-10,-13,61
-9,-13,61
-10,-14,61
-10,-13,61
-10,-13,61
-10,-13,61
-10,-13,61
-10,-13,60
-9,-13,61
-9,-13,61
-10,-13,61
-9,-13,61
-9,-13,61
-10,-13,61
-10,-13,61
-10,-13,61
-10,-13,61
-10,-13,61
-10,-13,61
-10,-13,61
-10,-13,61
-10,-13,61
-10,-13,61
-10,-13,60
-10,-13,60
-10,-13,61
-10,-13,61
-10,-13,61
-10,-13,60
-9,-14,61
-10,-14,61
-10,-13,61
-10,-13,61
-10,-13,61
-10,-13,61
-9,-13,61
-9,-13,61
-10,-13,61
-10,-13,61
-10,-13,61
-9,-13,61
-10,-13,61
-10,-13,61
-10,-13,61
-10,-13,61
-10,-13,61
-10,-13,61
-10,-13,61
-10,-13,61
-10,-13,61
-10,-13,61
-9,-13,60
-10,-13,61
-10,-13,61
-10,-13,61
-10,-13,61
-10,-13,60
-10,-13,61
-10,-13,61
-10,-13,61
-10,-13,61
-10,-13,61
-10,-13,60
-9,-13,61
-10,-13,61
-10,-13,61
-10,-13,61
-10,-13,61
-10,-13,61
-10,-13,61
-10,-13,61
-10,-13,61
-10,-13,61
-9,-13,61
-10,-13,61
-10,-13,61
-10,-13,61
-9,-13,61
-10,-13,61
-10,-13,61
-10,-13,61
-10,-13,60
-10,-14,60
-10,-14,61
-10,-13,61
-10,-13,61
-9,-13,61
-10,-13,61
-10,-13,60
-10,-13,60
-10,-13,61
-10,-13,61
-10,-13,61
-10,-13,61
-10,-13,60
-10,-13,61
-10,-13,61
-10,-13,61
-10,-13,61
-10,-13,61
-10,-13,61
-10,-13,61
-10,-13,61
-10,-13,61
-9,-13,61
-10,-13,61
-10,-13,61
-10,-13,61
-10,-13,61
-10,-13,61
-9,-14,61
-10,-13,61
-10,-13,61
-10,-13,61
-9,-13,61
-10,-13,61
-10,-14,60
-10,-13,61
-10,-13,61
-10,-13,61
-10,-13,61
-10,-13,61
-10,-13,61
-10,-13,61
-10,-13,61
-10,-13,61
-10,-13,61
-10,-13,61
-10,-13,61
-10,-13,61
-10,-13,61
-10,-13,61
-10,-13,61
-10,-13,60
-10,-13,61
-10,-13,61
-10,-13,61
-9,-13,60
-10,-14,61
-10,-13,60
-10,-13,61
-10,-13,61
-10,-13,61
-10,-13,60
-9,-13,61
-10,-13,61
-10,-13,61
-10,-13,61
-9,-13,61
-10,-13,61
-10,-13,61
-10,-13,61
-10,-13,61
-10,-13,61
-10,-13,61
-9,-13,61
-10,-13,60
-10,-13,61
-10,-13,61
-10,-13,61
-10,-13,61
-10,-13,61
-10,-13,61
-9,-13,61
-10,-14,61
-10,-13,61
-10,-13,61
-10,-13,61
-10,-13,61
-10,-13,61
-9,-13,61
-9,-13,61
-10,-13,61
-10,-13,61
-10,-13,61
-10,-13,61
-10,-13,61
-10,-13,61
-10,-13,61
-10,-13,61
-10,-13,60
-10,-13,61
-10,-13,61
-9,-13,61
-10,-13,61
-10,-13,60
-10,-13,61
-10,-13,61
-10,-13,61
-10,-13,60
-10,-14,60
-10,-14,61
-10,-13,60
-10,-13,60
-8,-12,62
-7,-13,61
-10,-13,60
-8,-13,61
-9,-13,61
-10,-13,60
-10,-13,61
-9,-13,61
-9,-13,60
-8,-13,61
-8,-13,61
-9,-13,61
-9,-13,61
-9,-13,61
-9,-13,61
-9,-13,61
-9,-13,61
-9,-13,61
-8,-13,61
-9,-13,61
-9,-13,61
-9,-13,61
-9,-13,61
-9,-13,60
-9,-14,61
-9,-13,61
-9,-13,61
-9,-13,61
-9,-13,61
-9,-13,61
-9,-13,60
-9,-13,61
-10,-13,61
-10,-13,61
-9,-13,61
-9,-13,61
-9,-13,61
-9,-13,61
-9,-13,61
-9,-13,61
-9,-13,61
-9,-13,61
-9,-13,61
-9,-13,61
-10,-13,61
-10,-13,61
-9,-13,61
-9,-13,61
-10,-13,61
-9,-13,61
-9,-13,61
-9,-13,61
-10,-13,61
-9,-13,61
-9,-13,61
-9,-13,61
-9,-13,61
-9,-13,61
-10,-13,61
-9,-13,61
-9,-13,61
-9,-13,61
-9,-13,61
-10,-13,61
-10,-13,61
-9,-13,61
-10,-13,60
-9,-13,61
-9,-13,61
-9,-13,61
-9,-13,61
-9,-13,61
-9,-13,61
-9,-12,61
-9,-13,61
-9,-13,61
-9,-13,61
-9,-13,61
-10,-13,61
-9,-13,61
-9,-13,61
-9,-13,61
-9,-13,61
-9,-13,61
-9,-13,61
-9,-13,61
-9,-13,61
-9,-13,61
-9,-13,61
-9,-13,61
-10,-13,61
-9,-13,61
-9,-13,61
-9,-13,61
-10,-13,61
-9,-13,61
-9,-13,61
-9,-13,61
-9,-13,61
-9,-13,61
-9,-13,61
-9,-13,60
-9,-13,61
-10,-13,61
-10,-13,61
-9,-13,61
-9,-13,61
-9,-13,61
-9,-13,61
-9,-13,61
-9,-13,61
-9,-13,61
-9,-13,61
-9,-13,61
-10,-13,61
-9,-13,61
-9,-14,61
-10,-13,61
-9,-13,61
-8,-13,61
-9,-13,61
-9,-13,61
-9,-13,61
-9,-13,61
-9,-13,61
-9,-13,61
-10,-13,61
-9,-13,61
-9,-13,60
-9,-13,61
-9,-13,61
-9,-13,61
-9,-13,61
-9,-13,61
-9,-13,60
-9,-13,61
-9,-13,61
-9,-13,61
-9,-13,61
-9,-13,61
-9,-13,61
-9,-13,61
-9,-13,61
-9,-13,61
-9,-13,61
-9,-13,61
-9,-13,61
-9,-13,61
-9,-13,61
-9,-13,61
-9,-13,61
-9,-13,61
-9,-13,61
-9,-13,61
-9,-13,61
-9,-13,61
-9,-13,61
-9,-13,61
-9,-13,61
-9,-13,61
-9,-13,61
-9,-13,61
-10,-13,61
-9,-13,61
-9,-13,61
-9,-13,61
-9,-13,61
-9,-13,61
-9,-13,61
-9,-13,61
-9,-13,61
-9,-13,61
-9,-13,61
-9,-13,61
-9,-13,61
-9,-13,61
-9,-13,61
-9,-13,61
-9,-13,61
-9,-13,61
-9,-13,61
-9,-13,60
-9,-13,61
-9,-13,61
-9,-13,61
-9,-13,61
-9,-13,61
-9,-13,61
-10,-13,61
-9,-13,61
-9,-13,61
-9,-13,61
-10,-13,61
-9,-13,61
-9,-13,61
-9,-13,61
-9,-13,61
-9,-13,61
-9,-13,61
-9,-13,61
-9,-13,61
-9,-13,61
-9,-13,61
-9,-13,61
-9,-13,61
-10,-13,61
-9,-13,61
-9,-13,61
-9,-13,61
-10,-13,61
-9,-13,61
-9,-13,61
-9,-13,61
-9,-13,61
-9,-13,61
-9,-13,61
-9,-13,61
-9,-13,61
-9,-13,61
-9,-13,61
-10,-13,61
-9,-13,61
-9,-13,61
-9,-13,61
-9,-13,61
-9,-13,61
-9,-13,61
-9,-13,61
-9,-13,61
-9,-13,61
-9,-13,61
-9,-13,61
-9,-13,61
-9,-13,61
-9,-13,60
-9,-13,61
-9,-13,61
-9,-13,61
-9,-13,61
-9,-13,61
-9,-13,61
-9,-13,61
-9,-13,61
-9,-13,61
-9,-13,61
-9,-13,61
-9,-13,61
-9,-13,61
-9,-13,61
-9,-13,61
-9,-13,61
-9,-13,61
-9,-13,61
-9,-13,61
-9,-13,61
-9,-13,61
-9,-13,61
-9,-13,61
-9,-13,61
-9,-13,61
-9,-13,61
-9,-13,61
-9,-13,61
-9,-13,61
-10,-13,61
-9,-13,61
-9,-13,61
-9,-13,61
-9,-13,61
-9,-13,61
-9,-13,61
-9,-13,61
-9,-13,61
-9,-13,61
-9,-13,61
-9,-13,61
-9,-13,61
-9,-13,61
-9,-13,61
-9,-13,61
-9,-13,61
-9,-13,61
-9,-13,61
-9,-13,61
-9,-13,61
-9,-13,61
-9,-13,61
-9,-13,61
-9,-13,61
-10,-13,61
-9,-13,61
-9,-13,61
-9,-13,61
-9,-13,61
-9,-13,61
-9,-13,61
-9,-13,61
-9,-13,61
-9,-13,61
-9,-13,61
-9,-13,61
-10,-13,60
-9,-13,61
-9,-13,61
-10,-13,61
-9,-13,60
-9,-13,61
-9,-13,61
-9,-13,61
-9,-13,61
-9,-13,61
-9,-13,61
-9,-13,61
-9,-13,61
-9,-13,60
-9,-13,61
-9,-13,61
-9,-13,61
-9,-13,61
-9,-13,61
-9,-13,61
-10,-13,61
-9,-13,61
-9,-13,61
-9,-13,61
-9,-13,61
-9,-13,61
-8,-13,61
-9,-13,61
-9,-13,61
-9,-13,61
-9,-13,61
-9,-13,61
-9,-13,61
-9,-13,61
-10,-13,61
-9,-13,61
-9,-13,61
-9,-13,61
-9,-13,61
-9,-13,61
-9,-13,61
-9,-13,61
-9,-13,61
-9,-13,61
-10,-13,61
-9,-13,61
-9,-13,61
-8,-13,60
-9,-13,61
-9,-13,61
-9,-13,61
-9,-13,61
-9,-13,61
-9,-13,60
-8,-13,61
-9,-13,61
-9,-13,61
-9,-13,61
-9,-13,61
-9,-13,61
-9,-13,61
-9,-13,61
-9,-13,61
-9,-13,61
-9,-13,61
-9,-13,61
-9,-13,61
-9,-13,61
-9,-13,61
-9,-13,61
-9,-13,61
-9,-13,61
-9,-13,61
-9,-13,61
-9,-13,61
-9,-13,61
-9,-13,61
-9,-13,61
-9,-12,61
-9,-13,61
-9,-13,61
-9,-13,61
-9,-13,61
-8,-13,61
-9,-13,61
-9,-13,61
-9,-13,61
-9,-13,61
-9,-13,61
-9,-13,61
-9,-13,61
-9,-13,61
-9,-13,61
-9,-13,61
-9,-13,61
-9,-13,61
-9,-13,61
-9,-13,61
-9,-13,61
-9,-13,61
-9,-13,61
-9,-13,61
-9,-13,61
-9,-13,61
-9,-13,60
-10,-14,60
-10,-13,61
-9,-13,61
-9,-13,61
-9,-13,61
-9,-13,61
-9,-13,61
-9,-13,61
-9,-13,61
-9,-13,61
-9,-13,61
-9,-13,61
-9,-13,61
-9,-13,61
-9,-13,61
-9,-13,61
-9,-13,61
-9,-13,61
-9,-13,61
-9,-13,61
-9,-13,61
-10,-13,61
-9,-13,61
-9,-13,61
-9,-13,61
-9,-13,61
-9,-13,61
-9,-13,61
-9,-13,61
-9,-13,61
-9,-12,61
-9,-13,61
-9,-13,61
-9,-13,61
-9,-13,61
-9,-13,61
-9,-12,61
-9,-13,61
-9,-13,61
-9,-13,61
-9,-13,61
-9,-13,61
-10,-13,61
-9,-13,61
-9,-13,61
-9,-13,61
-9,-13,61
-9,-13,61
-9,-13,61
-9,-12,61
-9,-13,61
-9,-13,61
-9,-13,61
-9,-13,61
-9,-13,61
-9,-13,60
-9,-13,61
-9,-13,61
-9,-13,61
-9,-13,61
-9,-13,61
-9,-13,61
-9,-13,61
-9,-13,61
-9,-13,61
-9,-13,61
-9,-13,61
-9,-13,61
-9,-13,61
-9,-13,61
-9,-13,61
-9,-13,61
-9,-13,61
-9,-13,61
-9,-13,61
-9,-13,61
-9,-13,61
-9,-13,61
-9,-13,61
-9,-12,61
-9,-13,61
-9,-13,61
-10,-14,61
-10,-13,61
-9,-13,61
-9,-13,61
-10,-13,61
-9,-13,61
-8,-13,61
-9,-13,61
-10,-13,61
-9,-13,61
-9,-13,61
-10,-13,61
-9,-13,61
-9,-13,61
-10,-13,61
-9,-13,61
-9,-13,61
-9,-13,61
-10,-13,61
-9,-13,61
-9,-13,61
-9,-13,61
-9,-13,61
-9,-13,61
-10,-13,61
-9,-13,61
-10,-13,61
-9,-13,61
-9,-13,61
-10,-13,61
-9,-13,61
-9,-13,61
-10,-13,61
-9,-13,61
-9,-13,61
-9,-13,61
-9,-13,61
-9,-13,61
-9,-13,61
-9,-13,61
-9,-13,61
-9,-13,61
-9,-13,61
-10,-13,61
-9,-13,61
-9,-13,61
-9,-13,61
-9,-13,61
-9,-13,61
-9,-13,61
-9,-13,61
-9,-13,61
-9,-13,61
-10,-12,61
-9,-13,61
-9,-13,60
-10,-13,61
-10,-13,61
-9,-13,61
-10,-13,61
-9,-12,61
-9,-13,61
-9,-13,61
-9,-13,61
-9,-13,61
-9,-13,61
-9,-13,61
-9,-13,61
-9,-13,61
-9,-13,61
-9,-13,61
-9,-13,61
-9,-13,61
-9,-13,61
-9,-13,61
-9,-13,61
-9,-12,61
-9,-13,61
-9,-13,61
-10,-13,61
-9,-13,61
-9,-13,61
-9,-13,61
-9,-13,61
-10,-13,61
-9,-13,61
-9,-13,61
-10,-13,61
-9,-13,60
-8,-13,61
-9,-13,61
-9,-13,61
-9,-13,61
-9,-13,61
-9,-13,61
-9,-13,61
-9,-13,61
-9,-13,61
-9,-13,61
-9,-13,61
-9,-13,61
-9,-13,61
-9,-13,61
-9,-13,61
-9,-13,61
-9,-13,61
-10,-13,61
-10,-13,61
-9,-13,61
-9,-13,61
-9,-13,61
-9,-13,61
-10,-13,61
-10,-13,61
-9,-13,61
-9,-13,61
-9,-13,61
-9,-13,61
-9,-13,61
-9,-13,61
-9,-13,61
-9,-13,61
-9,-13,61
-9,-13,61
-9,-13,61
-9,-13,61
-9,-13,61
-8,-13,61
-9,-13,61
-9,-13,61
-9,-13,61
-9,-13,61
-9,-13,61
-9,-13,61
-9,-13,61
-9,-13,61
-9,-13,61
-9,-13,61
-9,-13,61
-9,-13,61
-9,-13,61
-9,-13,61
-9,-13,61
-10,-13,61
-9,-13,61
-9,-13,61
-9,-13,61
-9,-13,61
-9,-12,61
-9,-13,61
-9,-13,61
-9,-13,61
-9,-13,61
-9,-13,61
-9,-12,61
-9,-13,61
-9,-13,61
-9,-13,61
-9,-13,61
-9,-13,61
-9,-13,61
-9,-13,61
-9,-13,61
-9,-13,61
-9,-13,61
-9,-13,61
-10,-13,61
-9,-13,61
-9,-13,61
-10,-13,61
-10,-13,61
-9,-13,61
-9,-13,61
-9,-13,61
-9,-13,61
-9,-13,61
-9,-13,61
-9,-13,61
-9,-13,61
-9,-13,61
-9,-13,61
-9,-13,61
-9,-13,61
-9,-13,61
-9,-13,61
-9,-13,61
-9,-13,61
-9,-13,61
-9,-13,61
-9,-13,61
-9,-13,61
-9,-13,61
-9,-13,61
-9,-13,61
-9,-13,61
-9,-13,60
-8,-13,61
-9,-13,61
-9,-13,61
-9,-13,61
-9,-13,61
-9,-13,61
-9,-13,61
-9,-13,61
-9,-13,61
-9,-13,61
-9,-13,61
-9,-13,61
-9,-13,61
-9,-13,61
-9,-13,61
-9,-13,61
-9,-13,60
-9,-13,61
-9,-13,61
-9,-13,61
-9,-13,61
-10,-13,61
-9,-13,61
-8,-13,61
-9,-13,61
-10,-13,61
-9,-13,61
-9,-13,61
-9,-13,61
-9,-14,61
-10,-13,61
-10,-12,61
-9,-12,61
-9,-13,61
-9,-13,61
-9,-13,61
-8,-13,61
-9,-13,61
-10,-13,61
-9,-13,61
-9,-13,61
-9,-13,61
-9,-13,61
-9,-13,61
-9,-13,61
-9,-13,61
-9,-13,61
-8,-13,61
-9,-13,61
-10,-13,61
-10,-13,61
-9,-13,61
-9,-13,61
-9,-13,61
-9,-13,61
-9,-13,61
-9,-13,61
-9,-13,61
-10,-13,61
-10,-13,61
-10,-13,61
-10,-12,61
-10,-12,61
-9,-13,61
-8,-13,61
-8,-13,61
-9,-13,61
-9,-13,61
-9,-13,61
-9,-13,61
-10,-13,61
-10,-13,61
-9,-13,61
-10,-13,61
-9,-13,61
-9,-13,61
-9,-13,61
-10,-13,61
-9,-13,61
-9,-13,61
-10,-13,61
-10,-13,61
-9,-13,61
-9,-13,61
-10,-13,61
-10,-13,60
-9,-13,61
-9,-13,61
-9,-13,61
-10,-13,60
-9,-13,61
-9,-13,61
-10,-13,61
-9,-13,61
-9,-13,61
-9,-13,61
-10,-13,61
-10,-13,61
-10,-13,61
-10,-13,61
-10,-13,61
-9,-13,61
-9,-13,61
-10,-13,61
-9,-13,61
-10,-13,61
-10,-13,61
-10,-13,61
-10,-13,61
-10,-13,61
-9,-13,60
-10,-13,61
-10,-13,60
-10,-13,61
-10,-13,61
-10,-13,61
-10,-13,61
-10,-13,61
-10,-13,61
-10,-13,61
-10,-13,61
-9,-13,61
-9,-13,61
-9,-13,61
-10,-13,61
-10,-13,61
-10,-13,61
-9,-13,61
-10,-13,61
-10,-13,61
-10,-13,61
-9,-13,61
-10,-13,61
-10,-13,61
-10,-13,61
-9,-13,61
-10,-13,61
-10,-13,61
-10,-13,61
-10,-13,61
-10,-13,61
-10,-13,61
-10,-13,61
-10,-13,61
-9,-13,61
-10,-13,61
-10,-13,61
-10,-13,61
-10,-13,61
-10,-13,61
-10,-13,61
-10,-13,61
-10,-13,61
-10,-13,61
-10,-13,61
-10,-13,61
-9,-13,61
-10,-13,61
-10,-13,61
-10,-13,61
-10,-12,61
-10,-13,61
-10,-13,60
-10,-13,61
-10,-13,61
-10,-13,61
-10,-13,61
-10,-13,61
-10,-13,61
-10,-13,61
-10,-13,61
-10,-13,60
-10,-13,60
-10,-13,61
-10,-13,61
-10,-13,61
-10,-13,61
-10,-13,60
-9,-13,61
-10,-13,61
-10,-13,61
-10,-13,61
-10,-13,61
-10,-13,61
-10,-13,61
-10,-13,61
-11,-14,60
-11,-14,60
-10,-13,61
-9,-13,61
-10,-13,61
-10,-13,61
-11,-13,60
-10,-13,60
-10,-13,61
-10,-13,61
-10,-13,61
-10,-13,61
-10,-13,61
-10,-13,61
-10,-13,61
-10,-13,60
-11,-14,60
-11,-14,60
-11,-13,60
-10,-13,61
-10,-13,61
-10,-13,60
-10,-13,60
-10,-13,61
-10,-13,61
-11,-13,61
-11,-13,60
-10,-13,60
-10,-14,61
-10,-13,61
-11,-13,60
-11,-13,60
-10,-13,61
-10,-13,61
-10,-13,60
-10,-13,61
-10,-13,60
-10,-13,61
-10,-13,61
-10,-13,61
-11,-13,60
-11,-13,60
-10,-13,61
-10,-13,60
-10,-13,60
-10,-13,61
-10,-13,61
-10,-13,61
-10,-13,60
-10,-13,61
-10,-13,60
-10,-13,61
-11,-13,61
-10,-13,61
-10,-13,60
-10,-14,60
-10,-13,61
-10,-13,61
-10,-13,61
-10,-13,61
-10,-13,60
-10,-13,61
-11,-13,61
-10,-13,60
-10,-13,60
-10,-13,60
-10,-13,61
-10,-13,61
-11,-13,61
-10,-13,60
-10,-13,61
-10,-13,61
-10,-13,61
-10,-13,61
-10,-13,61
-10,-13,61
-10,-13,61
-10,-13,61
-10,-13,61
-10,-13,61
-10,-14,60
-10,-13,61
-10,-13,61
-10,-13,61
-10,-13,61
-10,-13,61
-10,-13,60
-10,-13,61
-10,-13,61
-10,-13,60
-10,-13,61
-10,-13,61
-10,-13,61
-10,-13,61
-10,-13,61
-10,-13,61
-10,-13,60
-10,-13,61
-10,-13,61
-10,-13,61
-10,-13,60
-10,-13,61
-10,-13,61
-10,-13,61
-10,-13,61
-11,-13,61
-11,-13,60
-11,-14,60
-10,-14,61
-10,-13,61
-11,-13,61
-10,-13,61
-10,-13,61
-11,-13,60
-10,-13,61
-10,-13,61
-11,-13,60
-11,-14,60
-10,-13,61
-10,-13,61
-10,-13,61
-11,-13,61
-10,-13,61
-11,-14,61
-11,-13,60
-10,-14,60
-10,-13,61
-10,-13,60
-10,-14,61
-10,-14,61
-10,-13,61
-10,-13,60
-11,-13,60
-10,-13,61
-11,-13,60
-11,-14,60
-11,-14,60
-11,-13,60
-11,-13,61
-10,-13,61
-11,-13,60
-11,-13,60
-10,-13,60
-11,-13,61
-11,-14,60
-11,-13,60
-10,-14,61
-11,-14,60
-11,-13,60
-11,-13,61
-11,-13,60
-11,-14,60
-11,-13,60
-11,-13,60
-11,-13,61
-10,-13,60
-10,-13,61
-11,-13,61
-11,-13,60
-10,-14,60
-11,-14,61
-11,-13,61
-11,-13,61
-10,-13,60
-10,-14,60
-11,-13,61
-11,-13,60
-10,-13,61
-11,-13,61
-11,-13,60
-10,-13,60
-10,-13,61
-11,-13,61
-11,-13,61
-11,-13,61
-11,-13,60
-11,-13,61
-11,-13,60
-11,-13,61
-10,-13,61
-10,-13,61
-10,-13,61
-10,-13,61
-10,-13,61
-11,-13,61
-10,-13,61
-10,-14,61
-11,-13,60
-11,-13,61
-11,-13,61
-10,-14,60
-11,-14,61
-11,-13,60
-10,-13,61
-11,-13,61
-11,-13,60
-11,-14,60
-10,-14,60
-11,-13,61
-11,-14,60
-11,-13,61
-10,-13,61
-10,-13,61
-11,-13,60
-11,-13,61
-11,-13,60
-11,-14,60
-11,-13,61
-11,-13,60
-11,-13,60
-11,-13,61
-10,-13,61
-10,-13,61
-11,-13,60
-11,-14,60
-11,-13,61
-11,-13,61
-11,-13,60
-11,-14,61
-10,-14,60
-11,-14,61
-11,-13,61
-11,-13,61
-11,-13,61
-10,-14,60
-10,-13,61
-11,-13,60
-11,-13,60
-11,-13,61
-10,-13,61
-10,-13,60
-11,-13,60
-11,-13,60
-11,-14,60
-11,-13,60
-10,-14,61
-10,-13,60
-11,-14,60
-10,-13,61
-10,-13,61
-10,-13,61
-10,-14,60
-11,-14,61
-11,-13,61
-11,-13,61
-10,-13,60
-10,-14,61
-11,-14,60
-11,-13,61
-10,-13,61
-11,-13,61
-11,-13,60
-11,-13,60
-10,-13,61
-11,-13,61
-11,-13,60
-10,-13,61
-10,-14,60
-11,-13,60
-11,-13,60
-10,-13,61
-10,-13,61
-10,-13,60
-10,-13,61
-10,-13,61
-10,-13,61
-10,-13,61
-10,-13,60
-11,-14,61
-11,-13,61
-11,-13,61
-11,-13,61
-10,-14,60
-10,-14,61
-11,-13,61
-11,-13,61
-11,-13,61
-11,-13,60
-11,-13,60
-10,-13,61
-11,-13,61
-11,-13,60
-11,-13,60
-11,-13,61
-11,-13,61
-11,-13,60
-11,-13,61
-10,-13,61
-11,-13,61
-11,-14,60
-11,-13,61
-11,-13,60
-11,-13,60
-11,-13,60
-11,-13,61
-11,-14,61
-11,-13,61
-11,-13,61
-10,-14,60
-11,-14,60
-11,-13,60
-11,-13,61
-11,-13,61
-11,-13,61
-11,-13,60
-11,-13,61
-10,-13,61
-11,-13,61
-11,-13,61
-10,-13,61
-11,-13,61
-11,-13,60
-11,-13,60
-11,-13,61
-11,-14,60
-11,-13,60
-10,-14,61
-10,-13,60
-11,-13,60
-11,-13,61
-10,-13,61
-11,-14,60
-11,-14,60
-11,-13,61
-11,-13,61
-11,-13,60
-10,-14,60
-10,-14,61
-11,-13,61
-11,-13,61
-10,-13,60
-10,-13,61
-10,-13,60
-10,-14,61
-11,-13,61
-11,-13,60
-10,-13,60
-10,-13,60
-11,-13,60
-11,-13,60
-11,-13,61
-11,-13,60
-11,-13,61
-10,-13,60
-10,-13,60
-11,-13,60
-11,-13,60
-11,-13,60
-11,-13,60
-11,-14,61
-11,-13,61
-11,-13,61
-10,-13,60
-10,-14,61
-11,-14,61
-11,-13,60
-10,-13,61
-11,-13,60
-11,-13,60
-11,-13,60
-10,-13,61
-11,-13,61
-11,-13,60
-11,-13,61
-11,-13,60
-10,-14,61
-10,-13,61
-11,-13,61
-11,-13,60
-10,-13,61
-10,-13,61
-10,-13,61
-11,-13,61
-10,-13,61
-10,-13,61
-11,-13,60
-11,-14,60
-11,-13,60
-10,-13,60
-10,-14,60
-11,-14,61
-11,-13,60
-11,-13,60
-10,-13,61
-11,-13,61
-11,-13,60
-10,-13,61
-11,-13,61
-11,-13,60
-11,-13,61
-11,-13,61
-10,-13,61
-11,-13,61
-11,-14,61
-11,-14,60
-11,-14,60
-10,-14,61
-10,-13,61
-10,-13,61
-11,-14,61
-11,-14,61
-11,-14,60
-10,-14,60
-11,-13,61
-10,-13,61
-11,-13,61
-11,-13,60
-10,-14,60
-11,-14,61
-11,-13,61
-10,-13,61
-11,-14,60
-11,-13,60
-11,-14,60
-10,-14,61
-11,-13,61
-10,-13,60
-10,-14,61
-11,-14,61
-11,-13,60
-10,-13,60
-10,-13,60
-11,-13,60
-10,-13,61
-10,-13,61
-10,-13,60
-10,-13,61
-10,-13,60
-10,-13,61
-10,-13,61
-10,-13,61
-11,-13,60
-11,-13,60
-11,-13,61
-11,-13,61
-10,-13,60
-10,-14,60
-10,-13,61
-10,-13,60
-11,-13,61
-11,-13,60
-10,-13,61
-10,-13,60
-10,-13,61
-11,-13,61
-10,-13,61
-10,-13,61
-10,-13,61
-11,-13,61
-10,-13,61
-11,-13,61
-11,-13,60
-10,-13,61
-10,-13,61
-10,-13,61
-10,-13,61
-10,-13,61
-11,-13,61
-10,-13,60
-10,-14,61
-11,-14,61
-11,-13,61
-11,-13,60
-10,-14,60
-10,-14,61
-11,-14,60
-11,-13,61
-10,-13,61
-10,-13,61
-11,-14,60
-10,-14,61
-10,-13,61
-11,-14,60
-11,-14,60
-11,-13,61
-10,-13,60
-10,-13,60
-10,-14,61
-11,-13,60
-11,-14,61
-11,-14,60
-11,-13,60
-11,-13,61
-10,-13,61
-11,-13,61
-11,-14,61
-10,-13,61
-11,-13,60
-11,-14,60
-10,-14,61
-11,-13,61
-11,-13,60
-10,-13,60
-11,-14,61
-11,-14,61
-11,-13,61
-11,-14,60
-11,-14,60
-11,-13,60
-10,-13,61
-10,-14,61
-11,-13,61
-10,-14,61
-10,-14,61
-10,-13,60
-10,-13,61
-11,-13,60
-11,-13,61
-11,-14,61
-11,-14,61
-10,-13,61
-10,-13,61
-10,-13,61
-11,-13,61
-10,-13,61
-10,-13,61
-10,-14,60
-11,-14,61
-10,-13,61
-11,-13,61
-11,-13,60
-10,-13,60
-11,-13,61
-11,-13,60
-10,-13,61
-10,-13,61
-11,-13,60
-11,-13,60
-10,-13,61
-10,-13,61
-11,-13,61
-10,-13,60
-10,-13,61
-10,-13,60
-11,-13,61
-11,-13,61
-11,-13,61
-10,-13,61
-11,-13,61
-10,-13,61
-10,-13,60
-10,-13,61
-10,-13,60
-10,-13,61
-10,-13,61
-11,-13,61
-10,-13,60
-10,-14,60
-11,-14,61
-11,-13,60
-10,-13,61
-11,-13,60
-10,-13,60
-10,-13,60
-10,-13,61
-11,-13,61
-11,-13,60
-10,-13,61
-10,-13,61
-11,-13,60
-11,-13,61
-10,-13,61
-10,-13,61
-10,-13,60
-10,-13,60
-10,-13,61
-10,-13,61
-10,-13,61
-10,-13,60
-10,-14,61
-11,-14,61
-11,-13,61
-10,-13,60
-10,-14,60
-10,-14,61
-11,-13,60
-11,-13,60
-10,-14,61
-11,-14,61
-11,-14,61
-11,-13,60
-10,-14,61
-11,-13,61
-11,-13,60
-10,-13,61
-10,-14,61
-11,-13,61
-11,-13,61
-10,-13,61
-11,-14,60
-11,-14,60
-10,-13,60
-10,-13,60
-11,-13,60
-10,-13,60
-10,-14,60
-11,-14,61
-11,-14,61
-11,-13,61
-10,-13,60
-10,-14,60
-10,-14,60
-11,-13,61
-11,-13,61
-10,-13,61
-11,-13,60
-11,-13,60
-10,-14,61
-9,-14,61
-9,-13,61
-10,-13,61
-10,-13,61
-10,-13,61
-11,-13,61
-10,-13,61
-10,-13,60
-10,-14,61
-10,-13,61
-10,-13,61
-10,-13,61
-10,-13,61
-10,-13,61
-10,-13,61
-11,-13,61
-10,-13,61
-10,-13,60
-10,-13,61
-11,-13,61
-11,-13,60
-11,-13,61
-11,-13,61
-10,-13,61
-10,-13,60
-10,-13,61
-10,-13,61
-10,-13,61
-10,-13,61
-10,-13,61
-10,-13,61
-11,-13,61
-11,-13,61
-10,-13,61
-10,-13,61
-10,-13,61
-10,-13,61
-10,-13,61
-10,-13,61
-10,-13,61
-10,-13,61
-10,-13,61
-10,-13,61
-10,-14,60
-11,-14,61
-11,-13,60
-10,-13,61
-10,-13,61
-11,-13,60
-11,-13,61
-10,-13,61
-10,-13,61
-10,-13,61
-10,-13,61
-10,-13,60
-10,-13,61
-10,-13,61
-10,-13,61
-11,-13,60
-10,-13,61
-10,-13,61
-10,-13,61
-10,-13,61
-10,-13,61
-10,-13,61
-10,-13,61
-10,-13,61
-10,-13,61
-10,-13,61
-10,-13,60
-10,-14,61
-10,-13,61
-11,-13,61
-10,-13,61
-10,-13,61
-10,-13,61
-10,-13,60
-10,-13,61
-10,-13,61
-10,-13,60
-10,-13,61
-10,-13,61
-10,-13,61
-10,-13,61
-10,-13,61
-10,-13,60
-11,-14,60
-10,-13,61
-10,-13,61
-10,-14,61
-11,-13,61
-10,-13,61
-10,-13,61
-10,-13,60
-10,-13,61
-10,-13,61
-10,-13,61
-10,-13,60
-10,-14,60
-10,-14,61
-10,-13,61
-11,-13,61
-10,-13,60
-10,-13,60
-10,-13,60
-10,-13,61
-10,-13,61
-10,-13,61
-10,-13,61
-10,-13,61
-10,-13,61
-10,-13,61
-10,-13,61
-10,-13,60
-10,-13,61
-10,-13,61
-10,-13,61
-10,-13,61
-10,-13,61
-10,-13,61
-10,-13,60
-11,-13,61
-10,-13,61
-10,-13,61
-10,-13,60
-10,-13,60
-10,-13,61
-10,-13,60
-10,-13,61
-10,-13,61
-10,-13,60
-10,-13,61
-10,-13,61
-10,-13,61
-11,-13,60
-10,-13,60
-10,-13,61
-10,-13,61
-10,-13,61
-10,-13,61
-10,-13,61
-10,-13,60
-10,-13,61
-10,-13,61
-10,-13,61
-10,-13,61
-10,-13,61
-10,-13,60
-10,-13,60
-10,-14,61
-10,-13,61
-10,-13,61
-10,-13,60
-10,-13,60
-10,-13,61
-10,-13,61
-10,-13,61
-10,-13,61
-10,-13,60
-10,-13,61
-10,-13,61
-11,-13,61
-10,-13,61
-10,-13,61
-10,-13,60
-11,-13,60
-11,-14,60
-10,-13,61
-10,-13,61
-10,-13,60
-10,-13,61
-10,-13,60
-10,-13,61
-10,-13,61
-10,-13,60
-11,-13,60
-10,-13,61
-10,-13,61
-11,-13,61
-10,-13,60
-10,-14,61
-10,-13,61
-10,-13,61
-10,-13,61
-10,-13,61
-10,-13,60
-10,-13,61
-11,-13,61
-10,-13,60
-10,-13,61
-10,-13,61
-10,-13,60
-10,-13,61
-10,-13,61
-10,-13,61
-10,-13,61
-10,-13,61
-10,-14,61
-10,-14,61
-10,-13,61
-10,-13,61
-10,-13,61
-10,-13,61
-11,-13,61
-10,-13,60
-10,-14,61
-11,-14,60
-11,-13,60
-10,-13,61
-10,-13,61
-10,-13,60
-10,-13,60
-10,-13,61
-10,-13,61
-11,-13,61
-10,-13,61
-10,-14,61
-11,-13,60
-10,-13,61
-10,-13,61
-10,-14,61
-10,-13,61
-10,-13,61
-10,-13,61
-11,-13,61
-11,-13,61
-10,-13,61
-11,-13,61
-11,-13,61
-10,-13,60
-10,-14,60
-10,-14,60
-11,-13,60
-10,-13,61
-10,-13,61
-10,-13,60
-10,-13,61
-10,-13,61
-10,-14,61
-10,-13,61
-10,-13,61
-10,-13,60
-11,-13,60
-10,-13,61
-10,-13,61
-10,-13,61
-11,-13,60
-10,-13,60
-10,-13,61
-10,-13,61
-10,-13,61
-11,-13,61
-10,-13,60
-11,-14,60
-11,-14,61
-10,-13,61
-10,-13,61
-10,-13,60
-10,-13,61
-10,-13,61
-10,-13,61
-11,-13,61
-10,-13,61
-10,-14,61
-11,-13,60
-10,-13,61
-10,-13,61
-11,-13,61
-10,-13,61
-10,-13,61
-10,-13,60
-10,-14,60
-11,-13,60
-11,-13,61
-10,-13,61
-10,-13,60
-10,-14,61
-11,-13,61
-10,-13,61
-10,-13,61
-11,-13,60
-11,-14,60
-10,-13,61
-10,-13,61
-11,-14,61
-11,-13,60
-10,-13,61
-10,-13,61
-11,-13,61
-10,-13,61
-10,-13,61
-11,-13,61
-10,-13,61
-10,-13,60
-10,-13,61
-11,-13,61
-10,-13,61
-10,-13,61
-11,-13,60
-10,-13,60
-11,-14,61
-11,-13,60
-10,-13,60
-10,-13,61
-10,-13,60
-10,-13,60
-10,-14,61
-10,-13,61
-10,-13,60
-10,-13,61
-10,-13,61
-11,-13,61
-10,-13,60
-10,-14,61
-11,-14,60
-10,-13,60
-10,-13,61
-11,-13,60
-10,-13,61
-10,-13,61
-10,-13,61
-11,-13,61
-11,-13,60
-10,-14,60
-10,-13,61
-11,-13,61
-11,-14,61
-11,-14,60
-11,-13,60
-10,-13,60
-10,-14,61
-11,-14,61
-10,-13,60
-10,-14,61
-10,-14,61
-11,-13,60
-10,-13,61
-10,-13,61
-10,-14,60
-10,-13,60
-10,-13,61
-10,-13,61
-10,-13,61
-10,-13,60
-10,-13,60
-10,-13,61
-10,-13,61
-11,-13,60
-10,-13,60
-10,-14,61
-11,-13,60
-11,-13,61
-11,-13,61
-11,-13,60
-10,-13,60
-10,-13,61
-10,-13,61
-10,-13,61
-11,-14,60
-10,-13,61
-10,-13,60
-10,-13,61
-11,-13,60
-11,-13,60
-10,-13,60
-10,-13,60
-10,-13,61
-10,-13,60
-10,-13,61
-10,-13,61
-11,-13,61
-11,-13,61
-11,-13,60
-10,-14,61
-10,-13,61
-10,-13,61
-10,-13,60
-10,-13,61
-10,-13,60
-10,-14,60
-11,-13,61
-11,-13,61
-11,-14,60
-10,-13,60
-10,-13,60
-11,-13,61
-11,-14,60
-11,-13,60
-10,-13,61
-10,-13,60
-11,-13,60
-11,-13,61
-10,-13,61
-10,-13,61
-11,-14,61
-11,-13,61
-11,-13,61
-11,-13,60
-11,-14,61
-11,-14,60
-11,-13,61
-11,-13,60
-11,-13,61
-11,-13,60
-10,-13,60
-10,-13,61
-11,-13,61
-11,-13,60
-10,-13,61
-10,-14,60
-11,-13,61
-11,-13,60
-11,-14,60
-11,-14,60
-11,-14,60
-11,-13,60
-10,-13,61
-10,-13,60
-10,-13,60
-11,-13,60
-10,-14,61
-11,-13,61
-11,-13,61
-11,-13,60
-10,-14,60
-10,-14,61
-11,-13,61
-11,-13,61
-11,-13,60
-10,-13,60
-11,-14,60
-10,-14,60
-11,-13,61
-10,-13,61
-10,-13,61
-10,-14,61
-11,-13,60
-11,-13,61
-10,-13,61
-11,-13,61
-11,-13,60
-10,-13,60
-10,-13,60
-10,-13,60
-10,-13,61
-11,-13,60
-10,-13,60
-10,-13,61
-11,-13,61
-11,-13,61
-10,-13,60
-11,-14,61
-10,-13,60
-10,-13,60
-11,-13,61
-11,-13,60
-10,-13,60
-10,-13,60
-10,-13,61
-11,-13,61
-10,-13,61
-10,-13,61
-10,-13,61
-11,-13,60
-11,-13,60
-11,-13,60
-11,-13,60
-11,-14,60
-10,-13,61
-10,-13,61
-11,-13,61
-11,-13,61
-10,-14,61
-11,-13,61
-11,-13,60
-10,-13,60
-11,-14,61
-11,-13,60
-11,-13,60
-10,-13,61
-11,-13,60
-11,-13,60
-11,-14,60
-11,-13,61
-11,-13,61
-10,-13,61
-11,-13,61
-10,-13,60
-10,-13,61
-11,-13,61
-11,-13,61
-10,-14,61
-10,-14,60
-11,-14,61
-11,-13,61
-10,-13,60
-10,-14,60
-10,-14,60
-10,-13,61
-10,-13,61
-10,-13,60
-11,-14,60
-11,-14,60
-11,-14,60
-11,-13,61
-10,-13,61
-11,-13,60
-11,-13,60
-10,-13,61
-10,-14,61
-11,-13,60
-11,-14,60
-11,-13,60
-11,-14,60
-11,-13,61
-10,-13,60
-10,-13,60
-10,-13,61
-10,-13,60
-10,-13,61
-10,-13,61
-11,-13,61
-10,-13,60
-10,-14,61
-11,-13,61
-11,-13,61
-10,-13,61
-10,-14,60
-10,-14,61
-11,-13,60
-11,-13,61
-11,-13,61
-10,-13,61
-11,-13,60
-10,-13,60
-10,-13,61
-11,-13,61
-11,-13,61
-10,-13,61
-10,-13,60
-10,-13,60
-10,-13,60
-10,-13,61
-11,-13,60
-10,-13,61
-10,-13,61
-10,-13,61
-10,-13,60
-10,-13,61
-10,-14,61
-11,-13,61
-11,-13,61
-10,-13,61
-10,-14,61
-11,-13,61
-11,-13,61
-11,-13,61
-11,-13,61
-10,-13,60
-10,-13,61
-10,-13,61
-11,-13,61
-10,-13,60
-10,-13,61
-10,-13,61
-10,-13,61
-10,-13,61
-11,-14,61
-11,-13,60
-11,-13,60
-10,-13,61
-10,-13,61
-10,-13,61
-10,-13,61
-11,-13,61
-11,-13,60
-10,-13,60
-10,-13,61
-10,-13,61
-10,-13,61
-11,-13,60
-11,-13,61
-10,-13,60
-10,-13,61
-10,-13,61
-11,-13,60
-10,-14,60
-11,-14,60
-10,-13,61
-10,-13,61
-11,-13,61
-11,-13,60
-10,-14,61
-10,-13,61
-11,-13,60
-10,-13,60
-10,-13,60
-11,-13,61
-11,-13,61
-10,-13,61
-11,-13,60
-11,-14,60
-11,-14,60
-11,-14,60
-11,-13,61
-10,-13,61
-10,-13,61
-10,-13,61
-10,-13,61
-10,-14,61
-12,-14,60
-12,-13,60
-10,-13,61
-10,-13,61
-11,-13,60
-11,-13,60
-11,-13,61
-10,-13,61
-11,-13,61
-11,-13,61
-10,-13,60
-10,-13,61
-10,-13,60
-11,-13,61
-10,-13,61
-11,-13,61
-11,-13,60
-10,-13,60
-10,-13,61
-11,-13,61
-11,-13,61
-11,-13,61
-11,-13,61
-10,-13,60
-10,-13,60
-11,-13,61
-11,-13,61
-11,-13,61
-10,-13,61
-10,-13,60
-11,-13,61
-11,-13,61
-10,-13,61
-11,-13,61
-10,-13,61
-10,-13,61
-10,-13,61
-11,-13,61
-10,-13,61
-10,-13,61
-11,-13,61
-10,-13,60
-10,-14,60
-11,-13,61
-11,-13,61
-10,-13,60
-11,-13,61
-10,-13,60
-10,-13,61
-10,-13,61
-11,-13,61
-11,-13,61
-10,-13,61
-11,-14,60
-11,-13,60
-11,-13,60
-11,-13,61
-10,-13,61
-11,-13,60
-10,-13,61
-10,-13,60
-10,-13,61
-11,-13,61
-11,-13,61
-10,-14,61
-10,-13,61
-11,-13,60
-10,-14,60
-10,-14,61
-11,-13,61
-10,-13,60
-10,-13,61
-10,-13,61
-11,-13,60
-11,-13,60
-10,-13,61
-11,-13,60
-11,-14,60
-10,-13,61
-10,-13,61
-11,-13,60
-11,-13,61
-11,-13,61
-11,-13,61
-10,-14,60
-10,-13,60
-10,-13,60
-10,-13,60
-10,-13,61
-10,-13,61
-10,-13,61
-11,-13,60
-11,-14,61
-10,-13,61
-11,-13,61
-11,-13,60
-10,-14,60
-11,-13,60
-11,-13,61
-10,-13,61
-11,-13,60
-10,-13,60
-10,-13,60
-11,-13,61
-11,-13,61
-10,-13,60
-11,-13,61
-11,-13,60
-11,-13,60
-10,-13,61
-10,-13,61
-10,-13,61
-10,-13,61
-10,-13,60
-11,-13,61
-11,-13,60
-11,-13,60
-10,-13,61
-10,-13,61
-11,-13,61
-11,-13,61
-10,-13,61
-10,-13,60
-10,-14,61
-11,-13,61
-11,-13,61
-11,-13,61
-11,-13,61
-11,-13,60
-10,-13,61
-10,-13,61
-10,-13,61
-11,-13,60
-11,-13,61
-11,-13,60
-10,-13,60
-10,-13,61
-11,-13,61
-10,-13,61
-10,-13,61
-11,-13,60
-10,-13,60
-10,-13,61
-10,-14,60
-11,-14,61
-11,-13,61
-10,-13,61
-11,-13,60
-10,-14,60
-11,-13,61
-11,-13,61
-11,-13,61
-11,-13,61
-11,-13,60
-10,-14,60
-11,-13,61
-11,-13,61
-11,-13,60
-10,-13,61
-10,-13,61
-10,-13,61
-11,-13,61
-11,-14,60
-11,-14,61
-10,-13,61
-10,-14,61
-11,-13,61
-11,-13,61
-11,-13,61
-10,-13,61
-11,-14,60
-11,-13,60
-10,-13,61
-11,-13,60
-10,-13,60
-11,-14,61
-11,-14,60
-11,-13,61
-11,-13,60
-10,-13,61
-11,-13,61
-11,-13,61
-10,-13,61
-10,-13,61
-11,-13,60
-11,-13,60
-11,-13,61
-11,-13,60
-10,-13,61
-10,-14,61
-11,-13,61
-10,-13,61
-10,-13,61
-10,-13,61
-11,-13,60
-10,-13,61
-10,-13,61
-10,-13,60
-11,-13,61
-11,-13,61
-11,-13,61
-11,-13,60
-10,-14,60
-11,-13,61
-11,-13,61
-10,-13,61
-11,-13,61
-11,-13,61
-10,-13,60
-10,-13,61
-10,-13,61
-11,-13,61
-10,-13,61
-10,-13,61
-10,-13,60
-11,-13,61
-10,-13,61
-11,-13,61
-11,-13,60
-10,-13,60
-11,-13,61
-11,-13,61
-10,-13,61
-10,-13,60
-11,-13,60
-11,-13,61
-10,-13,61
-10,-13,61
-10,-13,60
-11,-13,61
-11,-13,61
-11,-13,60
-11,-13,61
-11,-13,60
-11,-13,61
-10,-13,61
-10,-13,61
-11,-13,61
-11,-13,60
-10,-13,61
-11,-13,61
-11,-13,60
-11,-13,60
-11,-13,60
-10,-13,61
-10,-13,61
-10,-13,61
-11,-13,60
-11,-13,60
-11,-13,61
-10,-13,61
-10,-14,60
-11,-13,60
-11,-13,61
-10,-13,61
-10,-13,61
-11,-14,60
-11,-13,60
-11,-13,61
-11,-13,61
-11,-13,60
-11,-13,60
-10,-13,61
-10,-13,61
-10,-14,60
-11,-13,60
-11,-13,60
-10,-13,60
-10,-13,61
-11,-13,61
-11,-14,60
-11,-13,60
-10,-13,61
-10,-13,61
-10,-13,61
-10,-13,61
-11,-13,60
-11,-13,61
-10,-13,61
-11,-13,61
-11,-13,61
-11,-13,61
-10,-13,60
-10,-14,61
-11,-13,60
-11,-13,60
-10,-13,60
-10,-13,61
-10,-13,60
-11,-13,60
-10,-13,61
-10,-13,60
-11,-13,60
-10,-13,61
-10,-13,61
-10,-13,61
-11,-13,61
-11,-13,61
-11,-13,61
-11,-13,61
-11,-13,61
-10,-13,61
-11,-13,60
-10,-13,60
-10,-13,61
-11,-13,61
-11,-13,60
-10,-13,61
-10,-13,60
-11,-13,60
-11,-13,61
-11,-13,60
-11,-13,61
-11,-13,60
-11,-13,61
-10,-13,61
-10,-13,61
-11,-13,61
-10,-13,61
-10,-13,60
-11,-13,61
-11,-13,61
-11,-13,60
-11,-13,61
-11,-13,61
-11,-13,60
-10,-13,61
-10,-13,60
-10,-13,61
-10,-13,60
-10,-13,60
-11,-14,61
-11,-13,61
-11,-13,61
-11,-13,60
-10,-13,60
-11,-13,60
-11,-13,61
-11,-13,61
-11,-13,61
-11,-14,60
-11,-13,60
-10,-13,61
-10,-13,61
-11,-13,61
-11,-13,61
-11,-13,60
-11,-13,60
-11,-13,61
-11,-14,60
-11,-13,60
-11,-13,61
-11,-13,61
-10,-13,61
-10,-13,60
-10,-13,61
-10,-13,61
-11,-13,61
-11,-13,61
-11,-13,60
-11,-13,60
-10,-14,61
-11,-13,61
-11,-13,61
-11,-13,60
-10,-13,61
-10,-13,60
-10,-13,60
-11,-14,61
-11,-13,61
-11,-13,61
-10,-13,61
-10,-14,60
-11,-13,60
-10,-13,61
-11,-13,61
-11,-14,60
-11,-13,60
-10,-13,61
-10,-13,61
-10,-13,61
-11,-13,61
-10,-13,60
-10,-13,60
-11,-13,61
-11,-13,61
-11,-13,61
-10,-13,60
-11,-13,60
-11,-13,61
-11,-13,61
-11,-13,61
-11,-13,61
-11,-13,60
-10,-13,60
-10,-13,61
-11,-13,61
-10,-13,61
-10,-13,61
-11,-13,61
-11,-13,61
-11,-13,61
-11,-13,61
-11,-13,60
-11,-13,61
-10,-13,61
-10,-13,61
-11,-13,61
-11,-13,60
-11,-13,61
-11,-13,61
-11,-13,61
-10,-13,60
-11,-14,60
-11,-14,61
-11,-13,60
-11,-13,61
-11,-13,61
-11,-13,60
-11,-13,60
-10,-13,61
-11,-13,61
-11,-13,61
-10,-13,61
-11,-13,60
-11,-13,60
-11,-13,61
-11,-13,61
-11,-13,61
-11,-13,60
-11,-13,60
-10,-13,61
-10,-13,60
-11,-13,60
-11,-13,60
-11,-13,61
-11,-14,61
-11,-13,61
-10,-13,60
-10,-13,60
-11,-14,61
-11,-13,61
-11,-13,60
-11,-13,61
-11,-13,60
-11,-13,60
-10,-13,61
-10,-13,61
-11,-13,61
-11,-13,60
-10,-13,61
-10,-13,60
-11,-13,61
-11,-13,60
-11,-13,60
-11,-13,60
-11,-13,60
-11,-14,60
-11,-13,61
-11,-13,60
-11,-14,60
-11,-13,60
-10,-13,60
-11,-14,61
-11,-13,61
-11,-13,61
-11,-13,60
-10,-14,60
-11,-14,60
-11,-13,60
-11,-13,61
-11,-13,61
-11,-13,61
-11,-13,60
-10,-13,61
-11,-13,61
-11,-13,60
-11,-13,61
-11,-13,61
-11,-13,61
-11,-13,60
-11,-13,61
-11,-13,61
-11,-13,61
-11,-13,61
-11,-13,60
-10,-13,61
-10,-13,60
-11,-13,60
-11,-13,61
-11,-13,61
-11,-13,61
-11,-13,60
-11,-14,60
-11,-13,61
-10,-13,60
-11,-13,61
-11,-13,60
-11,-13,60
-10,-13,61
-11,-13,61
-11,-13,60
-11,-14,61
-11,-13,61
-11,-13,61
-11,-13,61
-11,-13,61
-11,-13,60
-11,-13,61
-11,-13,60
-11,-13,60
-10,-13,60
-10,-13,61
-11,-13,61
-11,-13,61
-11,-13,60
-11,-14,60
-11,-14,60
-11,-13,61
-11,-13,61
-11,-13,60
-11,-13,61
-11,-13,60
-11,-13,61
-11,-13,60
-11,-13,61
-11,-13,61
-11,-13,60
-11,-13,60
-11,-13,61
-11,-13,61
-11,-13,61
-11,-13,60
-11,-13,60
-11,-13,60
-11,-13,61
-11,-13,61
-11,-13,61
-11,-13,60
-11,-13,60
-11,-14,61
-11,-13,61
-11,-13,60
-11,-13,61
-11,-13,61
-11,-13,60
-11,-14,60
-11,-13,61
-11,-13,61
-11,-14,60
-11,-13,61
-11,-14,60
-11,-13,60
-11,-13,60
-11,-14,61
-11,-14,60
-11,-13,61
-11,-13,60
-11,-13,61
-11,-13,61
-11,-13,61
-11,-13,61
-11,-13,61
-11,-13,61
-11,-13,60
-11,-14,60
-11,-14,60
-11,-13,60
-11,-13,60
-11,-13,61
-11,-13,60
-10,-13,61
-10,-13,61
-11,-13,61
-11,-13,60
-11,-13,61
-11,-13,61
-11,-13,61
-11,-13,61
-11,-13,61
-11,-14,60
-11,-13,61
-11,-13,60
-11,-13,61
-11,-13,61
-11,-13,61
-11,-13,61
-11,-13,61
-10,-13,61
-11,-14,60
-11,-13,60
-11,-13,60
-11,-13,61
-11,-13,61
-11,-13,60
-11,-13,60
-10,-14,61
-11,-13,61
-11,-13,60
-10,-13,61
-11,-13,60
-11,-13,60
-10,-13,61
-11,-13,61
-11,-13,61
-11,-13,60
-10,-13,61
-11,-13,60
-11,-13,61
-10,-13,61
-10,-13,60
-11,-13,60
-11,-13,61
-11,-13,61
-11,-13,60
-11,-14,60
-11,-14,61
-11,-13,60
-11,-13,61
-11,-13,60
-11,-13,60
-11,-14,60
-11,-13,61
-11,-13,61
-11,-13,61
-10,-13,61
-11,-14,61
-11,-13,61
-11,-13,61
-11,-13,61
-11,-14,60
-11,-14,60
-11,-13,60
-11,-13,61
-11,-13,61
-11,-13,60
-11,-13,61
-10,-13,61
-10,-13,61
-11,-13,61
-11,-13,60
-11,-14,61
-11,-13,61
-11,-13,61
-10,-14,60
-10,-14,60
-11,-13,60
-11,-13,61
-11,-13,61
-11,-13,60
-10,-13,61
-10,-13,61
-10,-13,61
-11,-13,60
-11,-13,61
-11,-13,61
-10,-13,61
-11,-13,60
-11,-13,61
-11,-13,60
-11,-13,60
-10,-13,61
-10,-13,61
-10,-13,61
-10,-13,61
-11,-13,61
-11,-13,61
-10,-13,60
-11,-14,61
-11,-13,61
-11,-13,60
-10,-13,61
-10,-13,61
-10,-14,60
-11,-13,60
-11,-13,60
-11,-13,60
-11,-13,60
-11,-13,60
-11,-13,60
-11,-13,61
-11,-13,61
-11,-13,61
-10,-13,61
-10,-13,61
-11,-13,61
-11,-13,61
-10,-13,61
-11,-13,60
-11,-13,60
-11,-13,60
-11,-13,61
-11,-13,60
-11,-13,61
-11,-13,61
-10,-13,61
-11,-13,60
-11,-13,61
-11,-13,61
-11,-13,61
-11,-13,60
-11,-14,61
-11,-13,61
-11,-13,61
-11,-13,61
-11,-13,61
-11,-13,60
-11,-13,60
-11,-13,60
-11,-13,61
-11,-13,60
-10,-13,60
-11,-13,60
-11,-13,60
-11,-13,61
-11,-13,61
-11,-14,60
-11,-14,60
-11,-13,61
-11,-14,61
-11,-14,61
-11,-13,61
-11,-13,61
-10,-13,61
-11,-13,60
-11,-14,60
-11,-13,61
-11,-13,60
-11,-14,60
-10,-14,60
-11,-13,60
-11,-13,60
-11,-13,60
-11,-13,60
-11,-14,60
-11,-13,60
-10,-13,61
-11,-14,61
-11,-13,60
-11,-13,60
-10,-13,60
-11,-13,60
-11,-13,60
-11,-13,61
-10,-13,61
-11,-13,61
-11,-13,60
-11,-13,61
-11,-13,61
-11,-13,61
-11,-13,60
-11,-13,60
-11,-13,60
-11,-13,61
-11,-13,61
-10,-13,60
-10,-13,60
-11,-14,61
-11,-13,60
-11,-13,61
-11,-13,60
-11,-13,60
-11,-13,60
-10,-13,61
-10,-13,61
-11,-13,61
-10,-13,61
-10,-13,60
-11,-13,61
-11,-13,61
-11,-13,60
-11,-13,61
-11,-13,60
-10,-13,61
-10,-13,61
-11,-13,61
-11,-13,61
-11,-13,60
-11,-13,61
-11,-13,61
-11,-13,61
-11,-13,60
-10,-14,61
-11,-14,61
-11,-13,60
-11,-13,61
-10,-13,61
-11,-13,61
-11,-13,60
-11,-14,60
-11,-13,61
-11,-13,60
-10,-13,61
-11,-13,61
-11,-13,61
-11,-13,60
-11,-13,61
-11,-13,60
-11,-13,61
-11,-13,61
-11,-13,61
-11,-13,61
-11,-13,61
-11,-13,61
-11,-14,61
-11,-13,60
-11,-14,61
-11,-14,61
-11,-13,60
-11,-14,60
-10,-14,60
-11,-14,60
-11,-13,61
-11,-13,61
-11,-14,60
-11,-14,60
-11,-14,61
-11,-13,61
-11,-13,61
-11,-13,61
-11,-14,60
-11,-13,60
-11,-13,60
-11,-13,61
-11,-14,60
-11,-14,60
-11,-13,60
-11,-13,60
-10,-13,61
-11,-13,61
-11,-13,60
-11,-13,60
-11,-14,60
-11,-14,61
-11,-13,61
-11,-13,61
-10,-13,60
-11,-14,60
-11,-13,60
-11,-13,61
-11,-13,61
-11,-13,61
-11,-13,60
-11,-13,60
-11,-13,61
-11,-13,61
-11,-13,60
-11,-13,61
-11,-13,60
-11,-13,61
-11,-13,61
-11,-13,60
-11,-13,61
-11,-13,61
-10,-13,61
-11,-13,61
-11,-13,60
-11,-13,60
-10,-13,60
-11,-13,61
-11,-13,60
-11,-13,60
-11,-14,61
-11,-13,60
-11,-13,60
-11,-13,61
-11,-13,60
-11,-13,60
-11,-13,61
-11,-13,61
-11,-13,60
-11,-13,60
-11,-13,61
-11,-13,60
-11,-13,61
-11,-13,61
-11,-13,60
-11,-14,60
-11,-14,60
-11,-13,61
-11,-13,61
-11,-13,61
-11,-13,60
-11,-13,61
-11,-13,61
-11,-13,61
-11,-13,60
-11,-14,61
-11,-13,60
-11,-13,61
-11,-13,61
-11,-13,61
-11,-14,60
-11,-14,60
-11,-13,61
-11,-13,60
-11,-13,60
-10,-13,61
-10,-13,60
-11,-13,61
-11,-13,61
-11,-13,61
-11,-14,60
-11,-13,61
-11,-13,60
-11,-14,61
-11,-13,60
-11,-13,60
-11,-13,60
-11,-14,61
-11,-13,61
-11,-13,60
-11,-14,60
-11,-13,60
-11,-14,60
-11,-13,61
-11,-13,61
-11,-14,60
-11,-13,60
-11,-13,60
-11,-13,61
-11,-13,61
-11,-13,61
-11,-13,60
-11,-13,61
-11,-14,61
-11,-13,60
-11,-13,61
-11,-13,60
-11,-14,60
-11,-13,61
-11,-13,60
-11,-13,61
-11,-13,61
-11,-13,61
-11,-13,61
-11,-13,61
-11,-13,60
-11,-14,60
-11,-14,61
-11,-13,61
-11,-13,61
-11,-13,61
-11,-13,60
-11,-13,60
-10,-13,61
-10,-13,61
-11,-13,60
-11,-13,60
-11,-13,60
-11,-13,61
-11,-13,61
-11,-13,60
-11,-14,60
-11,-13,61
-11,-13,61
-11,-13,61
-11,-13,60
-11,-13,61
-11,-13,61
-11,-13,60
-11,-13,61
-11,-13,60
-11,-14,61
-11,-13,61
-11,-13,60
-11,-13,61
-11,-13,60
-11,-14,60
-11,-14,61
-11,-13,61
-11,-13,60
-11,-13,60
-11,-13,60
-11,-13,61
-11,-13,60
-11,-13,60
-11,-13,60
-11,-13,61
-11,-14,60
-11,-13,60
-11,-13,60
-10,-13,61
-10,-13,61
-11,-13,61
-11,-14,61
-11,-13,61
-11,-13,61
-11,-14,60
-11,-13,61
-11,-14,60
-12,-13,60
-11,-13,61
-11,-13,61
-11,-13,60
-11,-13,60
-11,-14,60
-11,-14,60
-12,-14,60
-12,-13,60
-10,-13,61
-11,-13,61
-11,-13,61
-11,-13,60
-10,-13,61
-11,-13,61
-12,-14,60
-11,-14,60
-11,-14,60
-11,-13,60
-11,-13,60
-11,-13,60
-10,-14,61
-11,-13,61
-11,-13,61
-11,-13,60
-11,-14,61
-11,-14,61
-11,-13,61
-11,-13,61
-11,-13,61
-11,-13,60
-11,-13,61
-11,-13,61
-11,-13,61
-11,-13,61
-11,-13,61
-11,-13,60
-11,-13,60
-11,-13,61
-11,-13,60
-11,-13,60
-11,-13,60
-11,-13,60
-11,-13,60
-11,-13,61
-11,-13,60
-11,-13,60
-11,-13,60
-11,-13,61
-11,-13,60
-11,-13,60
-11,-14,60
-11,-14,61
-11,-13,61
-11,-13,60
-11,-13,60
-11,-13,61
-11,-13,60
-11,-13,60
-11,-13,61
-11,-13,61
-11,-13,61
-11,-13,60
-11,-13,60
-11,-13,60
-11,-13,60
-11,-13,61
-11,-13,60
-11,-13,60
-11,-13,61
-11,-13,61
-11,-13,60
-11,-14,60
-11,-13,60
-11,-13,60
-11,-13,61
-11,-13,61
-11,-13,60
-11,-14,61
-11,-14,60
-12,-13,60
-11,-13,60
-11,-13,60
-11,-13,60
-11,-13,60
-11,-13,60
-11,-13,60
-11,-14,61
-11,-14,60
-11,-13,60
-11,-13,60
-11,-14,60
-11,-14,60
-11,-14,60
-11,-13,60
-11,-14,60
-11,-13,61
-11,-13,60
-11,-13,61
-11,-14,60
-11,-13,60
-11,-14,61
-11,-14,61
-11,-14,61
-11,-13,60
-11,-13,60
-11,-14,60
-11,-13,60
-11,-13,61
-11,-13,61
-11,-13,60
-11,-13,60
-11,-13,60
-11,-13,61
-11,-13,61
-11,-13,61
-11,-14,60
-11,-13,60
-12,-13,60
-11,-13,61
-11,-13,61
-11,-13,61
-11,-13,60
-11,-13,60
-11,-13,60
-11,-13,60
-12,-13,60
-11,-13,60
-11,-13,60
-11,-13,61
-11,-13,61
-11,-13,61
-11,-14,60
-11,-13,60
-11,-13,60
-11,-13,60
-12,-13,61
-11,-13,60
-11,-13,60
-11,-13,61
-11,-13,61
-11,-13,60
-11,-13,60
-11,-13,60
-11,-13,60
-12,-13,60
-12,-13,60
-11,-13,61
-11,-13,60
-11,-13,60
-11,-13,60
-11,-13,60
-11,-13,61
-11,-13,60
-11,-14,61
-12,-13,61
-11,-13,60
-11,-14,60
-11,-14,60
-11,-14,60
-12,-13,60
-11,-13,61
-11,-14,60
-11,-13,60
-11,-14,60
-11,-13,61
-12,-13,60
-12,-14,60
-11,-14,61
-11,-13,60
-12,-13,60
-11,-14,60
-12,-14,60
-12,-14,60
-11,-14,60
-11,-13,60
-11,-13,60
-11,-13,60
-11,-13,60
-11,-13,60
-11,-13,61
-11,-14,61
-12,-14,61
-12,-13,60
-11,-14,60
-11,-14,60
-12,-14,60
-11,-13,60
-11,-13,60
-11,-13,60
-11,-14,60
-11,-13,60
-11,-13,61
-11,-13,60
-11,-14,60
-11,-13,61
-11,-14,60
-11,-14,60
-11,-13,61
-11,-13,61
-11,-13,60
-11,-13,61
-11,-13,60
-11,-14,60
-11,-13,60
-11,-13,61
-11,-13,60
-11,-14,60
-12,-14,60
-12,-13,60
-11,-14,60
-11,-14,60
-12,-14,60
-11,-13,60
-11,-13,61
-11,-13,61
-11,-13,60
-11,-13,60
-11,-13,61
-11,-13,60
-11,-13,61
-11,-13,60
-12,-14,60
-12,-13,60
-11,-13,61
-11,-13,60
-12,-13,60
-11,-13,60
-11,-13,61
-11,-13,60
-12,-13,60
-11,-13,61
-11,-13,61
-12,-13,61
-11,-13,60
-11,-14,60
-12,-14,60
-12,-14,60
-11,-14,60
-11,-13,60
-11,-13,60
-11,-13,60
-11,-14,60
-12,-14,61
-12,-14,60
-11,-13,60
-11,-13,60
-11,-14,60
-12,-13,60
-11,-14,60
-12,-14,60
-12,-13,60
-11,-13,60
-11,-14,60
-11,-13,61
-11,-13,60
-11,-13,60
-11,-13,60
-11,-14,60
-12,-13,61
-12,-13,60
-11,-14,60
-11,-14,60
-12,-14,60
-12,-13,60
-11,-13,61
-11,-13,60
-11,-13,60
-11,-13,60
-11,-14,60
-11,-14,61
-12,-14,60
-11,-14,60
-11,-14,60
-11,-14,60
-12,-14,60
-12,-14,60
-11,-14,60
-11,-14,61
-11,-14,60
-12,-13,60
-11,-13,60
-11,-13,60
-11,-13,60
-11,-13,61
-11,-13,60
-11,-14,60
-11,-14,61
-12,-14,60
-12,-13,60
-11,-13,60
-11,-13,60
-12,-13,60
-12,-14,60
-11,-13,61
-11,-13,61
-11,-13,60
-11,-13,60
-11,-13,61
-11,-13,60
-12,-13,60
-12,-13,60
-11,-14,60
-11,-14,60
-11,-13,61
-11,-13,60
-11,-13,60
-11,-13,60
-11,-13,61
-11,-13,61
-11,-13,60
-11,-13,60
-11,-14,60
-12,-13,60
-12,-13,60
-11,-13,61
-11,-13,60
-11,-13,60
-11,-13,61
-11,-13,61
-12,-14,60
-11,-13,60
-11,-13,61
-11,-13,60
-12,-14,60
-12,-14,61
-11,-13,61
-11,-13,60
-11,-14,60
-11,-13,60
-11,-13,60
-11,-13,61
-11,-13,60
-11,-13,60
-11,-14,60
-12,-14,60
-12,-14,60
-12,-13,60
-11,-13,60
-11,-13,61
-11,-13,60
-12,-14,60
-11,-13,61
-11,-14,60
-11,-14,60
-11,-14,61
-11,-13,61
-11,-13,60
-11,-13,60
-11,-14,60
-12,-14,60
-11,-13,60
-11,-14,61
-12,-13,60
-11,-13,60
-11,-14,61
-12,-14,61
-12,-14,60
-12,-13,60
-11,-14,60
-11,-14,61
-11,-14,60
-12,-13,60
-11,-13,60
-11,-13,60
-11,-14,60
-11,-14,60
-11,-14,61
-12,-13,60
-11,-14,60
-11,-14,60
-11,-14,60
-11,-14,60
-11,-13,60
-11,-14,60
-11,-13,60
-11,-13,60
-11,-13,61
-11,-14,60
-11,-14,60
-11,-13,60
-11,-13,60
-11,-14,61
-11,-14,61
-11,-13,60
-11,-13,60
-11,-14,61
-11,-14,60
-11,-14,60
-11,-13,61
-11,-13,61
-11,-13,60
-11,-14,60
-11,-13,61
-11,-14,60
-11,-13,61
-11,-13,61
-11,-13,61
-11,-13,60
-11,-13,60
-11,-13,60
-11,-13,61
-11,-13,60
-11,-13,61
-11,-13,60
-11,-13,60
-11,-13,60
-11,-13,61
-11,-13,61
-11,-13,60
-11,-14,60
-11,-14,61
-12,-13,60
-11,-13,60
-11,-13,60
-11,-13,60
-11,-14,60
-11,-13,61
-11,-13,61
-11,-13,60
-11,-13,60
-11,-13,60
-11,-13,60
-11,-13,60
-12,-14,60
-11,-14,60
-11,-13,60
-11,-13,60
-11,-13,61
-11,-13,60
-11,-13,61
-11,-13,60
-11,-13,60
-11,-13,60
-11,-14,60
-11,-14,61
-11,-13,61
-11,-13,60
-11,-13,60
-11,-13,60
-11,-14,60
-11,-14,60
-11,-14,60
-11,-14,60
-11,-14,61
-11,-13,61
-11,-13,60
-11,-13,60
-11,-14,60
-11,-14,60
-11,-13,60
-11,-13,61
-11,-13,60
-11,-13,60
-11,-13,60
-11,-14,61
-11,-13,61
-12,-13,60
-11,-13,60
-11,-14,61
-12,-14,60
-11,-13,60
-11,-13,61
-11,-13,61
-11,-14,60
-11,-14,60
-11,-13,61
-11,-13,60
-11,-14,60
-11,-13,60
-11,-13,61
-11,-13,60
-11,-13,61
-11,-13,61
-11,-13,60
-11,-13,61
-11,-13,61
-11,-13,60
-11,-13,60
-11,-13,60
-11,-13,61
-11,-13,61
-11,-13,60
-11,-14,60
-11,-13,61
-11,-13,60
-11,-13,61
-11,-13,61
-11,-13,60
-11,-13,60
-11,-13,61
-11,-13,61
-11,-13,60
-11,-13,61
-11,-13,61
-11,-13,60
-11,-13,60
-11,-13,60
-11,-13,60
-11,-13,60
-11,-13,60
-11,-13,60
-11,-13,60
-11,-13,60
-11,-13,61
