1565786198.000000, 1565786198.000000, 1565786198.000000
32.000000, 32.000000, 32.000000
-30,52,23
-30,52,23
-30,51,23
-30,52,23
-30,52,23
-30,52,23
-30,52,23
-30,52,23
-30,51,23
-30,52,23
-30,52,23
-30,51,23
-30,52,23
-30,51,23
-30,51,23
-30,52,23
-30,52,23
-30,52,23
-30,52,23
-30,52,23
-30,52,23
-30,52,23
-30,52,23
-30,51,23
-30,52,23
-30,52,23
-30,52,23
-30,51,23
-30,51,23
-30,52,23
-30,52,23
-30,52,23
-30,51,22
-30,52,23
-30,51,23
-30,52,23
-30,51,23
-30,52,23
-30,52,23
-30,52,23
-30,51,23
-30,52,23
-30,52,23
-30,52,23
-30,52,23
-30,52,23
-30,52,23
-31,51,23
-30,51,23
-30,52,23
-30,52,23
-30,52,23
-30,52,23
-30,51,23
-30,51,23
-30,51,23
-30,52,23
-30,52,23
-30,51,23
-30,51,23
-30,51,23
-30,52,23
-30,51,23
-30,51,23
-30,52,23
-30,51,23
-30,52,23
-30,51,23
-30,51,23
-30,52,23
-30,52,23
-30,52,23
-30,51,23
-30,51,23
-30,51,23
-30,52,23
-30,51,23
-30,51,23
-30,52,23
-30,52,23
-30,52,23
-30,51,23
-30,51,23
-30,51,23
-30,52,23
-30,52,23
-30,52,23
-30,51,23
-30,52,23
-30,51,23
-30,52,23
-30,52,23
-30,52,23
-30,51,23
-30,52,23
-30,52,23
-30,52,23
-30,52,23
-30,52,23
-30,51,23
-30,52,23
-30,52,23
-30,51,23
-30,52,23
-30,51,23
-30,52,23
-29,52,23
-30,51,23
-30,52,23
-30,52,23
-30,52,23
-30,52,23
-30,52,23
-30,51,23
-30,52,23
-30,52,23
-30,51,23
-30,51,23
-30,52,23
-30,52,23
-30,52,23
-30,51,23
-30,52,23
-30,52,23
-30,52,23
-30,51,23
-29,51,23
-30,52,23
-30,52,23
-30,52,23
-30,51,23
-30,51,23
-30,52,23
-29,52,23
-30,52,23
-30,52,23
-30,52,23
-30,51,23
-30,52,23
-30,51,23
-30,52,23
-30,52,23
-30,52,23
-30,52,23
-30,52,23
-30,52,23
-29,52,23
-29,51,23
-30,52,23
-30,52,23
-30,52,22
-30,52,23
-30,52,23
-30,51,23
-30,52,23
-30,51,23
-30,52,23
-30,52,23
-30,52,23
-30,52,23
-30,52,23
-30,52,23
-30,52,23
-30,51,23
-30,52,23
-30,52,23
-29,51,23
-30,51,23
-30,51,23
-30,51,23
-30,52,23
-30,52,23
-30,52,23
-30,51,23
-30,52,23
-30,52,23
-30,51,23
-30,51,23
-30,52,23
-31,52,23
-30,51,23
-29,52,24
-29,52,24
-29,52,24
-29,51,23
-29,52,24
-29,52,23
-29,52,23
-30,51,23
-30,51,24
-29,51,23
-29,51,23
-30,51,24
-30,52,23
-29,52,23
-29,51,23
-30,51,23
-30,52,23
-29,52,23
-30,52,23
-30,52,23
-29,52,23
-30,52,23
-30,51,23
-30,52,23
-29,52,23
-30,52,23
-30,52,23
-29,52,23
-29,51,23
-30,51,23
-29,52,24
-30,52,24
-30,52,23
-29,52,23
-29,52,23
-30,52,24
-30,52,23
-30,52,23
-29,52,23
-30,52,23
-29,52,23
-29,51,23
-29,52,24
-30,52,23
-30,52,23
-30,52,23
-29,51,23
-29,51,24
-30,51,23
-31,51,23
-31,51,23
-30,52,23
-29,52,23
-29,52,24
-29,52,23
-30,51,23
-30,52,23
-30,52,23
-30,52,23
-29,51,23
-30,52,23
-30,51,23
-30,51,23
-30,51,23
-30,52,23
-30,52,23
-30,52,23
-30,52,23
-30,52,23
-30,51,23
-30,51,23
-30,52,23
-30,52,23
-30,52,23
-30,51,23
-30,52,23
-30,51,23
-30,52,23
-30,52,23
-30,51,23
-30,52,23
-30,52,23
-30,51,23
-29,52,23
-30,52,23
-30,52,23
-30,51,23
-30,51,23
-30,51,23
-29,52,23
-30,51,23
-30,51,23
-30,51,23
-30,51,23
-30,52,23
-30,51,23
-30,52,23
-30,52,23
-30,52,23
-30,52,23
-29,52,23
-30,51,23
-30,52,24
-30,52,23
-30,51,23
-30,51,24
-30,51,23
-30,52,23
-30,52,23
-29,51,23
-29,51,23
-30,51,23
-30,52,23
-29,51,24
-29,51,23
-29,52,23
-30,52,23
-30,52,23
-29,51,23
-29,52,23
-29,52,23
-30,52,23
-30,52,23
-29,52,23
-30,52,23
-30,51,23
-30,52,23
-29,52,23
-30,52,23
-30,52,23
-29,52,23
-29,51,23
-30,51,23
-29,52,23
-29,52,23
-29,52,23
-29,52,23
-30,52,23
-30,51,23
-29,52,23
-29,52,23
-30,52,23
-29,52,23
-29,51,23
-30,51,23
-29,52,23
-30,52,23
-30,52,23
-30,52,23
-29,52,23
-29,52,23
-30,52,23
-30,52,23
-29,51,23
-29,52,23
-30,52,23
-30,52,23
-30,52,23
-29,51,23
-30,52,23
-30,52,23
-30,52,23
-30,52,23
-30,52,23
-30,51,23
-29,52,23
-30,52,23
-30,52,23
-30,52,23
-30,52,23
-29,51,23
-29,52,23
-30,51,23
-30,51,23
-30,51,23
-29,51,23
-30,52,23
-29,51,23
-29,51,23
-29,52,23
-29,52,23
-30,51,24
-29,52,24
-29,51,23
-29,51,23
-29,51,24
-29,52,24
-30,52,23
-30,52,23
-29,51,23
-29,52,23
-29,51,24
-30,51,23
-30,51,23
-29,52,23
-30,52,23
-29,52,23
-29,51,23
-30,52,24
-30,51,24
-30,51,23
-29,52,24
-29,52,24
-29,52,24
-29,51,23
-30,52,23
-30,52,24
-30,51,23
-30,51,23
-29,52,24
-29,51,24
-29,52,23
-29,51,23
-29,52,24
-29,52,24
-29,51,24
-30,51,23
-29,51,23
-31,52,23
-30,51,23
-29,52,23
-29,52,23
-29,52,23
-29,52,24
-29,52,24
-29,51,24
-29,51,24
-30,51,23
-31,51,22
-32,52,23
-30,52,24
-28,52,24
-28,52,23
-29,52,23
-29,52,23
-30,52,23
-30,51,23
-29,52,23
-29,52,23
-29,52,23
-30,52,23
-30,52,23
-30,51,23
-29,52,23
-29,51,23
-30,52,23
-30,52,23
-29,51,24
-30,52,23
-30,52,22
-30,52,22
-30,52,23
-30,52,23
-30,52,23
-30,52,23
-29,52,23
-29,52,23
-30,51,23
-30,52,23
-30,52,23
-29,52,23
-29,52,23
-29,52,23
-30,52,23
-30,52,23
-30,51,23
-29,52,23
-29,52,23
-30,52,23
-30,52,23
-30,52,23
-29,52,23
-30,52,23
-30,52,23
-29,52,23
-29,52,23
-30,52,23
-30,51,23
-30,52,23
-30,52,23
-30,52,23
-29,52,23
-29,52,23
-29,52,23
-30,52,23
-30,52,23
-30,51,23
-30,52,23
-30,52,23
-29,52,23
-29,52,23
-30,51,23
-31,51,23
-31,52,22
-30,51,23
-29,51,23
-29,52,23
-29,51,23
-29,52,23
-30,52,23
-30,52,23
-30,52,23
-30,52,23
-30,52,23
-30,52,23
-30,52,22
-30,52,22
-29,52,23
-29,52,24
-29,52,23
-30,51,23
-31,51,23
-30,52,23
-29,52,23
-29,52,23
-30,52,23
-30,52,23
-29,52,23
-29,52,23
-29,52,23
-30,52,23
-30,51,22
-30,51,22
-30,52,23
-29,53,23
-29,52,23
-29,51,23
-30,51,23
-31,51,23
-30,52,22
-30,52,23
-30,52,23
-30,51,24
-29,52,23
-29,52,23
-31,52,23
-32,52,23
-34,52,22
-34,51,23
-31,50,25
-29,50,23
-27,51,24
-27,53,25
-26,54,23
-25,55,23
-23,54,23
-20,54,26
-22,54,27
-28,53,27
-27,56,24
-27,57,24
-21,52,29
-25,52,28
-19,52,28
-28,50,26
-27,53,26
-27,54,26
-22,54,26
-22,53,26
-21,52,28
-22,54,27
-23,52,24
-24,54,23
-30,54,24
-36,52,24
-35,52,26
-31,51,25
-28,48,24
-29,49,24
-30,51,27
-31,52,27
-32,55,29
-33,53,31
-29,52,30
-27,50,30
-24,49,30
-24,49,31
-26,49,31
-27,49,29
-24,47,30
-25,47,32
-29,41,26
-29,39,24
-27,36,22
-21,40,27
-29,47,27
-30,58,39
-40,60,51
-15,50,32
-19,46,30
-32,50,25
-35,48,30
-35,49,33
-26,46,37
-32,49,38
-26,46,38
-21,41,36
-24,45,38
-16,41,39
-17,46,42
-16,46,41
-15,46,41
-17,45,41
-19,46,41
-20,45,39
-23,47,39
-23,46,39
-24,45,39
-22,45,38
-21,45,38
-24,47,39
-22,46,38
-23,46,38
-24,46,37
-24,46,37
-25,46,37
-25,46,38
-24,46,38
-24,46,38
-24,45,37
-24,46,37
-24,46,37
-24,46,38
-24,46,37
-25,46,37
-25,46,37
-26,45,37
-25,46,37
-25,46,37
-24,46,37
-25,46,37
-24,46,37
-24,46,37
-24,46,37
-23,46,38
-24,46,37
-24,46,37
-25,46,37
-26,46,37
-26,46,37
-25,46,37
-25,45,37
-25,45,37
-25,46,37
-25,46,37
-25,46,37
-24,46,37
-24,46,37
-24,46,37
-25,46,37
-25,46,37
-25,46,37
-25,46,37
-25,46,37
-25,46,37
-25,46,37
-25,46,37
-25,46,37
-24,46,37
-24,46,37
-24,47,37
-25,46,36
-26,46,35
-28,46,35
-28,46,35
-28,47,35
-26,46,35
-26,46,35
-27,47,34
-28,47,34
-27,47,33
-27,47,33
-27,48,33
-27,48,33
-27,47,33
-28,47,33
-29,47,31
-30,47,30
-32,48,30
-38,46,24
-33,51,29
-30,48,27
-29,49,28
-31,48,30
-30,46,30
-27,48,33
-27,49,33
-30,49,30
-32,47,26
-33,47,27
-33,48,29
-31,49,30
-30,48,30
-28,47,29
-28,49,30
-27,49,31
-28,50,30
-28,50,29
-28,49,29
-29,49,29
-30,50,31
-30,50,31
-30,50,30
-28,49,29
-29,48,28
-33,48,27
-36,49,26
-36,49,26
-30,47,27
-28,47,28
-28,48,29
-26,47,30
-27,48,30
-29,49,29
-34,47,29
-32,49,26
-29,50,27
-28,51,28
-26,49,32
-27,48,33
-31,47,30
-32,47,29
-34,46,26
-34,48,27
-33,49,28
-31,50,29
-29,49,29
-28,49,28
-29,48,28
-29,49,28
-30,49,29
-30,49,29
-30,49,28
-30,49,28
-31,49,28
-31,49,28
-30,49,28
-29,49,29
-29,49,29
-29,49,29
-30,49,28
-30,49,28
-31,49,28
-30,49,28
-29,49,29
-29,49,29
-30,49,29
-29,49,29
-30,49,28
-30,49,28
-30,49,28
-29,49,29
-30,49,28
-29,49,28
-30,49,29
-30,49,29
-29,49,28
-30,49,28
-30,49,29
-29,49,29
-29,49,29
-30,49,28
-30,49,29
-30,49,29
-30,49,28
-29,49,29
-29,49,29
-29,49,29
-30,49,29
-29,49,28
-30,49,28
-30,49,29
-29,49,29
-29,49,29
-29,49,29
-29,49,29
-30,49,28
-30,49,28
-30,49,28
-30,48,28
-29,49,29
-29,49,29
-29,49,28
-29,49,28
-30,49,28
-30,49,28
-30,49,28
-29,49,29
-29,49,29
-29,49,28
-30,49,28
-29,49,29
-30,49,29
-29,49,29
-30,49,29
-29,49,29
-29,49,29
-30,49,29
-30,49,29
-29,49,28
-29,49,28
-29,49,29
-30,49,29
-29,49,29
-29,49,29
-30,49,29
-29,49,29
-29,49,29
-30,48,29
-30,49,29
-30,48,28
-29,49,28
-29,49,29
-29,49,29
-29,49,28
-30,49,29
-30,49,29
-29,49,29
-29,49,28
-29,49,29
-30,49,29
-30,49,28
-30,49,28
-29,49,28
-29,49,29
-30,49,29
-29,49,29
-30,49,28
-30,49,28
-29,49,28
-29,49,29
-29,49,29
-30,49,29
-30,49,29
-30,49,29
-29,49,29
-29,49,28
-29,49,29
-30,49,29
-29,49,29
-29,49,28
-29,49,28
-30,49,29
-30,49,29
-29,49,29
-29,49,28
-29,49,29
-30,49,29
-29,49,29
-29,49,29
-29,49,29
-30,49,29
-29,49,29
-29,49,29
-29,49,29
-29,49,29
-29,49,29
-29,49,29
-29,49,29
-29,49,29
-29,49,29
-29,49,29
-29,49,29
-29,49,29
-29,49,29
-29,49,29
-29,49,28
-29,49,29
-30,49,29
-29,49,29
-29,49,29
-29,49,29
-29,49,29
-29,49,29
-29,49,29
-30,49,29
-29,49,29
-29,49,29
-29,49,29
-29,49,28
-29,49,29
-29,49,29
-29,49,29
-29,49,29
-29,49,29
-29,49,29
-29,49,28
-30,49,29
-29,49,29
-29,49,29
-29,48,29
-29,49,29
-29,49,28
-29,49,29
-29,49,29
-29,49,29
-29,49,28
-30,49,29
-29,49,29
-29,49,28
-30,49,29
-29,49,29
-29,49,29
-30,49,29
-29,49,29
-29,49,29
-29,49,28
-29,49,29
-30,49,29
-29,49,29
-29,49,29
-29,48,29
-29,50,29
-30,48,28
-29,49,29
-30,49,29
-29,49,29
-29,49,28
-30,49,28
-29,49,29
-29,49,29
-29,49,29
-29,49,29
-30,49,29
-30,49,29
-29,49,29
-29,49,29
-29,49,29
-29,49,29
-30,49,29
-29,49,29
-29,49,29
-29,49,29
-29,49,29
-29,49,29
-29,50,29
-30,49,29
-29,49,29
-30,48,29
-29,49,29
-29,49,29
-29,49,29
-30,49,29
-30,49,29
-29,49,29
-29,49,29
-29,49,29
-29,49,29
-29,49,29
-29,49,29
-29,49,29
-29,49,29
-29,49,29
-29,49,30
-29,49,28
-29,49,29
-29,49,29
-29,49,29
-29,49,29
-29,49,29
-29,49,29
-29,49,29
-29,49,29
-30,49,29
-29,49,29
-29,49,29
-29,49,29
-29,49,29
-29,49,29
-29,49,29
-30,49,29
-29,49,29
-29,49,29
-29,49,29
-29,49,29
-29,49,29
-29,49,29
-29,49,29
-29,49,29
-29,49,29
-29,49,29
-29,49,29
-30,49,29
-30,48,29
-29,49,29
-29,49,28
-29,49,29
-29,49,29
-29,49,29
-29,49,28
-29,49,29
-30,49,29
-29,49,29
-29,49,29
-29,49,29
-30,49,29
-29,49,28
-30,49,29
-30,49,29
-29,49,29
-29,49,29
-29,49,29
-29,49,29
-29,48,29
-29,49,28
-29,49,28
-30,49,29
-30,49,29
-29,49,29
-29,49,29
-29,49,29
-29,49,29
-29,49,29
-30,49,29
-30,49,29
-29,49,29
-29,49,29
-29,49,29
-29,49,29
-29,49,29
-29,49,29
-30,49,29
-29,49,29
-30,49,29
-29,49,29
-30,49,28
-30,49,29
-29,49,29
-29,49,29
-29,49,29
-29,49,29
-29,49,29
-29,49,29
-29,49,29
-29,49,29
-29,49,29
-29,49,29
-29,49,29
-29,49,29
-29,49,29
-29,49,29
-29,49,29
-29,49,29
-29,49,29
-29,49,29
-29,49,29
-29,49,29
-29,49,29
-29,49,29
-29,49,29
-29,49,29
-29,49,29
-29,49,29
-29,49,29
-29,49,29
-29,49,29
-29,49,29
-29,49,28
-29,49,29
-29,49,29
-29,48,29
-29,49,29
-29,49,28
-29,49,28
-29,49,29
-29,49,29
-29,49,28
-29,49,29
-29,49,29
-29,49,29
-29,49,29
-29,49,29
-29,49,29
-29,49,29
-29,49,29
-29,49,28
-29,49,29
-29,48,29
-29,50,29
-29,49,29
-29,49,29
-30,49,29
-29,49,29
-29,49,28
-29,49,29
-29,49,29
-29,49,29
-29,48,29
-29,49,29
-29,49,29
-29,49,29
-29,49,29
-29,49,29
-29,49,29
-29,49,29
-29,49,29
-29,49,29
-29,49,28
-29,49,29
-29,49,29
-29,49,29
-30,49,29
-29,49,28
-29,49,29
-29,49,29
-29,49,29
-29,49,28
-29,49,29
-29,49,29
-29,49,29
-29,49,29
-29,49,29
-29,49,29
-29,50,29
-29,49,28
-29,49,28
-30,49,29
-29,49,29
-29,49,28
-29,49,29
-29,49,29
-29,49,29
-29,49,28
-29,49,29
-29,49,29
-29,49,29
-29,49,29
-29,49,29
-29,49,29
-29,49,29
-29,49,29
-29,49,29
-29,49,29
-29,49,29
-29,49,29
-29,49,29
-29,49,29
-30,49,28
-29,49,29
-29,49,29
-29,49,29
-29,49,29
-30,49,29
-29,49,29
-29,49,29
-29,49,29
-29,49,29
-29,49,29
-29,49,29
-29,49,29
-29,49,29
-29,49,29
-29,49,29
-29,49,29
-29,49,29
-29,49,29
-29,49,29
-29,49,29
-29,49,29
-29,49,29
-29,49,29
-29,49,29
-29,49,29
-29,49,29
-29,49,29
-29,49,29
-29,49,29
-29,49,29
-29,49,29
-29,49,29
-29,49,29
-29,49,29
-29,49,29
-29,49,29
-29,49,29
-29,49,29
-29,49,29
-29,49,29
-29,49,29
-29,49,29
-29,49,29
-29,49,29
-29,49,29
-30,49,29
-29,49,28
-29,49,28
-29,49,29
-29,49,29
-29,49,29
-29,49,29
-29,49,28
-29,49,29
-29,49,29
-29,49,29
-29,49,29
-29,49,29
-29,49,29
-29,49,29
-29,49,29
-29,49,29
-29,49,29
-29,49,29
-29,49,29
-29,49,28
-29,49,29
-29,49,29
-29,49,29
-29,49,29
-29,49,29
-29,49,29
-29,49,29
-29,49,29
-29,49,29
-29,49,29
-29,49,29
-29,49,29
-29,49,29
-29,49,29
-29,49,29
-29,49,29
-29,49,29
-29,49,29
-29,49,29
-30,49,29
-29,49,29
-29,49,28
-29,49,29
-29,49,29
-29,49,29
-29,49,29
-29,49,29
-29,49,29
-29,49,29
-29,49,29
-29,49,29
-29,49,29
-29,49,28
-30,49,29
-29,49,29
-29,49,29
-29,49,28
-29,49,28
-30,49,29
-29,49,29
-29,49,29
-29,49,29
-29,49,29
-29,49,29
-29,49,29
-29,49,29
-29,49,29
-29,49,29
-29,49,29
-29,49,29
-29,49,28
-29,49,29
-29,49,29
-29,49,29
-29,49,29
-29,49,29
-29,49,29
-29,49,29
-29,49,28
-29,49,29
-29,49,29
-29,49,29
-29,49,29
-29,49,29
-29,49,29
-29,49,29
-29,49,29
-29,49,29
-29,49,29
-29,49,29
-29,49,29
-29,49,29
-29,49,29
-29,49,29
-29,49,29
-29,49,29
-29,49,29
-29,49,29
-29,49,28
-29,49,29
-29,49,29
-29,49,29
-29,48,29
-29,50,29
-29,49,28
-29,49,28
-29,49,29
-29,49,29
-29,49,28
-29,49,29
-29,49,28
-29,49,29
-29,49,29
-29,49,29
-29,49,28
-29,49,29
-29,49,29
-29,49,29
-29,49,29
-29,49,29
-29,49,29
-29,49,29
-29,48,29
-29,49,29
-29,49,29
-29,49,29
-30,49,28
-30,49,28
-30,49,28
-29,49,29
-29,49,29
-29,49,29
-29,49,29
-29,49,29
-29,49,29
-30,49,29
-29,49,28
-29,49,29
-29,49,29
-29,49,29
-29,49,28
-29,49,28
-29,49,29
-29,49,29
-29,49,29
-29,49,29
-29,49,29
-29,49,29
-30,49,29
-29,49,29
-29,49,28
-29,49,29
-29,49,29
-29,49,29
-29,49,28
-29,49,29
-29,49,29
-29,49,29
-29,49,29
-29,49,29
-29,49,29
-29,49,29
-29,49,29
-29,49,29
-29,49,29
-29,49,29
-29,49,29
-29,49,29
-29,49,29
-29,49,29
-29,49,29
-29,49,29
-29,49,29
-29,49,29
-29,49,29
-29,49,29
-29,49,29
-29,49,29
-29,49,29
-29,49,29
-29,49,29
-29,49,29
-29,49,29
-29,49,29
-29,49,29
-29,49,29
-29,49,29
-29,50,29
-29,49,29
-29,49,29
-29,49,29
-29,49,29
-29,49,29
-29,49,29
-29,49,29
-29,49,29
-29,49,29
-29,49,29
-29,49,29
-29,49,29
-29,49,29
-29,49,29
-29,49,29
-29,49,29
-29,49,29
-29,49,29
-29,49,29
-29,49,29
-29,49,29
-29,49,29
-29,49,29
-29,49,29
-29,49,29
-29,49,28
-29,49,29
-29,49,29
-29,49,29
-29,49,28
-29,49,29
-29,49,29
-29,49,29
-29,49,29
-29,49,29
-29,49,29
-29,49,29
-29,49,29
-29,49,29
-29,49,28
-29,49,29
-29,49,29
-29,49,29
-29,49,29
-30,49,29
-29,49,29
-29,49,29
-29,49,29
-29,49,29
-29,49,29
-29,49,29
-29,49,29
-29,49,29
-29,49,29
-30,48,28
-30,49,29
-29,49,29
-29,49,29
-29,49,29
-29,48,29
-29,49,29
-29,49,29
-29,49,29
-30,49,28
-30,49,29
-29,49,29
-29,49,29
-29,49,29
-29,49,29
-30,48,29
-29,49,29
-29,49,28
-29,49,29
-29,48,29
-29,49,29
-29,49,29
-29,49,29
-29,49,29
-29,49,29
-29,49,29
-29,49,28
-29,49,29
-29,49,29
-29,49,29
-29,49,29
-29,49,29
-29,49,29
-29,48,29
-29,49,29
-29,49,29
-29,49,29
-29,49,29
-29,49,29
-29,49,29
-29,49,29
-29,49,29
-29,49,29
-29,49,29
-29,49,29
-29,49,29
-29,49,29
-29,49,29
-29,49,29
-29,49,29
-29,49,29
-29,49,29
-29,49,29
-29,49,29
-29,49,29
-29,49,29
-29,49,28
-29,49,29
-29,49,29
-29,49,29
-29,49,29
-29,49,29
-29,49,29
-29,49,29
-29,49,29
-29,49,29
-29,49,29
-29,49,29
-29,49,29
-29,49,29
-29,49,29
-29,49,29
-29,49,29
-29,49,29
-29,49,29
-29,49,29
-29,49,29
-29,49,29
-29,49,29
-29,49,29
-29,49,29
-29,49,29
-29,49,29
-29,49,29
-29,49,29
-28,48,29
-28,52,29
-28,48,29
-28,50,29
-34,48,27
-35,49,28
-30,48,28
-28,50,29
-26,50,30
-27,51,30
-28,50,29
-29,48,28
-32,47,28
-35,47,27
-34,49,28
-29,50,28
-27,50,29
-27,50,29
-27,49,30
-29,49,30
-29,49,30
-30,49,29
-30,49,29
-29,48,28
-29,48,29
-29,49,30
-29,49,30
-27,49,29
-27,50,29
-28,50,29
-28,50,29
-28,49,29
-29,49,28
-30,49,29
-30,49,29
-28,49,28
-29,50,29
-29,50,28
-29,49,29
-29,49,29
-29,49,29
-29,49,28
-29,49,28
-30,49,28
-29,49,29
-28,49,29
-28,50,29
-29,49,28
-28,49,30
-28,49,30
-28,49,29
-29,49,28
-29,49,28
-30,49,29
-29,49,29
-28,49,29
-28,50,29
-29,50,29
-29,49,29
-28,49,29
-29,49,28
-29,49,28
-30,49,28
-28,49,30
-28,49,29
-28,49,29
-29,49,28
-29,49,29
-29,50,29
-29,49,29
-29,49,28
-29,49,28
-29,50,28
-29,50,29
-29,50,29
-29,49,28
-29,49,28
-29,50,29
-29,48,28
-30,48,28
-32,48,27
-31,50,28
-30,50,29
-27,50,29
-26,49,30
-26,48,31
-28,49,30
-28,48,29
-28,49,29
-28,50,30
-27,50,31
-26,50,31
-26,49,31
-25,49,32
-24,50,32
-28,49,30
-29,50,29
-30,52,27
-28,51,29
-28,48,30
-29,48,31
-28,47,30
-28,48,30
-28,49,29
-30,49,28
-31,48,27
-31,49,28
-29,49,29
-27,50,30
-27,49,30
-26,50,30
-25,50,30
-25,51,30
-25,51,30
-26,51,30
-27,50,30
-27,49,30
-27,49,30
-26,50,30
-26,50,30
-26,50,30
-27,51,30
-25,50,30
-25,50,30
-25,50,30
-26,51,30
-26,52,30
-23,52,30
-25,51,31
-26,49,30
-28,49,30
-36,46,26
-34,47,26
-33,47,26
-29,50,28
-28,50,30
-27,50,30
-28,50,29
-29,49,29
-30,49,28
-31,48,27
-34,48,26
-29,51,28
-27,50,30
-26,50,32
-28,48,30
-30,48,29
-31,48,26
-34,49,25
-34,49,27
-29,50,30
-25,50,31
-26,49,29
-28,49,28
-31,49,28
-32,49,28
-30,49,29
-28,49,29
-27,49,29
-28,49,29
-30,50,28
-30,49,28
-29,49,28
-29,49,29
-29,49,29
-28,49,29
-29,49,28
-29,49,28
-29,49,29
-28,49,29
-29,49,29
-29,49,29
-29,49,29
-29,49,28
-29,49,28
-29,49,29
-29,49,29
-29,49,29
-29,49,29
-29,49,28
-29,49,29
-29,49,29
-29,49,29
-29,49,29
-29,49,29
-29,49,28
-29,49,28
-29,49,29
-29,49,29
-29,49,29
-29,49,29
-29,49,29
-29,49,29
-29,49,28
-29,49,28
-29,49,28
-29,49,29
-29,49,29
-29,49,29
-29,49,29
-29,49,28
-29,49,28
-29,49,28
-29,49,28
-29,49,29
-29,49,29
-29,49,28
-29,49,28
-29,49,28
-29,49,29
-29,49,29
-29,49,29
-29,49,28
-29,49,28
-29,49,29
-29,49,29
-29,49,29
-29,49,29
-29,49,29
-29,49,29
-29,49,29
-29,49,29
-29,49,29
-29,49,28
-29,49,29
-29,49,29
-29,49,29
-29,49,28
-29,49,29
-29,49,29
-29,49,29
-29,49,28
-30,49,29
-29,49,28
-29,49,29
-29,49,29
-29,49,29
-29,49,29
-29,49,28
-29,49,28
-29,49,28
-29,49,29
-29,49,29
-29,49,29
-29,49,29
-29,49,28
-29,49,29
-29,49,29
-29,49,29
-29,49,29
-29,49,29
-29,49,29
-29,49,28
-29,49,29
-29,49,29
-29,49,29
-29,49,29
-29,49,29
-29,49,28
-29,49,28
-29,49,28
-29,49,29
-29,49,29
-29,49,29
-29,49,29
-29,49,29
-29,49,28
-29,49,29
-29,49,28
-29,49,29
-29,49,29
-29,49,29
-29,49,28
-29,49,28
-29,49,29
-29,49,29
-29,49,29
-29,49,29
-29,49,28
-29,49,29
-29,49,29
-29,49,29
-29,49,29
-29,49,28
-29,49,29
-29,49,29
-29,49,29
-29,49,29
-29,49,29
-29,49,29
-29,49,28
-29,49,28
-29,49,28
-29,49,29
-29,49,29
-29,49,28
-29,49,29
-29,49,28
-29,49,29
-29,49,28
-29,49,29
-29,49,29
-29,49,29
-29,49,28
-29,49,29
-29,49,28
-29,49,29
-29,49,28
-29,49,29
-29,49,28
-29,49,28
-29,49,29
-29,49,28
-29,49,29
-29,49,29
-29,49,29
-29,49,28
-29,49,29
-29,49,29
-29,49,29
-29,49,29
-29,49,29
-29,49,29
-29,49,29
-29,49,29
-29,49,29
-29,49,29
-29,49,29
-29,49,28
-29,49,28
-29,49,29
-29,49,29
-29,49,29
-29,49,29
-29,49,28
-29,49,29
-29,49,29
-29,49,28
-29,49,29
-29,49,29
-29,49,29
-29,49,28
-29,49,29
-29,49,29
-29,49,29
-29,49,29
-29,49,28
-30,49,28
-29,49,28
-29,49,29
-29,49,29
-29,49,29
-29,49,29
-29,49,29
-29,49,28
-29,49,29
-29,49,29
-29,49,29
-29,49,29
-29,49,29
-29,49,29
-29,49,29
-29,49,28
-29,49,29
-29,49,29
-29,49,29
-29,49,28
-29,49,29
-29,49,28
-29,49,29
-29,49,29
-29,49,29
-29,49,28
-29,49,29
-29,49,29
-29,49,28
-29,49,29
-29,49,29
-29,49,28
-29,49,29
-29,49,28
-29,49,29
-29,49,29
-29,49,29
-29,49,28
-29,49,28
-29,49,29
-29,49,29
-29,49,29
-29,49,29
-29,49,29
-29,49,29
-29,49,28
-29,49,28
-29,49,29
-29,49,29
-29,49,28
-29,49,29
-29,49,28
-29,49,29
-29,49,29
-29,49,28
-29,49,29
-29,49,28
-29,49,28
-29,49,28
-29,49,28
-29,49,29
-29,49,29
-29,49,28
-29,49,29
-29,49,29
-29,49,29
-29,49,29
-30,49,28
-29,49,29
-29,49,28
-29,49,29
-29,49,28
-29,49,29
-29,49,29
-29,49,29
-29,49,28
-29,49,28
-29,49,29
-29,49,29
-29,49,28
-29,49,28
-29,49,29
-29,49,29
-29,49,29
-29,49,28
-29,49,29
-29,49,29
-29,49,28
-29,49,28
-29,49,29
-29,49,29
-29,49,29
-29,49,29
-29,49,28
-29,49,29
-29,49,28
-29,49,29
-29,49,29
-29,49,29
-29,49,28
-29,49,29
-29,49,28
-29,49,29
-29,49,29
-29,49,28
-29,49,28
-29,49,29
-29,49,29
-29,49,29
-29,49,29
-29,49,29
-29,49,28
-29,49,28
-29,49,28
-29,49,29
-29,49,29
-29,49,29
-29,49,28
-28,49,29
-33,50,28
-28,50,30
-37,49,26
-30,49,29
-30,48,29
-25,49,31
-31,48,28
-31,48,28
-31,48,28
-30,48,28
-31,48,29
-31,48,29
-33,48,28
-30,48,28
-29,48,29
-32,48,29
-30,48,29
-30,48,29
-30,48,28
-30,48,29
-31,48,29
-32,49,28
-32,48,28
-31,48,28
-31,48,28
-31,49,29
-30,48,29
-30,48,29
-31,48,28
-30,49,28
-30,48,29
-31,48,28
-32,48,28
-32,49,28
-31,48,29
-31,48,29
-31,48,28
-31,48,28
-32,48,28
-31,48,28
-30,48,28
-31,48,28
-31,48,28
-32,48,28
-30,48,28
-31,48,28
-32,48,28
-31,48,28
-32,48,28
-31,49,29
-31,48,28
-30,48,29
-31,48,28
-30,49,29
-31,48,29
-29,48,29
-32,48,29
-32,48,28
-32,48,28
-32,48,28
-31,48,29
-31,48,28
-31,48,28
-32,48,28
-31,48,28
-30,48,29
-31,48,29
-31,48,28
-32,48,28
-33,48,27
-33,48,27
-33,48,28
-33,48,27
-33,48,28
-29,48,30
-31,48,29
-31,48,29
-32,48,28
-32,48,28
-31,48,29
-32,48,29
-30,48,29
-31,48,29
-30,48,30
-30,47,29
-31,48,30
-30,48,30
-30,47,29
-31,48,30
-30,48,29
-31,48,29
-29,47,29
-33,48,29
-33,48,29
-30,48,29
-29,48,30
-31,48,29
-32,48,29
-31,48,29
-31,48,29
-31,48,29
-29,48,29
-33,48,28
-32,48,28
-32,48,28
-30,48,28
-32,48,28
-31,48,29
-30,48,29
-31,48,28
-31,48,28
-31,48,29
-31,48,29
-30,48,29
-31,48,29
-31,48,29
-30,48,29
-32,48,28
-31,48,29
-31,48,29
-32,48,29
-30,48,29
-31,48,28
-31,48,28
-31,48,28
-30,48,29
-30,48,29
-31,48,29
-32,48,28
-32,48,28
-30,48,28
-32,48,29
-32,48,29
-31,48,29
-30,48,29
-31,48,29
-32,48,28
-32,48,28
-32,48,28
-31,48,29
-31,48,28
-31,48,29
-31,48,29
-32,48,28
-32,48,28
-32,48,28
-30,48,28
-32,48,28
-33,48,27
-32,48,28
-32,47,28
-33,48,28
-32,48,28
-32,48,28
-32,47,28
-33,48,27
-33,48,28
-31,48,29
-30,48,29
-30,48,29
-32,48,28
-32,47,28
-32,47,29
-31,48,29
-31,48,29
-32,48,28
-31,47,28
-32,48,28
-32,47,29
-32,47,28
-33,48,28
-33,48,28
-33,48,28
-32,47,28
-32,47,28
-32,48,28
-32,48,28
-32,48,28
-34,47,27
-33,47,28
-32,47,28
-34,48,27
-33,48,27
-33,48,28
-32,47,28
-32,48,29
-33,47,28
-33,47,27
-33,47,28
-33,48,28
-33,47,28
-32,47,28
-33,47,28
-32,47,28
-33,47,28
-33,47,28
-32,47,28
-32,48,28
-33,48,29
-33,47,28
-32,47,29
-33,47,28
-33,47,28
-33,47,28
-32,47,28
-31,48,29
-32,48,29
-32,47,28
-32,47,28
-33,47,28
-32,48,28
-32,48,28
-32,47,28
-32,47,29
-32,47,28
-32,48,28
-33,48,28
-32,47,29
-31,48,29
-32,47,28
-32,47,29
-32,47,28
-32,48,29
-34,47,28
-32,46,29
-30,48,29
-28,49,30
-30,48,30
-23,44,32
-31,53,31
-34,49,27
-38,50,24
-32,47,26
-31,48,27
-29,49,31
-27,48,31
-30,48,29
-30,48,28
-35,48,27
-32,48,28
-32,48,28
-30,48,29
-29,49,30
-31,48,29
-33,48,28
-30,48,28
-32,48,28
-31,48,28
-31,48,28
-32,47,28
-32,47,28
-32,47,28
-34,48,28
-34,48,27
-31,48,29
-31,48,29
-34,48,27
-33,47,28
-33,47,28
-31,47,28
-32,47,28
-33,47,28
-32,47,28
-31,47,29
-31,47,29
-32,47,29
-32,47,29
-31,47,29
-32,48,29
-30,47,28
-28,49,30
-30,49,30
-32,48,28
-31,47,28
-30,47,29
-32,48,28
-31,47,29
-31,48,29
-31,47,29
-33,48,28
-32,47,28
-33,48,28
-30,48,29
-29,48,30
-31,48,29
-33,48,27
-33,47,28
-32,48,29
-31,48,29
-31,48,29
-31,49,28
-32,48,28
-33,48,28
-30,48,29
-30,48,29
-32,48,29
-31,48,28
-32,48,27
-33,48,28
-31,48,29
-31,48,28
-31,48,29
-32,48,28
-31,48,28
-32,48,28
-32,48,28
-31,48,28
-31,48,28
-31,48,29
-31,48,28
-32,48,28
-31,48,29
-31,48,29
-33,48,29
-30,48,29
-29,48,29
-33,47,28
-32,48,28
-31,48,29
-30,48,29
-31,48,29
-31,48,29
-33,48,28
-31,48,29
-31,48,29
-31,48,29
-32,48,29
-32,48,29
-30,48,29
-31,48,29
-32,47,28
-31,48,29
-32,48,28
-31,48,29
-32,48,28
-31,48,29
-31,48,29
-31,48,29
-32,47,29
-32,48,29
-31,48,29
-31,48,29
-30,47,29
-32,48,29
-32,47,29
-32,47,29
-30,48,30
-31,48,29
-32,48,29
-31,48,29
-32,48,29
-31,48,29
-32,48,30
-31,48,30
-31,48,29
-30,47,29
-27,47,31
-30,48,28
-33,49,29
-33,47,28
-31,47,28
-30,47,29
-31,48,30
-30,48,30
-31,48,29
-32,47,28
-33,48,28
-31,48,28
-31,48,29
-31,48,29
-32,48,29
-31,47,29
-32,48,29
-31,48,29
-31,47,29
-32,48,28
-32,48,28
-31,48,28
-32,48,28
-32,48,28
-31,48,29
-31,48,28
-33,47,28
-32,48,28
-30,48,29
-32,48,28
-32,48,28
-31,48,29
-32,48,28
-31,47,29
-31,48,29
-29,48,29
-31,48,29
-31,48,29
-32,48,28
-32,48,28
-29,48,29
-31,48,30
-30,48,29
-32,48,28
-30,48,29
-30,48,30
-30,48,29
-29,48,29
-28,48,30
-32,48,28
-31,48,29
-32,48,29
-30,48,28
-30,48,30
-32,48,30
-31,48,28
-34,47,27
-31,48,28
-30,48,29
-31,48,29
-32,48,28
-32,47,28
-33,48,28
-33,48,28
-32,48,28
-28,48,30
-31,48,30
-31,47,28
-34,47,26
-34,47,26
-34,47,27
-33,47,28
-32,48,29
-31,48,29
-31,48,29
-32,48,28
-32,48,29
-33,47,28
-30,47,29
-32,47,28
-33,47,28
-33,48,28
-30,47,30
-31,47,29
-31,48,29
-34,48,28
-30,48,28
-33,47,29
-33,47,29
-32,48,28
-33,47,28
-32,47,28
-34,47,27
-33,47,29
-33,48,27
-32,48,28
-32,47,28
-33,47,28
-33,47,28
-32,47,29
-32,47,29
-31,47,29
-33,47,28
-31,48,30
-31,48,30
-33,47,29
-32,47,29
-32,47,29
-31,48,29
-31,47,29
-32,47,29
-31,47,29
-31,47,28
-33,48,29
-31,48,30
-30,47,30
-31,48,29
-33,48,29
-34,48,27
-32,47,28
-32,47,28
-31,48,29
-33,48,29
-33,47,28
-31,48,29
-31,48,29
-32,47,29
-32,48,28
-31,47,29
-31,48,29
-33,48,29
-31,47,29
-31,47,29
-31,48,29
-32,48,29
-31,48,29
-32,47,29
-33,48,28
-32,48,29
-31,48,29
-32,48,29
-32,48,29
-31,48,29
-31,48,29
-30,48,29
-30,48,29
-32,48,29
-31,48,29
-31,48,29
-31,48,29
-31,48,29
-31,48,29
-30,48,29
-32,48,28
-32,48,29
-31,48,29
-30,48,29
-31,48,29
-34,47,26
-32,49,29
-32,48,28
-29,48,29
-31,48,29
-31,48,28
-31,48,28
-31,48,28
-31,48,29
-31,48,29
-30,48,29
-31,48,29
-31,48,28
-32,48,28
-31,48,28
-30,48,29
-29,48,30
-30,47,29
-32,48,30
-31,48,29
-30,47,29
-30,48,30
-29,48,31
-29,48,31
-29,48,30
-30,48,31
-30,47,31
-29,48,31
-30,48,30
-30,47,30
-29,48,30
-29,48,30
-31,48,30
-32,48,29
-31,48,29
-30,48,30
-30,48,30
-31,48,29
-30,48,30
-29,48,30
-30,48,30
-30,48,30
-30,47,30
-30,48,30
-29,48,31
-30,48,30
-30,48,30
-30,48,31
-29,48,31
-29,47,31
-30,48,30
-31,48,31
-31,48,30
-30,47,30
-29,47,30
-29,48,31
-29,48,31
-30,48,30
-29,48,30
-30,48,30
-30,48,30
-29,48,30
-31,48,30
-30,48,30
-31,48,30
-30,48,30
-30,48,30
-29,48,30
-28,48,30
-29,48,31
-29,48,30
-33,48,29
-34,48,28
-31,48,29
-29,48,29
-29,48,30
-29,48,30
-30,49,29
-31,48,29
-30,48,29
-31,48,28
-30,48,29
-31,48,28
-31,48,29
-30,48,29
-30,48,29
-30,48,29
-32,48,29
-31,48,29
-30,48,29
-32,48,29
-31,48,29
-30,48,29
-31,48,29
-31,48,29
-31,48,29
-30,48,29
-30,48,29
-31,48,29
-31,48,28
-30,48,29
-30,48,29
-31,48,29
-31,48,29
-30,48,29
-31,48,29
-31,48,29
-30,48,29
-30,48,29
-31,48,29
-31,48,29
-30,48,29
-31,48,29
-30,48,29
-31,48,29
-30,48,29
-30,48,29
-30,48,29
-31,48,29
-30,48,29
-30,48,29
-30,48,29
-31,48,29
-31,48,29
-30,48,29
-30,48,29
-30,48,29
-30,48,29
-31,48,29
-30,48,29
-31,48,29
-31,48,29
-30,48,29
-30,48,29
-31,48,29
-30,48,29
-30,48,29
-30,48,29
-30,48,29
-30,48,29
-30,48,29
-30,48,29
-31,48,28
-31,48,28
-30,48,29
-31,48,29
-31,48,28
-32,48,28
-31,48,29
-31,48,29
-31,48,29
-31,48,29
-30,48,29
-30,48,29
-30,48,29
-31,48,28
-31,48,28
-32,48,28
-31,48,29
-31,48,29
-29,48,29
-29,48,29
-31,48,29
-31,49,29
-32,48,28
-31,48,28
-31,48,29
-31,48,29
-31,48,29
-30,48,29
-32,48,28
-31,48,29
-30,48,28
-29,48,29
-33,48,29
-31,48,28
-31,48,28
-31,48,29
-32,48,29
-32,48,28
-33,48,28
-31,48,29
-30,48,29
-28,47,30
-33,47,29
-33,47,29
-30,47,29
-31,48,30
-31,48,29
-32,47,29
-31,47,29
-32,48,28
-31,48,29
-32,48,29
-31,48,29
-31,47,29
-32,48,29
-32,48,29
-32,48,29
-32,48,29
-31,48,29
-31,48,29
-31,48,29
-31,48,29
-31,48,29
-31,48,29
-31,48,29
-32,48,29
-32,48,29
-31,48,29
-32,48,29
-31,48,29
-31,48,29
-32,48,29
-31,48,29
-31,48,29
-32,48,29
-31,48,29
-31,48,29
-31,48,29
-31,48,29
-31,48,29
-31,48,29
-31,48,29
-31,48,29
-31,48,29
-31,48,29
-31,48,29
-31,48,29
-31,48,29
-31,48,29
-31,48,29
-31,48,29
-30,48,30
-31,48,29
-31,48,29
-31,48,29
-31,48,29
-32,48,29
-32,48,29
-30,48,29
-31,48,29
-33,48,28
-32,47,28
-32,47,28
-31,48,29
-30,48,30
-30,48,29
-30,48,29
-32,48,28
-32,48,29
-32,48,29
-31,48,30
-33,48,29
-30,47,29
-32,48,28
-32,48,29
-32,48,29
-32,48,28
-31,47,28
-33,48,29
-32,47,29
-31,47,29
-33,48,28
-31,48,29
-30,48,29
-28,48,31
-29,48,31
-31,48,30
-32,48,29
-30,48,30
-30,48,30
-30,48,30
-30,48,30
-31,48,30
-31,48,30
-30,47,30
-30,48,30
-32,48,30
-34,47,29
-33,48,29
-31,48,29
-25,48,32
-26,48,31
-27,48,32
-27,49,32
-28,49,32
-28,48,31
-27,48,31
-27,47,31
-29,48,33
-29,48,32
-28,48,32
-27,48,31
-27,48,32
-28,48,32
-29,48,32
-27,48,32
-26,47,32
-27,48,33
-29,48,33
-28,48,32
-28,47,32
-28,47,32
-29,48,32
-28,48,32
-29,48,32
-29,48,32
-28,47,32
-28,48,33
-28,48,32
-28,47,32
-28,48,32
-29,47,32
-28,48,32
-27,48,32
-29,47,32
-29,47,32
-28,47,32
-28,48,32
-29,48,32
-28,47,32
-29,48,32
-29,48,32
-29,48,32
-28,47,32
-29,48,32
-29,48,32
-29,48,32
-29,48,31
-29,48,32
-29,47,32
-29,48,31
-29,48,32
-29,48,32
-28,47,32
-28,48,32
-29,48,32
-29,48,32
-29,48,32
-28,48,32
-29,48,32
-29,48,32
-28,48,32
-28,48,32
-28,48,32
-29,48,32
-29,48,31
-28,47,31
-28,48,32
-28,48,32
-29,48,31
-29,48,31
-29,47,31
-28,48,31
-28,48,31
-28,48,32
-28,48,32
-29,48,31
-29,48,31
-29,48,31
-29,48,31
-29,48,31
-29,48,30
-29,49,31
-30,49,31
-29,47,30
-27,48,32
-29,48,32
-29,48,31
-29,48,30
-30,47,30
-29,48,31
-29,48,31
-29,48,31
-29,48,30
-29,48,30
-29,48,31
-29,48,31
-29,48,31
-29,48,31
-29,48,30
-29,48,30
-29,48,31
-29,48,31
-29,48,31
-29,48,30
-30,48,30
-29,48,31
-29,47,31
-29,48,31
-29,48,31
-29,48,31
-29,48,30
-29,48,30
-29,48,30
-29,48,30
-29,48,31
-29,48,31
-29,48,30
-29,48,30
-30,48,30
-29,48,30
-29,48,31
-29,48,30
-29,48,31
-29,48,31
-29,48,30
-29,48,31
-29,48,31
-28,48,31
-29,48,30
-29,48,30
-29,48,30
-29,48,31
-29,48,30
-29,48,30
-28,48,31
-28,48,31
-29,48,30
-29,48,31
-29,48,31
-28,48,31
-28,48,31
-28,48,31
-29,48,31
-29,48,30
-28,48,31
-28,48,31
-29,49,31
-28,48,31
-29,48,30
-28,48,31
-28,48,31
-28,48,31
-28,48,31
-29,48,31
-28,48,31
-30,48,31
-28,48,31
-29,48,30
-30,48,30
-30,48,30
-29,48,30
-30,48,30
-30,48,30
-29,48,31
-31,48,30
-28,48,30
-29,48,31
-30,48,30
-29,48,30
-29,48,30
-29,48,30
-29,48,30
-29,48,31
-29,48,30
-29,48,31
-29,48,31
-29,48,30
-29,48,31
-29,48,30
-28,48,31
-25,49,31
-30,48,32
-27,49,30
-28,49,32
-34,45,29
-29,47,29
-28,47,29
-31,49,30
-30,48,30
-30,48,29
-28,48,31
-29,48,31
-27,48,32
-31,48,30
-30,48,29
-28,48,31
-28,48,32
-28,49,31
-30,49,31
-29,48,30
-29,48,30
-30,48,31
-29,48,30
-29,48,31
-29,48,31
-29,48,31
-28,48,31
-28,48,31
-29,48,31
-28,48,31
-29,48,31
-29,48,31
-28,48,31
-29,48,31
-29,48,31
-29,48,31
-29,48,31
-29,48,31
-31,48,29
-29,48,30
-28,48,31
-29,48,31
-31,48,30
-28,48,31
-27,48,31
-29,48,31
-29,48,30
-28,48,30
-28,48,31
-29,48,31
-30,48,30
-30,48,30
-29,48,30
-29,48,30
-30,48,31
-28,48,31
-27,48,31
-30,48,30
-28,48,31
-29,48,30
-29,48,30
-29,48,31
-28,48,31
-29,48,31
-29,48,31
-29,48,30
-29,48,30
-28,48,30
-29,48,31
-29,48,30
-29,48,30
-29,48,30
-29,48,30
-29,48,31
-29,48,30
-28,48,31
-29,48,31
-30,48,30
-29,48,30
-28,48,31
-29,48,31
-28,48,31
-29,48,31
-29,48,30
-29,48,30
-29,48,31
-29,48,30
-29,48,30
-29,48,31
-28,48,30
-28,48,30
-29,48,30
-29,48,31
-29,48,31
-29,48,31
-29,48,30
-29,48,30
-28,48,31
-28,48,31
-29,48,30
-29,48,31
-29,48,31
-29,48,30
-28,48,31
-29,48,30
-29,48,31
-28,48,31
-28,48,31
-28,48,31
-29,48,30
-29,48,30
-29,48,31
-28,48,30
-28,48,31
-28,48,31
-29,48,30
-28,48,32
-30,47,30
-28,49,31
-28,48,30
-29,48,31
-29,48,31
-29,48,30
-29,48,31
-29,48,30
-29,48,30
-29,48,31
-28,48,31
-28,48,31
-29,48,30
-29,48,30
-29,48,31
-29,48,30
-29,48,31
-29,48,30
-29,48,30
-28,48,30
-29,48,30
-29,48,30
-29,48,31
-29,48,30
-28,48,31
-29,48,31
-29,48,30
-29,48,30
-29,48,31
-29,48,30
-29,48,31
-29,48,30
-29,48,30
-29,48,30
-29,48,30
-29,48,30
-29,48,30
-29,48,31
-29,49,31
-29,48,31
-29,48,31
-29,47,30
-30,48,30
-30,48,31
-30,48,31
-31,48,32
-31,48,31
-31,48,31
-30,48,31
-31,49,33
-36,48,33
-34,45,31
-33,44,26
-35,45,27
-35,44,26
-39,43,25
-36,46,32
-35,46,32
-34,44,34
-38,45,34
-39,41,33
-36,39,31
-40,37,31
-40,38,30
-40,40,33
-44,41,36
-44,40,37
-38,39,35
-40,40,37
-43,38,34
-38,33,38
-39,31,35
-38,29,33
-37,27,33
-36,28,37
-38,29,37
-35,30,35
-39,33,57
-41,32,54
-37,20,31
-44,21,25
-45,22,28
-37,22,33
-39,27,28
-23,28,42
-38,35,39
-45,39,38
-49,43,38
-39,40,32
-36,43,33
-36,44,35
-37,45,38
-35,44,38
-34,41,35
-34,40,33
-40,45,36
-37,45,31
-32,44,30
-31,45,31
-32,48,31
-31,47,30
-34,47,29
-37,47,28
-36,46,29
-35,45,30
-35,45,34
-34,44,33
-34,43,33
-33,42,33
-31,42,34
-32,43,34
-33,44,34
-33,44,33
-33,43,32
-35,44,31
-35,44,31
-35,44,31
-34,44,32
-33,44,32
-32,45,32
-32,46,32
-32,45,32
-32,45,32
-34,45,32
-34,44,31
-33,44,32
-32,44,33
-32,46,32
-33,44,32
-34,45,31
-35,45,31
-34,43,31
-35,44,31
-31,46,33
-32,44,32
-36,44,31
-33,42,30
-33,44,31
-35,46,32
-35,45,31
-34,44,31
-33,45,32
-33,45,32
-33,44,32
-32,45,32
-32,45,33
-31,45,33
-31,45,33
-31,45,33
-32,44,33
-32,45,32
-31,44,33
-32,45,32
-33,45,33
-32,45,32
-32,45,32
-33,45,31
-33,45,31
-33,45,32
-33,45,31
-33,45,31
-33,45,31
-33,45,32
-32,46,31
-32,45,31
-32,46,31
-32,44,32
-33,46,32
-33,44,31
-33,45,31
-33,45,31
-35,46,32
-38,47,33
-39,46,35
-36,44,34
-33,44,36
-30,46,35
-29,36,33
-27,33,34
-26,41,27
-25,41,25
-27,44,25
-35,45,29
-42,50,32
-41,49,34
-35,46,36
-30,42,37
-29,42,37
-30,43,35
-34,45,33
-34,45,33
-32,44,32
-32,44,33
-33,44,34
-33,44,33
-33,45,33
-32,44,32
-32,45,32
-34,45,31
-34,45,31
-34,45,31
-34,44,32
-34,44,32
-32,45,32
-33,45,32
-33,45,32
-34,45,31
-33,45,32
-34,44,32
-33,44,32
-33,44,32
-33,44,32
-33,44,32
-33,44,32
-33,44,32
-32,45,32
-33,45,32
-32,45,32
-33,45,32
-33,45,32
-34,44,32
-34,44,33
-33,43,32
-34,43,32
-34,44,31
-34,45,31
-35,44,30
-35,44,30
-34,45,31
-35,43,25
-34,42,30
-37,47,39
-37,46,36
-25,46,38
-23,44,37
-22,40,39
-26,40,38
-30,43,37
-43,47,35
-30,41,34
-31,40,28
-32,41,28
-34,44,33
-33,45,34
-33,44,33
-33,44,32
-33,44,32
-34,44,32
-34,44,32
-33,44,31
-34,45,32
-33,44,32
-32,44,32
-34,45,32
-34,45,31
-35,45,31
-32,45,31
-35,45,30
-35,45,30
-35,44,31
-35,43,32
-35,43,32
-35,44,31
-35,45,30
-35,44,30
-34,44,31
-34,45,31
-34,45,31
-34,45,31
-35,44,31
-35,45,30
-35,44,31
-35,44,30
-35,44,30
-35,44,30
-35,44,30
-35,44,30
-35,44,30
-35,44,30
-36,44,31
-35,44,31
-35,44,31
-35,44,31
-36,44,30
-35,44,30
-35,44,30
-35,44,31
-35,44,30
-36,44,30
-35,44,31
-35,44,31
-35,44,30
-35,44,30
-35,44,30
-35,44,30
-35,44,30
-35,44,30
-35,44,31
-35,45,30
-35,45,30
-35,45,30
-35,45,30
-35,44,30
-34,44,30
-35,44,30
-35,44,30
-35,44,30
-35,45,30
-35,45,30
-35,45,30
-35,45,30
-34,44,30
-35,44,30
-35,44,30
-35,44,30
-35,45,29
-35,45,29
-37,46,28
-35,45,30
-34,45,30
-35,45,30
-35,45,30
-35,45,30
-35,45,30
-36,44,29
-35,45,29
-35,45,30
-35,45,30
-35,45,30
-35,45,29
-34,45,30
-34,45,30
-34,45,30
-34,45,30
-35,45,29
-35,45,30
-35,45,30
-35,45,29
-35,45,29
-35,44,30
-35,45,30
-35,45,30
-35,45,30
-35,45,30
-35,45,30
-35,45,30
-35,45,30
-35,45,30
-35,45,30
-35,45,30
-35,44,30
-35,45,30
-35,45,30
-36,44,30
-35,44,30
-34,45,30
-34,45,30
-35,45,30
-35,45,30
-35,45,30
-35,45,30
-35,45,30
-35,45,30
-35,45,30
-35,45,30
-35,45,30
-35,45,30
-35,44,30
-35,44,30
-35,45,30
-34,45,30
-35,45,30
-35,45,30
-35,45,30
-35,44,30
-35,45,30
-35,44,30
-35,45,30
-35,45,30
-35,45,29
-35,45,30
-35,45,30
-35,45,30
-35,45,30
-35,45,30
-35,45,30
-35,45,30
-35,45,30
-35,45,30
-35,45,30
-35,44,29
-35,45,30
-35,45,30
-35,45,30
-35,44,30
-35,45,30
-35,45,30
-34,45,30
-35,45,30
-35,45,30
-36,45,31
-34,45,30
-34,46,27
-35,46,29
-32,46,33
-34,46,32
-34,44,29
-37,44,29
-37,44,29
-35,44,31
-36,44,30
-35,43,30
-37,44,30
-36,44,30
-36,44,31
-36,44,30
-35,44,30
-36,44,30
-34,43,31
-34,44,31
-34,44,31
-35,45,30
-35,44,30
-36,44,29
-37,44,29
-37,43,28
-37,42,29
-37,43,31
-36,44,32
-35,44,31
-34,45,30
-36,44,29
-37,44,29
-35,44,31
-35,44,30
-36,45,29
-37,44,29
-37,44,30
-37,44,31
-35,43,29
-37,44,28
-38,44,28
-36,44,29
-35,43,30
-36,43,29
-37,43,30
-37,42,29
-37,44,29
-37,42,30
-38,42,29
-37,43,29
-36,43,30
-37,44,28
-38,42,27
-41,43,27
-39,44,27
-38,44,26
-41,41,26
-47,46,23
-43,49,26
-32,42,31
-33,40,31
-34,41,31
-37,44,28
-39,44,26
-35,46,31
-33,45,32
-34,44,28
-32,43,28
-36,44,25
-36,45,23
-43,43,24
-40,46,28
-38,45,30
-36,45,30
-36,45,29
-37,47,27
-39,46,26
-39,46,27
-37,45,26
-39,45,27
-35,45,28
-32,44,28
-31,45,30
-31,48,33
-29,49,36
-31,47,28
-32,46,29
-32,46,32
-31,45,30
-32,45,28
-33,45,27
-33,44,27
-38,47,34
-40,47,33
-38,46,29
-36,45,31
-37,45,32
-36,40,31
-39,38,26
-39,39,26
-39,44,27
-33,43,28
-33,41,28
-35,40,27
-39,48,28
-39,49,32
-33,47,32
-30,47,29
-33,46,29
-36,45,29
-38,44,26
-38,44,26
-36,45,28
-36,45,28
-36,47,26
-37,45,27
-38,46,25
-37,45,26
-38,46,26
-34,47,27
-37,47,26
-37,45,25
-37,45,24
-37,45,27
-36,45,28
-36,45,27
-37,47,26
-36,47,26
-36,46,25
-36,46,26
-37,45,25
-37,45,26
-36,46,26
-36,46,25
-37,46,26
-37,46,26
-37,46,26
-37,46,26
-37,46,25
-37,46,25
-37,46,26
-36,46,25
-37,46,26
-37,46,26
-37,46,25
-37,46,26
-37,46,26
-37,46,26
-37,46,26
-37,46,25
-37,46,25
-37,46,25
-37,46,26
-36,46,26
-37,46,25
-37,46,25
-37,46,26
-36,46,26
-37,46,25
-37,46,25
-37,46,25
-37,46,25
-37,46,26
-37,45,25
-37,45,25
-37,45,25
-37,46,24
-37,46,25
-38,46,25
-38,46,24
-38,46,24
-38,45,24
-37,46,24
-38,46,23
-38,46,24
-38,46,24
-38,46,24
-38,46,24
-37,46,25
-37,46,25
-37,46,25
-38,46,24
-38,46,24
-38,46,24
-38,46,24
-38,46,24
-38,46,24
-38,46,24
-37,46,24
-38,46,24
-38,46,24
-38,46,24
-38,46,24
-38,46,24
-37,46,25
-38,46,24
-38,46,24
-38,46,24
-38,46,24
-38,46,24
-37,46,25
-38,46,24
-38,46,24
-37,46,24
-38,46,24
-38,46,24
-38,46,24
-37,46,24
-37,46,24
-38,46,24
-38,46,24
-37,46,25
-37,46,24
-40,46,24
-39,46,25
-36,46,24
-38,46,24
-38,46,23
-38,46,23
-38,46,24
-38,46,24
-38,45,24
-38,46,25
-37,46,24
-38,46,24
-37,46,24
-37,46,23
-38,46,24
-38,46,24
-38,46,24
-38,46,24
-38,46,24
-38,46,24
-37,46,24
-37,46,24
-37,46,23
-38,46,24
-38,46,24
-38,46,24
-38,46,24
-38,46,24
-37,46,24
-38,46,24
-38,46,24
-38,46,24
-38,46,23
-38,46,23
-38,46,23
-39,46,24
-39,46,24
-37,46,24
-38,46,24
-38,46,24
-38,46,24
-38,45,24
-38,46,24
-38,46,23
-38,46,24
-38,46,24
-38,45,24
-38,45,24
-38,46,24
-38,46,22
-38,46,23
-38,46,24
-38,46,23
-38,46,24
-38,46,23
-38,46,23
-38,46,24
-38,45,23
-38,46,23
-38,46,24
-38,46,24
-38,46,23
-38,46,24
-38,46,23
-38,46,24
-37,46,24
-37,46,24
-38,46,23
-38,46,23
-38,46,24
-39,46,23
-39,45,23
-38,46,24
-38,46,23
-38,46,24
-38,46,23
-38,46,24
-38,46,24
-38,46,23
-38,46,23
-37,46,23
-38,46,23
-38,46,24
-38,46,24
-38,46,23
-38,46,23
-38,46,24
-38,46,24
-38,46,24
-38,46,23
-38,46,23
-38,46,24
-38,46,24
-38,46,23
-38,46,24
-38,46,23
-38,46,24
-38,46,23
-38,46,23
-38,46,24
-38,46,23
-38,46,24
-38,46,23
-38,46,24
-38,46,23
-38,46,23
-38,46,23
-38,46,23
-38,46,23
-38,46,23
-38,46,24
-38,46,24
-38,46,23
-38,46,23
-38,46,23
-38,46,23
-38,46,23
-38,46,23
-37,46,24
-37,46,24
-38,46,24
-38,46,23
-38,46,23
-38,46,23
-38,46,24
-38,46,23
-38,46,23
-38,46,23
-38,46,24
-38,46,23
-38,46,23
-38,46,23
-38,46,24
-38,46,23
-38,46,23
-38,46,24
-37,46,24
-37,46,23
-38,46,23
-39,46,23
-38,46,23
-38,46,23
-38,46,23
-38,46,23
-39,46,24
-38,46,23
-38,46,23
-38,46,24
-37,46,24
-38,46,23
-38,46,23
-38,46,23
-38,46,23
-38,46,23
-38,46,23
-38,46,23
-38,46,23
-38,46,23
-38,46,24
-38,46,23
-38,46,23
-38,46,23
-38,46,24
-38,46,24
-38,46,23
-39,46,23
-38,46,23
-37,46,24
-38,46,23
-38,46,23
-38,46,24
-38,46,23
-38,46,23
-38,46,24
-38,46,24
-38,46,24
-38,46,23
-38,46,23
-38,46,24
-38,46,23
-38,46,24
-38,46,23
-38,46,23
-38,46,24
-38,46,23
-38,46,24
-38,46,24
-37,46,24
-38,46,24
-38,46,23
-38,46,24
-38,46,24
-38,46,24
-38,46,24
-38,46,24
-38,46,24
-38,46,23
-38,46,23
-38,46,23
-38,46,23
-38,46,24
-38,46,24
-38,46,23
-38,46,24
-38,46,23
-38,46,23
-38,46,23
-38,46,24
-38,46,24
-38,46,24
-38,46,23
-38,46,24
-38,46,24
-38,46,24
-38,46,24
-38,46,24
-38,46,23
-38,46,23
-38,46,24
-38,46,23
-38,46,23
-38,46,24
-38,46,23
-38,46,23
-38,46,24
-38,46,24
-38,46,24
-38,46,23
-38,46,23
-38,46,23
-37,46,24
-38,46,24
-38,46,24
-38,46,24
-38,47,23
-38,46,23
-38,46,23
-38,46,24
-38,46,24
-38,46,23
-38,46,24
-38,46,23
-38,46,24
-38,46,23
-38,46,24
-37,46,24
-37,46,23
-38,46,23
-38,46,23
-38,46,23
-38,46,24
-38,46,23
-38,46,23
-38,46,24
-38,46,23
-38,46,23
-38,46,24
-38,46,24
-38,46,23
-38,46,24
-38,46,24
-38,46,23
-38,46,23
-38,46,23
-38,46,23
-38,46,24
-38,46,24
-38,46,23
-38,46,23
-38,46,24
-37,46,24
-37,46,24
-38,46,24
-38,46,24
-38,46,23
-38,46,24
-38,46,24
-38,46,24
-38,46,23
-38,46,23
-38,46,24
-38,46,24
-38,46,24
-38,46,24
-38,46,24
-38,46,23
-38,46,24
-38,46,24
-38,46,23
-38,46,23
-38,46,24
-38,46,24
-38,46,24
-38,46,24
-38,46,24
-38,46,23
-38,46,24
-38,46,24
-37,46,23
-37,46,24
-37,46,24
-38,46,24
-38,46,24
-38,46,23
-38,46,24
-38,46,24
-38,46,23
-39,46,23
-38,46,23
-38,46,23
-38,46,24
-37,46,24
-38,46,23
-38,46,24
-38,46,23
-38,46,24
-38,46,24
-38,46,23
-38,46,23
-38,46,23
-38,46,23
-38,46,24
-37,46,24
-38,46,24
-38,46,23
-37,46,24
-37,46,24
-38,46,24
-38,46,23
-38,46,23
-40,46,23
-39,46,23
-39,46,23
-39,46,23
-37,46,24
-37,46,24
-38,46,23
-38,46,23
-37,46,23
-38,46,23
-39,46,23
-40,46,23
-39,45,23
-39,46,23
-39,46,23
-37,46,23
-38,46,23
-38,46,23
-38,46,23
-38,46,24
-38,46,24
-37,46,24
-38,46,24
-38,46,24
-39,45,23
-39,46,22
-38,46,23
-38,46,23
-38,46,23
-38,46,23
-38,46,23
-38,46,23
-38,46,24
-38,46,23
-38,45,23
-39,46,22
-39,46,23
-38,46,23
-37,46,24
-39,46,23
-39,45,23
-39,46,23
-39,46,23
-38,46,24
-38,46,23
-38,46,23
-39,46,23
-39,46,23
-38,46,24
-38,46,24
-38,46,23
-39,46,23
-38,46,23
-38,46,23
-39,46,23
-38,46,23
-38,46,23
-39,46,23
-39,46,23
-38,46,24
-38,46,23
-38,46,23
-38,46,23
-39,46,23
-38,46,23
-39,46,23
-38,46,24
-38,46,23
-38,46,23
-38,46,23
-38,46,24
-38,45,24
-39,46,23
-39,45,23
-38,46,23
-38,46,24
-37,46,23
-39,46,23
-39,46,23
-38,45,23
-38,46,22
-38,46,24
-38,46,24
-39,45,23
-39,46,23
-39,46,23
-38,46,23
-39,46,23
-39,46,23
-38,46,23
-39,46,23
-38,45,23
-38,44,23
-39,45,22
-38,47,25
-38,47,26
-35,46,25
-31,49,25
-37,46,28
-46,50,18
-38,47,23
-41,46,23
-39,45,24
-37,46,24
-38,46,24
-38,46,22
-39,49,22
-40,39,20
-38,52,25
-38,49,23
-37,47,24
-38,46,24
-38,46,24
-39,45,23
-39,46,23
-38,46,23
-39,46,23
-38,46,23
-38,46,23
-38,46,23
-38,46,23
-38,46,23
-38,46,23
-38,46,23
-38,46,23
-38,46,23
-38,46,23
-38,46,23
-38,46,23
-38,46,23
-38,46,23
-38,46,23
-38,46,23
-38,46,23
-38,46,23
-38,46,23
-38,46,23
-38,46,23
-38,46,23
-38,46,23
-38,46,23
-38,46,23
-39,46,23
-38,46,23
-38,46,23
-38,46,23
-38,46,23
-38,46,23
-38,46,23
-38,46,23
-38,46,23
-38,46,23
-38,46,23
-38,46,23
-38,46,23
-38,46,23
-38,46,23
-38,46,23
-38,46,23
-38,46,23
-38,46,23
-38,46,23
-38,46,23
-38,46,23
-39,46,23
-39,46,23
-38,46,23
-38,46,23
-39,46,24
-39,46,24
-38,45,24
-37,46,22
-37,47,23
-37,47,23
-36,47,24
-39,46,24
-39,45,24
-38,45,23
-38,46,23
-38,47,22
-38,47,23
-38,46,24
-38,45,23
-39,46,23
-38,46,23
-38,46,23
-38,46,23
-38,46,23
-38,46,23
-38,46,23
-38,46,23
-38,46,23
-38,46,23
-38,46,23
-38,47,23
-38,47,23
-37,46,23
-37,46,24
-38,46,24
-38,46,23
-38,46,23
-38,46,23
-38,46,23
-38,46,23
-38,46,23
-38,46,23
-38,46,23
-38,46,23
-38,46,23
-38,46,23
-38,46,23
-38,46,23
-38,46,23
-38,46,23
-38,46,23
-38,46,23
-38,46,23
-38,46,23
-38,46,23
-38,46,23
-38,46,23
-38,46,23
-38,46,23
-37,46,23
-37,47,23
-38,46,23
-38,46,22
-38,46,23
-36,47,24
-39,46,23
-38,46,23
-38,46,23
-38,46,23
-38,46,22
-38,46,22
-38,46,23
-38,46,23
-38,46,23
-38,46,23
-38,46,23
-38,47,23
-38,46,24
-38,46,23
-38,46,23
-38,46,23
-38,46,23
-37,46,23
-38,46,23
-38,46,23
-38,46,23
-38,46,23
-38,46,23
-38,46,23
-38,46,23
-38,46,23
-38,46,23
-38,46,23
-38,46,23
-38,46,23
-38,46,23
-38,46,23
-38,46,23
-37,46,23
-38,46,23
-38,46,23
-38,46,23
-38,46,23
-37,46,24
-38,46,23
-38,46,23
-38,46,23
-38,46,23
-38,46,23
-38,46,23
-37,46,24
-38,46,23
-38,46,23
-38,46,23
-38,46,23
-38,46,23
-38,46,23
-38,46,23
-38,46,23
-38,46,23
-38,46,23
-38,46,23
-38,46,23
-38,46,23
-38,46,23
-38,46,23
-37,46,23
-38,46,23
-38,46,23
-37,46,23
-38,46,23
-38,46,23
-37,46,23
-38,47,23
-38,46,23
-37,46,22
-38,46,23
-38,46,23
-38,46,23
-38,46,23
-38,46,24
-37,46,23
-38,47,22
-38,47,23
-38,46,22
-39,46,22
-39,46,23
-38,47,23
-38,47,23
-39,46,22
-38,46,22
-38,46,23
-38,46,23
-38,46,23
-38,46,23
-38,46,23
-38,46,23
-38,46,23
-38,46,23
-38,46,23
-38,46,23
-38,46,23
-38,46,23
-38,46,23
-38,46,23
-37,46,23
-38,46,23
-38,47,23
-37,47,23
-38,47,23
-38,46,23
-38,46,23
-38,46,23
-39,46,22
-39,46,22
-39,46,24
-38,46,24
-38,46,23
-38,46,23
-38,46,22
-38,46,22
-38,46,22
-38,46,23
-38,46,23
-39,46,23
-39,46,23
-39,46,23
-38,46,23
-37,46,23
-38,46,23
-38,46,23
-38,46,22
-39,46,22
-38,46,23
-38,46,24
-38,46,23
-38,46,23
-38,46,22
-38,46,23
-38,46,23
-38,46,23
-38,46,23
-38,46,23
-38,46,23
-38,46,23
-38,46,23
-38,46,23
-38,46,23
-38,47,23
-37,46,22
-37,46,23
-38,46,24
-39,46,23
-38,46,22
-39,46,23
-38,46,23
-38,46,23
-39,46,23
-38,46,23
-38,46,22
-39,46,22
-38,46,22
-38,46,23
-37,46,24
-38,46,22
-38,46,22
-43,46,21
-39,46,21
-38,46,23
-37,48,26
-35,47,25
-37,47,23
-39,46,22
-38,46,22
-39,46,21
-39,46,22
-39,47,23
-39,46,23
-39,45,23
-39,46,23
-38,46,23
-38,46,22
-37,46,23
-37,47,23
-38,47,23
-38,46,23
-38,46,23
-38,46,23
-38,47,23
-38,46,23
-38,46,23
-38,46,23
-38,46,22
-38,46,23
-38,46,23
-38,46,23
-38,46,23
-38,46,23
-37,46,23
-38,47,23
-38,47,23
-38,46,23
-38,46,23
-38,46,23
-38,46,23
-38,46,22
-38,46,23
-38,46,23
-38,46,23
-38,46,23
-38,46,23
-38,46,23
-38,47,23
-38,46,23
-38,46,23
-38,46,23
-38,46,23
-38,46,23
-38,46,23
-38,46,23
-38,46,23
-38,46,23
-37,46,23
-38,46,23
-38,46,23
-38,46,23
-38,46,23
-38,46,23
-38,46,23
-37,46,23
-38,46,23
-38,46,23
-37,46,23
-38,46,23
-38,46,23
-38,46,23
-38,46,23
-38,46,23
-38,47,23
-38,46,23
-38,46,23
-38,46,23
-38,46,23
-38,46,22
-38,46,23
-38,46,23
-37,46,24
-38,46,23
-38,46,23
-38,46,23
-38,46,23
-38,46,23
-38,46,23
-38,46,23
-38,46,23
-38,46,23
-37,46,23
-38,46,23
-38,46,23
-37,46,23
-38,46,23
-39,46,23
-38,46,23
-38,46,23
-38,47,23
-37,46,24
-37,46,23
-38,46,23
-38,46,23
-38,46,23
-38,46,23
-38,46,23
-38,46,23
-38,46,23
-38,46,23
-38,46,23
-38,46,23
-38,46,23
-38,46,23
-37,46,23
-37,46,23
-38,46,23
-38,46,23
-38,46,23
-37,46,23
-38,47,23
-38,46,23
-38,46,23
-38,46,22
-38,46,23
-37,46,23
-37,47,23
-37,47,23
-38,46,23
-38,46,23
-38,46,23
-38,46,23
-38,47,23
-38,46,23
-38,46,23
-38,46,23
-38,46,23
-38,46,23
-38,46,23
-38,46,23
-38,46,23
-37,47,23
-38,46,23
-38,46,23
-38,46,23
-38,46,23
-38,46,23
-38,46,23
-38,46,23
-38,46,23
-38,46,23
-38,46,23
-38,46,23
-38,46,23
-38,46,23
-38,46,23
-38,46,23
-38,46,23
-38,46,23
-38,46,23
-38,46,23
-37,46,23
-38,46,23
-38,46,23
-38,46,23
-38,46,23
-38,46,23
-38,46,23
-38,46,23
-38,46,23
-38,46,23
-38,46,23
-38,46,23
-38,46,23
-38,46,23
-38,46,23
-38,46,23
-38,46,23
-38,46,23
-38,46,23
-38,46,23
-38,46,23
-37,47,23
-38,46,23
-38,46,23
-38,46,23
-38,46,23
-38,46,23
-38,46,23
-37,46,23
-38,46,23
-38,46,23
-38,46,23
-37,46,23
-38,46,23
-38,46,23
-38,46,23
-38,46,23
-38,46,23
-38,46,23
-38,46,23
-38,46,23
-38,46,23
-38,46,23
-38,46,24
-38,46,23
-38,46,23
-38,46,23
-38,46,23
-38,46,23
-37,46,23
-36,47,24
-37,47,24
-38,47,22
-38,47,22
-39,46,23
-39,45,22
-38,46,23
-38,46,23
-38,47,23
-37,46,23
-37,46,23
-38,46,23
-37,46,23
-38,47,23
-38,46,22
-38,47,22
-38,47,23
-37,46,23
-38,46,24
-38,46,24
-38,46,23
-38,46,23
-38,46,22
-38,47,22
-38,47,22
-38,46,23
-38,46,23
-38,46,23
-38,46,23
-38,46,22
-38,46,23
-38,46,23
-38,46,23
-38,46,23
-37,46,22
-38,47,22
-38,46,23
-38,47,24
-37,46,23
-38,46,23
-38,46,23
-38,46,23
-38,46,23
-38,46,23
-38,46,23
-38,47,23
-38,47,23
-38,46,23
-38,46,23
-38,46,23
-38,46,23
-37,47,23
-38,47,23
-38,46,23
-38,46,23
-38,46,23
-38,47,23
-39,47,22
-38,46,23
-37,46,23
-38,46,22
-38,46,23
-37,46,23
-38,47,23
-38,46,23
-38,46,23
-38,46,23
-38,46,23
-38,46,23
-38,46,23
-38,46,22
-38,46,23
-38,46,23
-38,46,23
-38,46,23
-38,46,23
-38,46,23
-39,46,22
-44,46,19
-36,46,21
-37,48,28
-37,47,27
-34,46,23
-40,46,22
-39,46,22
-37,46,22
-39,46,23
-39,47,23
-38,46,24
-39,46,23
-39,46,22
-38,46,23
-37,47,23
-37,46,23
-38,46,23
-38,46,23
-38,46,23
-38,46,23
-38,46,23
-37,46,23
-38,46,23
-38,46,23
-38,46,23
-38,46,23
-38,46,23
-38,46,23
-38,46,23
-38,46,23
-38,47,22
-38,46,23
-38,46,23
-38,46,23
-38,46,23
-38,46,23
-38,46,23
-38,46,23
-38,46,23
-38,46,23
-38,46,23
-38,46,23
-38,46,23
-38,46,23
-38,46,23
-38,46,23
-38,46,23
-38,46,23
-38,46,23
-38,46,23
-38,46,23
-38,46,23
-38,46,23
-38,46,23
-38,46,23
-38,46,23
-38,46,23
-38,46,23
-38,46,23
-38,46,23
-38,46,22
-37,47,23
-37,47,23
-39,47,22
-38,46,23
-38,46,23
-38,46,23
-38,46,23
-37,47,23
-38,47,23
-38,46,23
-38,46,23
-37,46,23
-38,46,23
-37,47,23
-38,46,23
-38,47,23
-38,47,23
-38,46,23
-38,46,23
-38,46,23
-38,47,23
-38,46,23
-38,46,23
-38,46,23
-38,47,23
-38,46,23
-37,46,23
-37,47,23
-37,46,23
-38,47,23
-38,47,23
-38,46,23
-38,46,23
-38,46,23
-38,46,23
-38,46,23
-37,46,23
-38,46,23
-38,46,23
-38,47,23
-37,46,23
-38,46,23
-38,47,23
-38,46,23
-38,46,23
-38,46,23
-38,46,23
-38,46,23
-38,46,23
-38,46,23
-38,46,23
-37,46,23
-38,46,23
-38,47,23
-38,46,23
-38,46,23
-37,46,23
-37,47,23
-38,47,22
-38,46,23
-37,46,23
-37,46,23
-38,47,23
-38,46,23
-38,46,23
-38,46,22
-38,46,23
-37,46,23
-38,47,23
-38,46,23
-38,47,23
-38,46,23
-38,46,23
-38,46,23
-38,46,23
-38,47,23
-38,46,23
-37,47,23
-38,46,23
-38,46,23
-38,46,23
-38,46,23
-38,47,23
-38,46,23
-38,46,23
-38,46,23
-38,46,23
-38,46,23
-38,46,23
-38,46,23
-38,46,23
-38,46,23
-38,46,23
-38,46,23
-38,46,23
-38,46,23
-38,46,23
-38,46,23
-38,47,23
-38,46,23
-38,47,23
-38,47,23
-38,46,23
-38,46,23
-38,46,23
-37,46,23
-38,46,23
-38,46,23
-37,46,23
-38,46,23
-38,46,23
-38,47,23
-38,47,23
-38,46,23
-38,46,23
-38,46,23
-37,46,23
-38,46,23
-38,47,23
-38,46,23
-37,46,23
-38,46,23
-38,46,22
-38,47,23
-38,46,23
-38,46,22
-38,46,23
-38,46,23
-37,46,23
-38,47,23
-38,46,23
-38,46,23
-38,46,23
-38,46,23
-38,46,23
-37,46,23
-38,46,23
-38,46,23
-38,46,23
-38,47,23
-37,47,23
-38,46,23
-38,46,23
-38,47,23
-38,46,23
-38,46,23
-37,47,23
-38,46,23
-38,46,23
-38,46,23
-37,46,23
-38,47,23
-38,46,23
-38,46,23
-37,46,23
-38,47,23
-38,46,23
-37,46,23
-38,47,23
-38,47,23
-38,47,23
-38,46,23
-38,46,23
-38,47,23
-38,46,23
-37,47,23
-37,47,23
-37,46,23
-37,47,24
-37,47,24
-37,47,23
-37,47,24
-37,47,24
-37,46,23
-39,46,22
-38,46,22
-38,46,22
-38,46,23
-38,47,23
-39,46,23
-38,46,22
-38,46,22
-37,47,23
-37,47,23
-37,46,23
-38,47,23
-38,47,23
-38,47,23
-37,46,23
-38,46,23
-38,46,23
-38,46,23
-38,47,23
-38,46,23
-38,46,23
-38,47,23
-38,47,23
-37,47,22
-38,46,23
-38,47,22
-38,46,23
-38,46,23
-38,47,23
-38,47,23
-38,47,23
-38,46,23
-38,46,22
-38,46,23
-37,47,23
-38,46,22
-38,47,22
-38,47,23
-38,46,22
-38,46,23
-38,46,23
-38,46,22
-38,46,22
-38,46,23
-37,46,23
-37,47,23
-38,47,23
-37,46,23
-37,47,23
-38,47,22
-36,46,23
-38,47,23
-38,47,23
-38,46,22
-38,46,23
-38,46,23
-38,47,23
-38,47,22
-37,46,23
-38,47,23
-38,47,22
-38,47,23
-38,47,23
-38,46,23
-38,46,23
-38,47,23
-38,47,23
-38,47,23
-38,46,23
-38,46,23
-37,47,23
-38,47,23
-38,47,23
-38,46,23
-37,46,23
-38,47,23
-38,47,22
-38,46,23
-38,46,23
-38,46,23
-38,47,23
-38,47,22
-38,46,22
-38,46,23
-38,47,23
-38,46,23
-38,47,23
-38,47,23
-37,47,23
-38,46,23
-38,47,23
-38,46,23
-38,47,23
-38,46,23
-37,46,23
-38,46,23
-38,47,23
-38,46,23
-38,47,23
-38,46,23
-38,46,23
-38,46,23
-38,46,23
-38,47,23
-38,47,23
-38,46,23
-38,46,23
-38,47,23
-38,46,23
-38,46,23
-38,47,23
-37,47,23
-38,46,23
-38,46,23
-38,46,23
-38,47,23
-38,46,23
-38,47,23
-38,46,23
-38,46,23
-38,47,23
-38,46,23
-38,47,23
-38,47,23
-38,47,23
-38,47,23
-38,47,23
-37,46,23
-36,46,22
-37,47,23
-39,47,24
-38,46,23
-37,46,24
-37,47,23
-37,47,23
-37,47,23
-38,47,22
-38,46,23
-38,46,22
-38,47,23
-38,47,23
-38,47,23
-38,46,23
-37,46,23
-38,47,23
-38,47,23
-37,46,23
-38,47,22
-38,47,23
-38,47,23
-38,46,23
-38,47,23
-38,46,23
-37,46,23
-38,47,23
-37,47,23
-38,47,23
-38,46,23
-37,46,23
-38,47,23
-37,47,23
-37,47,23
-38,46,23
-37,46,23
-37,46,23
-38,47,23
-38,46,23
-37,47,23
-37,47,23
-38,46,23
-37,47,23
-38,47,23
-38,47,23
-37,46,23
-38,46,23
-38,46,23
-36,47,23
-37,47,23
-38,46,23
-38,46,23
-38,47,22
-38,47,23
-37,47,23
-38,47,23
-38,46,23
-37,46,23
-38,47,23
-38,47,23
-37,46,23
-38,47,23
-38,47,23
-37,47,23
-37,47,23
-37,46,22
-38,46,23
-37,47,23
-37,47,23
-38,46,23
-38,46,23
-38,47,23
-38,46,23
-37,47,23
-37,46,23
-37,46,23
-37,47,23
-37,47,23
-38,47,23
-38,47,23
-38,47,23
-38,46,23
-38,47,23
-38,46,23
-38,46,23
-38,47,23
-38,47,23
-37,47,23
-38,47,23
-37,47,23
-37,47,23
-38,47,22
-38,47,23
-38,46,23
-38,47,23
-37,46,23
-38,47,23
-37,47,23
-38,47,23
-38,46,23
-38,47,23
-37,47,23
-38,47,23
-37,47,23
-37,46,23
-38,46,22
-37,46,22
-38,47,23
-37,47,23
-37,47,23
-38,47,23
-37,47,23
-37,47,23
-38,47,23
-38,46,22
-38,47,22
-38,47,23
-38,46,23
-37,46,23
-38,47,23
-37,47,23
-37,47,23
-37,46,23
-38,47,23
-38,47,23
-37,46,23
-38,47,23
-38,47,22
-37,47,23
-38,47,23
-38,47,23
-38,47,23
-38,47,23
-37,47,23
-37,47,23
-38,47,23
-38,46,23
-38,47,22
-38,47,23
-37,46,23
-38,47,23
-38,46,23
-38,47,23
-37,47,23
-38,47,23
-38,47,23
-38,47,23
-37,47,23
-38,47,23
-38,47,23
-38,47,23
-38,46,22
-38,47,23
-37,47,23
-37,47,23
-38,47,22
-38,46,22
-38,47,23
-38,46,23
-38,46,23
-37,47,23
-37,47,23
-38,47,23
-38,47,23
-37,46,23
-37,47,23
-38,47,23
-37,46,23
-38,46,23
-38,47,23
-37,47,23
-37,47,23
-38,47,22
-38,46,23
-38,47,23
-37,47,23
-38,47,23
-38,47,23
-38,47,23
-38,47,23
-37,46,23
-38,46,23
-38,46,23
-37,47,23
-38,47,23
-38,47,23
-38,47,23
-38,47,23
-37,46,23
-38,47,23
-38,46,23
-38,47,23
-37,47,23
-38,47,23
-38,46,23
-37,46,23
-37,47,23
-38,47,22
-38,46,22
-38,47,23
-38,47,23
-38,47,23
-37,46,23
-38,46,23
-37,46,23
-38,47,23
-37,47,23
-37,47,23
-37,47,23
-38,47,23
-38,47,23
-38,47,23
-38,47,23
-38,47,23
-37,46,23
-38,47,22
-37,47,23
-37,47,23
-38,47,23
-38,46,23
-38,47,23
-38,47,23
-37,47,23
-37,47,22
-38,47,23
-38,47,23
-38,47,22
-37,47,23
-37,46,23
-38,47,23
-38,47,23
-37,46,23
-38,47,23
-37,47,23
-37,47,23
-38,46,23
-38,46,23
-37,47,23
-37,47,23
-38,47,22
-38,46,22
-38,47,22
-38,47,22
-38,47,23
-38,47,23
-38,47,23
-37,47,23
-38,47,23
-37,46,23
-37,47,23
-38,47,23
-38,47,23
-37,47,23
-38,47,23
-38,47,23
-38,47,22
-38,47,23
-37,47,23
-37,47,23
-38,46,23
-38,46,22
-38,47,23
-38,46,22
-37,47,23
-38,47,23
-37,47,23
-37,47,23
-38,46,23
-37,47,23
-38,47,23
-38,47,23
-38,47,23
-38,46,23
-37,47,23
-38,47,23
-38,46,22
-38,47,22
-37,47,23
-37,47,23
-37,47,23
-38,47,23
-38,47,23
-37,47,23
-38,47,23
-37,46,23
-38,47,23
-37,47,23
-37,46,23
-38,47,23
-38,47,23
-38,47,23
-38,47,23
-37,47,23
-38,46,22
-37,47,23
-37,47,23
-38,47,23
-38,46,22
-38,47,23
-37,47,23
-38,47,23
-38,47,22
-38,47,23
-37,47,23
-37,47,23
-38,47,23
-38,47,23
-37,47,23
-38,46,23
-37,47,23
-38,47,23
-38,47,22
-38,47,23
-37,47,23
-37,47,23
-38,47,23
-38,47,23
-38,47,23
-38,47,22
-37,47,23
-37,47,23
-38,47,23
-38,46,23
-38,47,22
-38,47,23
-38,47,23
-38,47,23
-37,47,23
-38,47,22
-37,47,23
-37,47,23
-38,47,23
-37,46,23
-38,47,23
-38,46,23
-37,46,23
-37,47,23
-37,47,22
-38,47,22
-37,47,23
-37,47,23
-38,47,23
-38,47,22
-38,46,23
-38,47,23
-38,47,23
-37,47,23
-37,47,23
-37,47,23
-38,47,23
-38,47,22
-38,47,23
-38,47,23
-37,47,23
-37,47,23
-38,46,23
-38,47,23
-37,47,23
-38,47,22
-38,47,22
-37,46,23
-37,47,23
-38,47,23
-38,47,23
-37,47,22
-37,47,23
-38,47,23
-37,47,23
-37,47,23
-38,47,23
-38,47,22
-38,47,23
-38,46,23
-38,47,23
-38,47,23
-38,46,23
-38,47,23
-37,47,23
-37,47,23
-38,47,22
-38,47,23
-37,47,23
-37,47,23
-38,47,23
-38,47,23
-37,47,23
-38,46,23
-38,47,23
-37,47,23
-37,47,23
-38,47,23
-38,47,22
-37,47,23
-37,47,23
-38,47,23
-37,47,23
-37,47,23
-38,47,23
-38,47,23
-38,47,22
-38,47,23
-37,47,23
-37,47,23
-37,47,23
-37,47,23
-37,47,23
-38,46,23
-37,47,23
-37,47,23
-37,47,23
-38,47,23
-38,47,23
-38,46,22
-38,47,23
-37,47,23
-38,47,23
-38,47,23
-37,47,23
-38,47,22
-38,47,23
-38,47,23
-38,46,22
-38,47,23
-38,47,23
-37,47,23
-37,47,23
-38,47,22
-38,47,23
-38,47,23
-37,47,23
-37,47,23
-38,47,23
-38,47,23
-38,47,22
-38,47,23
-37,47,22
-38,47,23
-38,46,23
-37,47,23
-38,47,22
-38,47,23
-37,47,23
-38,47,22
-38,47,22
-37,47,23
-37,47,23
-37,47,23
-38,47,23
-38,47,23
-37,47,23
-38,47,23
-37,47,23
-38,47,23
-38,47,23
-37,47,22
-38,47,23
-37,47,23
-38,47,23
-38,47,23
-38,47,23
-38,47,23
-37,47,23
-38,47,23
-37,47,22
-38,47,22
-38,47,23
-37,47,23
-37,47,23
-38,47,23
-37,47,23
-38,47,23
-38,47,23
-37,47,23
-37,47,23
-37,47,23
-37,47,23
-38,47,23
-38,47,23
-37,47,23
-38,47,23
-38,47,23
-37,46,23
-37,47,23
-38,47,23
-38,47,22
-38,46,23
-37,47,23
-37,47,23
-38,47,23
-38,47,23
-38,47,23
-37,47,23
-37,47,23
-37,47,23
-38,47,23
-37,46,23
-37,47,23
-38,47,23
-37,47,23
-37,47,23
-38,47,23
-37,47,23
-37,47,23
-37,47,23
-38,47,23
-38,47,22
-38,47,22
-38,47,23
-37,47,23
-37,47,22
-38,47,22
-38,47,23
-38,47,23
-37,47,23
-37,47,23
-38,47,23
-38,47,23
-38,47,23
-37,47,23
-37,47,22
-37,47,23
-37,47,23
-37,47,23
-38,47,23
-38,47,23
-37,47,23
-37,47,22
-38,47,22
-37,47,22
-37,47,23
-37,47,23
-38,47,22
-38,47,23
-37,47,23
-38,47,23
-38,47,23
-37,47,23
-37,47,23
-37,47,23
-37,47,23
-38,47,23
-37,47,22
-38,46,23
-38,47,23
-37,47,23
-37,46,23
-37,47,23
-37,47,22
-37,47,23
-38,47,22
-38,47,23
-37,47,23
-37,47,23
-37,47,23
-38,47,22
-37,47,23
-38,47,22
-37,47,23
-37,47,23
-37,47,23
-38,47,23
-38,47,23
-38,47,23
-38,47,23
-38,47,23
-37,47,23
-38,47,23
-37,47,23
-37,47,23
-38,46,23
-37,47,23
-38,47,23
-38,46,23
-38,47,22
-38,47,23
-37,47,23
-37,47,23
-38,47,22
-37,47,23
-37,47,23
-38,47,23
-38,46,23
-37,47,23
-37,47,23
-38,47,23
-37,47,23
-37,47,22
-38,47,23
-38,47,23
-38,47,23
-38,47,23
-38,47,23
-38,47,23
-38,46,23
-37,47,23
-38,47,23
-38,47,23
-38,46,23
-37,47,23
-37,47,23
-37,47,23
-38,47,23
-37,47,23
-38,47,23
-37,47,23
-37,47,23
-38,47,23
-37,46,23
-37,47,23
-38,47,23
-37,47,23
-37,47,23
-38,47,22
-38,47,22
-38,47,23
-37,47,23
-37,47,22
-38,47,23
-37,47,22
-37,47,23
-37,47,23
-37,47,22
-38,47,23
-38,47,23
-37,47,23
-37,47,23
-38,47,22
-37,47,23
-37,47,22
-38,47,23
-37,47,23
-38,47,23
-38,47,23
-37,47,23
-38,47,22
-37,47,23
-38,47,23
-38,47,22
-38,47,23
-37,47,23
-37,47,23
-38,47,22
-37,47,23
-38,47,23
-38,47,23
-37,46,23
-37,47,23
-37,47,23
-37,47,22
-38,47,22
-37,46,23
-38,47,22
-38,47,22
-37,47,23
-37,47,23
-38,47,23
-37,47,22
-37,47,23
-37,47,23
-37,47,22
-37,47,23
-37,47,23
-37,47,23
-38,46,23
-38,47,23
-38,47,23
-38,47,23
-38,47,23
-38,47,22
-37,47,23
-37,47,23
-38,47,22
-38,47,23
-37,47,23
-38,47,23
-37,47,23
-38,47,23
-38,47,23
-37,47,23
-38,47,23
-38,47,23
-38,47,23
-37,47,23
-38,47,23
-37,47,23
-37,47,23
-38,47,23
-37,47,23
-37,47,23
-38,47,22
-38,47,23
-37,47,23
-37,47,23
-38,47,23
-38,47,23
-38,47,23
-37,47,23
-37,47,23
-37,47,23
-37,47,23
-37,47,22
-38,47,23
-37,47,22
-37,47,23
-37,47,23
-38,47,22
-38,47,23
-37,47,23
-38,47,23
-38,47,23
-38,47,23
-38,47,22
-37,47,23
-38,47,23
-37,47,22
-37,47,23
-37,47,23
-38,47,23
-38,46,22
-37,47,22
-37,47,22
-38,47,23
-38,47,22
-38,47,23
-37,47,23
-38,47,22
-37,47,22
-37,47,22
-37,47,22
-38,47,22
-38,47,23
-38,47,22
-38,47,22
-38,47,22
-38,47,22
-37,47,22
-37,47,22
-38,47,22
-37,47,22
-37,47,22
-37,47,22
-37,47,22
-37,47,22
-37,47,22
-37,47,22
-37,47,22
-37,47,22
-37,48,21
-38,48,22
-38,47,22
-37,46,22
-38,47,23
-38,47,21
-38,47,21
-38,47,22
-38,47,23
-37,47,22
-38,47,22
-37,47,22
-37,47,22
-38,47,22
-37,47,22
-37,47,22
-37,47,22
-38,47,22
-38,47,22
-37,47,22
-38,47,22
-37,47,22
-37,47,22
-37,47,22
-38,47,22
-38,47,22
-38,47,22
-38,47,22
-37,47,22
-38,47,22
-38,47,22
-38,47,22
-38,47,22
-38,47,22
-37,47,22
-37,47,23
-38,47,22
-37,47,22
-38,47,22
-37,47,22
-37,47,22
-37,47,22
-38,47,22
-37,47,23
-37,47,23
-38,47,22
-37,47,22
-37,47,22
-37,47,22
-38,47,22
-38,47,22
-38,47,22
-38,47,22
-37,47,22
-37,47,22
-38,47,22
-38,47,22
-37,47,22
-37,47,22
-38,47,22
-37,47,23
-38,47,22
-37,47,22
-37,47,22
-38,47,22
-38,47,22
-38,47,22
-37,47,23
-38,47,23
-38,47,22
-38,47,22
-38,47,22
-37,47,22
-38,47,22
-38,47,22
-38,46,22
-38,47,22
-38,47,22
-38,47,22
-37,47,22
-38,47,22
-38,47,22
-38,47,22
-38,47,22
-38,47,22
-37,47,23
-37,47,23
-38,47,22
-38,47,23
-37,47,22
-38,47,22
-38,47,22
-37,47,22
-37,47,22
-37,47,23
-38,47,22
-38,47,22
-38,47,22
-37,46,22
-38,47,22
-37,47,23
-38,47,22
-39,47,22
-38,47,22
-38,47,22
-37,47,22
-38,47,22
-38,46,22
-38,47,22
-38,47,22
-37,47,23
-37,47,22
-38,47,22
-38,47,22
-37,47,22
-37,46,22
-37,47,23
-38,47,22
-37,47,22
-38,47,23
-38,47,22
-38,47,22
-37,47,22
-37,47,22
-38,47,23
-38,47,23
-38,46,22
-37,47,22
-38,46,22
-38,47,23
-38,47,22
-37,47,22
-38,47,23
-38,47,22
-38,47,22
-37,47,23
-37,47,23
-37,47,23
-37,47,23
-38,47,23
-37,47,23
-37,46,23
-37,47,23
-37,47,22
-37,47,23
-37,47,23
-38,47,22
-37,47,23
-37,47,23
-37,47,23
-37,47,23
-37,47,22
-38,47,22
-38,47,23
-37,47,23
-37,47,23
-36,47,23
-37,47,23
-37,47,22
-37,47,22
-37,47,23
-38,47,23
-37,47,23
-37,47,23
-37,47,23
-37,47,23
-37,47,23
-37,47,24
-37,47,23
-37,47,23
-37,47,23
-37,47,23
-37,47,23
-37,47,23
-37,47,23
-37,47,23
-37,47,23
-37,47,23
-37,47,24
-37,46,23
-37,47,23
-37,47,24
-37,47,23
-37,47,23
-37,47,23
-36,47,23
-36,47,23
-38,47,23
-37,47,23
-36,47,23
-37,47,23
-36,47,23
-37,47,23
-37,47,23
-38,47,23
-38,47,23
-38,46,22
-36,47,23
-37,47,23
-38,47,23
-38,47,22
-38,47,22
-37,47,23
-36,47,23
-36,47,23
-37,47,23
-37,47,23
-36,47,23
-37,47,22
-37,47,23
-37,47,24
-37,47,23
-37,47,23
-37,47,23
-37,47,23
-38,47,23
-38,47,22
-37,47,23
-38,47,23
-37,47,23
-37,47,23
-37,47,23
-37,47,23
-37,47,23
-37,47,23
-37,47,23
-37,47,23
-38,47,22
-38,47,23
-37,47,23
-37,47,23
-37,47,23
-37,47,23
-37,47,23
-37,47,23
-37,47,23
-37,47,23
-37,47,23
-38,47,23
-37,47,23
-37,47,23
-38,47,23
-37,47,23
-37,47,23
-37,47,23
-37,47,23
-37,47,23
-37,47,23
-37,47,23
-37,47,23
-38,47,23
-38,47,23
-37,47,23
-37,47,23
-37,47,22
-37,47,23
-37,47,23
-37,47,23
-37,47,23
-37,47,23
-37,47,23
-37,47,22
-37,47,23
-37,47,23
-37,47,22
-37,47,23
-37,47,23
-37,47,23
-37,47,23
-37,47,23
-37,47,23
-37,47,23
-37,47,23
-37,47,23
-38,47,23
-38,47,23
-37,47,23
-37,47,23
-37,47,23
-37,47,22
-37,47,23
-38,47,23
-37,47,23
-37,47,23
-37,47,22
-37,47,23
-37,47,23
-37,47,23
-37,47,23
-37,47,23
-37,47,23
-38,47,23
-37,47,22
-37,47,23
-37,47,23
-37,47,23
-37,47,23
-37,47,23
-38,47,23
-37,47,23
-37,47,23
-37,47,23
-37,47,23
-37,47,23
-37,47,23
-37,47,23
-37,47,23
-37,47,23
-37,47,23
-37,47,23
-37,47,23
-37,47,23
-37,47,23
-37,47,23
-37,47,23
-37,47,23
-37,47,23
-37,47,23
-37,47,23
-37,47,23
-37,47,23
-37,47,23
-37,47,23
-37,47,23
-37,47,23
-37,47,23
-37,47,23
-37,47,23
-37,47,23
-37,47,23
-37,47,22
-37,47,23
-37,47,23
-38,47,23
-37,47,23
-37,47,23
-37,47,23
-37,47,23
-37,47,23
-37,47,23
-37,47,22
-37,47,23
-37,47,23
-37,47,23
-38,47,23
-37,47,23
-37,47,23
-37,47,23
-37,47,23
-37,47,23
-37,47,23
-37,47,22
-37,47,23
-37,47,23
-37,47,23
-37,47,22
-37,47,23
-37,47,23
-37,47,23
-37,47,23
-37,47,23
-37,47,22
-37,47,23
-37,47,23
-38,47,22
-37,47,23
-37,47,23
-37,47,23
-37,47,23
-37,47,23
-37,47,23
-38,47,23
-37,47,23
-37,47,23
-37,47,22
-37,47,22
-37,47,22
-37,47,23
-37,47,23
-37,47,23
-37,47,23
-38,47,23
-37,47,23
-37,47,23
-37,47,23
-37,47,22
-37,47,23
-37,47,23
-37,47,22
-37,47,23
-37,47,23
-37,47,22
-37,47,23
-37,47,23
-37,47,23
-37,47,23
-37,47,23
-37,47,23
-37,47,23
-37,47,23
-37,47,23
-37,47,23
-37,47,23
-37,47,23
-37,47,22
-37,47,23
-37,47,23
-37,47,23
-37,47,23
-37,47,23
-37,47,23
-37,47,23
-37,47,23
-37,47,23
-37,47,23
-37,47,23
-37,47,23
-37,47,23
-37,47,23
-37,47,23
-37,47,23
-37,47,23
-37,47,23
-38,47,22
-37,47,22
-37,47,23
-37,47,23
-37,47,22
-37,47,23
-37,47,23
-37,47,23
-37,47,23
-37,47,23
-37,47,23
-37,47,23
-37,47,23
-37,47,23
-37,47,23
-37,47,23
-37,47,23
-37,47,23
-37,47,23
-37,47,23
-38,47,22
-38,47,23
-37,47,23
-37,47,23
-38,47,23
-38,47,23
-37,47,23
-37,47,23
-37,47,23
-37,47,23
-37,47,22
-37,47,23
-37,47,23
-37,47,23
-37,47,23
-37,47,23
-38,47,23
-37,47,23
-37,47,23
-37,47,22
-37,47,23
-37,47,23
-38,47,22
-37,47,23
-37,47,23
-37,47,23
-37,47,22
-37,47,23
-37,47,22
-37,47,23
-37,47,23
-37,47,23
-37,47,23
-37,47,22
-37,47,23
-37,47,23
-37,47,23
-37,47,23
-37,47,23
-37,47,23
-37,47,23
-37,47,23
-37,47,23
-37,47,22
-37,47,22
-37,47,23
-38,47,23
-37,47,23
-37,47,23
-37,47,23
-37,47,22
-37,47,23
-37,47,23
-37,47,23
-37,47,23
-37,47,23
-37,47,22
-37,47,23
-37,47,22
-37,47,23
-37,47,23
-38,47,22
-38,47,22
-37,47,23
-37,47,23
-37,47,23
-37,47,23
-37,47,23
-37,47,22
-37,47,23
-37,47,23
-37,47,23
-37,47,23
-38,47,22
-38,47,22
-37,47,23
-37,47,23
-37,47,22
-38,47,22
-37,47,23
-37,47,23
-37,47,23
-38,47,23
-37,47,23
-37,47,23
-38,47,23
-37,47,23
-37,47,23
-37,47,23
-37,47,22
-37,47,23
-37,47,23
-37,47,23
-37,47,23
-37,47,23
-37,47,23
-37,47,22
-37,47,23
-38,47,22
-37,47,23
-37,47,23
-37,47,22
-37,47,22
-38,47,22
-37,47,23
-37,47,23
-38,47,23
-38,47,22
-37,47,23
-37,47,23
-37,47,22
-37,47,22
-37,47,23
-37,47,23
-37,47,23
-37,47,23
-37,47,23
-37,47,22
-37,47,22
-37,47,23
-37,47,23
-37,47,23
-37,47,23
-38,47,23
-37,47,23
-37,47,23
-37,47,23
-37,47,23
-37,47,23
-37,47,23
-37,47,23
-37,47,23
-37,47,23
-38,47,22
-37,47,23
-37,47,23
-37,47,22
-38,47,22
-37,47,23
-37,47,23
-37,47,23
-38,47,23
-38,47,22
-37,47,23
-37,47,23
-37,47,22
-38,47,23
-37,47,22
-37,47,22
-37,47,23
-37,47,23
-37,47,22
-37,47,23
-37,47,23
-37,47,23
-37,47,23
-37,47,22
-37,47,23
-37,47,23
-37,47,23
-37,47,23
-38,47,23
-37,47,23
-37,47,22
-37,47,23
-37,47,23
-37,47,22
-37,47,22
-37,47,23
-37,47,23
-37,47,23
-37,47,22
-37,47,22
-37,47,23
-37,47,23
-37,47,23
-37,47,23
-37,47,23
-38,47,22
-37,47,22
-37,47,23
-37,47,22
-38,47,22
-38,47,23
-38,47,23
-37,47,23
-37,47,23
-37,47,23
-37,47,22
-37,47,22
-37,47,23
-37,47,23
-37,47,22
-38,47,23
-37,47,23
-37,47,23
-37,47,23
-38,47,23
-37,47,23
-37,47,23
-37,47,22
-37,47,23
-37,47,23
-37,47,22
-37,47,22
-38,47,22
-37,47,23
-37,47,23
-38,47,23
-37,47,23
-37,47,23
-38,47,22
-37,47,23
-37,47,23
-37,47,23
-37,47,22
-38,47,23
-37,47,23
-37,47,23
-37,47,23
-38,47,22
-38,47,22
-37,47,23
-37,47,23
-37,47,23
-37,47,23
-37,47,22
-37,47,23
-37,47,23
-38,47,22
-37,47,23
-37,47,23
-37,47,22
-37,47,23
-37,47,23
-37,47,23
-37,47,23
-37,47,23
-37,47,22
-37,47,23
-37,47,23
-37,47,23
-37,47,23
-37,47,23
-37,47,23
-37,47,23
-37,47,23
-38,47,22
-37,47,23
-37,47,22
-37,47,22
-37,47,22
-37,47,23
-37,47,23
-38,47,23
-37,47,23
-38,47,22
-37,47,22
-37,47,23
-37,47,22
-37,47,22
-37,47,22
-37,47,23
-37,47,23
-38,47,23
-37,47,23
-37,47,23
-38,47,22
-37,47,23
-37,47,23
-37,47,23
-37,47,23
-37,47,22
-37,47,23
-37,47,23
-37,47,22
-37,47,23
-37,47,23
-37,47,23
-37,47,23
-37,47,23
-37,47,22
-38,47,22
-38,47,23
-37,47,23
-37,47,23
-38,47,23
-37,47,23
-37,47,22
-38,47,22
-37,47,23
-38,47,22
-38,47,23
-37,47,23
-37,47,23
-37,47,23
-37,47,23
-37,47,23
-37,47,23
-37,47,23
-37,47,23
-38,47,22
-38,47,22
-37,47,23
-37,47,23
-37,47,23
-38,47,22
-38,47,22
-37,47,23
-38,47,23
-37,47,23
-37,47,23
-37,47,22
-37,47,23
-37,47,22
-37,47,23
-37,47,23
-37,47,23
-37,47,23
-37,47,23
-37,47,22
-37,47,23
-37,47,23
-38,47,22
-37,47,23
-37,47,23
-37,47,23
-38,47,23
-37,47,23
-38,47,23
-37,47,22
-37,47,23
-37,47,23
-37,47,23
-37,47,23
-37,47,22
-37,47,22
-37,47,23
-37,47,23
-37,47,23
-37,47,23
-38,47,22
-37,47,22
-37,47,23
-38,47,23
-38,47,22
-37,47,22
-37,47,23
-37,47,23
-38,47,22
-37,47,23
-37,47,22
-37,47,23
-37,47,23
-37,47,23
-37,47,23
-37,47,22
-37,47,23
-37,47,22
-37,47,23
-37,47,23
-37,47,23
-38,47,22
-37,47,22
-37,47,23
-37,47,23
-37,47,21
-38,47,23
-37,47,23
-36,47,23
-37,47,23
-38,47,23
-37,47,23
-37,47,22
-37,47,23
-37,47,23
-37,47,22
-38,47,23
-38,47,23
-37,47,22
-37,47,23
-37,47,23
-38,47,22
-37,47,23
-37,47,22
-37,47,23
-37,47,22
-38,47,22
-37,47,22
-37,47,23
-37,47,23
-38,47,22
-37,47,23
-37,47,22
-38,47,23
-37,47,23
-37,47,23
-38,47,23
-38,47,23
-37,47,22
-37,47,23
-37,47,23
-37,47,23
-37,47,23
-37,47,23
-37,47,23
-37,47,23
-37,47,23
-38,47,22
-38,47,22
-37,47,23
-37,47,23
-37,47,23
-38,47,22
-37,47,23
-37,47,23
-37,47,23
-37,47,23
-37,47,23
-37,47,23
-37,47,23
-37,47,23
-37,47,23
-37,47,23
-37,47,23
-37,47,23
-37,47,23
-38,47,23
-37,47,22
-37,47,23
-38,47,22
-38,47,23
-37,47,23
-37,47,23
-37,47,23
-37,47,22
-37,47,23
-37,47,23
-37,47,23
-37,47,23
-37,47,23
-37,47,22
-37,47,23
-37,47,23
-37,47,23
-38,47,23
-38,47,23
-37,47,22
-37,47,23
-37,47,23
-37,47,23
-37,47,22
-37,47,22
-38,47,22
-37,47,23
-37,47,23
-38,47,22
-37,47,23
-37,47,22
-37,47,22
-38,47,23
-37,47,23
-37,47,23
-37,47,23
-37,47,23
-37,47,23
-38,47,23
-37,47,23
-37,47,23
-37,47,23
-38,47,22
-37,47,23
-37,47,23
-37,47,22
-38,47,23
-38,47,23
-37,47,23
-37,47,23
-37,47,23
-37,47,22
-38,47,22
-38,47,23
-36,47,23
-38,47,23
-38,47,23
-37,47,22
-37,47,23
-37,47,23
-38,47,23
-37,46,23
-37,47,23
-38,47,23
-37,47,23
-37,47,23
-38,47,22
-37,47,23
-37,47,23
-37,47,23
-38,47,23
-38,47,23
-37,47,22
-38,47,23
-37,47,23
-37,47,22
-38,47,23
-37,47,23
-37,47,23
-38,47,23
-37,47,23
-37,47,23
-38,47,23
-37,47,23
-37,47,23
-37,47,23
-37,47,23
-37,47,23
-37,47,23
-37,47,23
-37,47,23
-38,47,23
-37,47,23
-37,47,22
-38,47,23
-37,47,23
-37,47,23
-38,47,23
-37,47,22
-37,47,23
-37,47,23
-37,47,23
-37,47,23
-38,47,23
-37,47,23
-37,47,23
-37,47,23
-37,47,22
-37,47,23
-37,47,23
-37,47,23
-38,47,22
-37,47,23
-37,47,23
-37,47,22
-38,47,23
-37,47,23
-38,47,23
-38,47,23
-37,47,22
-37,47,23
-37,47,22
-37,47,23
-37,47,22
-38,47,23
-37,47,23
-37,47,22
-38,47,22
-37,47,23
-37,47,23
-37,47,23
-38,47,22
-37,47,22
-37,47,23
-38,47,23
-37,47,23
-37,47,23
-37,47,22
-37,47,23
-37,47,23
-37,47,22
-37,47,23
-37,47,23
-38,47,22
-37,47,23
-37,47,23
-38,47,22
-38,47,22
-37,47,23
-37,47,23
-37,47,22
-38,47,22
-37,47,23
-37,47,23
-37,47,23
-37,47,23
-37,47,23
-37,47,23
-37,47,22
-37,47,22
-37,47,23
-37,47,22
-37,47,23
-37,47,23
-37,47,23
-37,47,23
-38,47,22
-37,47,22
-37,47,22
-37,47,23
-37,47,24
-37,47,23
-38,48,21
-38,47,22
-39,47,22
-38,46,22
-37,47,23
-37,47,23
-38,47,23
-37,46,23
-37,46,23
-37,47,22
-37,47,22
-37,47,22
-39,47,22
-38,47,23
-38,47,23
-38,47,22
-38,47,22
-37,47,23
-37,47,23
-38,47,22
-37,47,22
-38,47,22
-37,47,23
-37,47,22
-38,46,23
-37,47,23
-37,47,22
-38,47,22
-38,47,22
-38,46,22
-37,47,22
-37,47,23
-37,47,23
-37,47,22
-37,47,23
-37,47,23
-38,47,22
-38,47,22
-38,47,22
-37,47,23
-38,47,22
-38,47,22
-37,47,22
-38,47,23
-38,47,23
-37,47,22
-38,47,23
-38,47,23
-38,47,22
-37,47,22
-37,47,22
-38,47,22
-38,47,23
-38,47,22
-38,47,22
-38,47,22
-37,47,23
-38,47,22
-38,47,22
-37,47,23
-37,47,22
-38,47,23
-38,47,22
-38,47,22
-38,47,22
-38,47,23
-38,47,22
-38,47,22
-37,47,23
-38,47,22
-38,47,22
-37,47,22
-38,47,22
-38,47,22
-37,47,22
-38,47,22
-38,47,23
-38,47,22
-38,47,22
-38,47,22
-38,47,22
-38,47,22
-38,47,22
-37,47,22
-37,47,23
-38,47,22
-38,46,22
-38,47,23
-38,47,22
-38,47,22
-39,47,22
-39,47,22
-38,47,22
-37,47,22
-37,47,23
-37,47,22
-37,47,23
-38,47,23
-38,47,23
-37,46,22
-38,47,22
-38,47,22
-38,47,22
-39,47,22
-37,47,22
-37,47,23
-37,47,23
-37,47,23
-38,47,23
-38,47,22
-37,47,22
-38,47,22
-39,47,21
-38,47,22
-38,46,22
-38,47,22
-38,47,22
-37,47,23
-37,47,22
-38,47,21
-38,47,21
-37,47,21
-38,47,22
-37,47,23
-37,48,23
-37,47,22
-37,47,22
-38,47,22
-38,47,22
-38,46,22
-38,46,22
-38,47,21
-38,47,21
-38,47,23
-38,48,23
-37,47,22
-37,47,22
-38,47,22
-37,47,22
-37,47,23
-38,47,22
-38,47,22
-38,47,22
-37,47,22
-37,47,22
-38,47,22
-38,47,22
-38,47,22
-38,47,22
-37,47,22
-37,47,22
-38,47,22
-37,47,22
-37,47,22
-38,47,22
-37,47,22
-37,47,22
-37,47,22
-38,47,22
-37,47,22
-37,47,22
-38,47,22
-38,47,22
-37,47,22
-37,47,22
-38,47,22
-38,47,22
-37,47,22
-38,47,22
-37,47,22
-37,47,22
-37,47,22
-37,47,22
-38,47,22
-37,47,22
-37,47,22
-37,47,22
-37,47,22
-37,47,22
-38,47,22
-37,47,22
-38,47,22
-37,47,22
-38,47,22
-37,47,22
-37,47,21
-37,47,23
-37,47,22
-37,47,22
-37,47,22
-37,47,22
-37,47,22
-37,47,22
-37,47,22
-37,47,22
-37,47,22
-37,47,22
-37,47,22
-37,47,22
-37,47,22
-37,47,22
-38,47,22
-37,47,23
-37,47,22
-37,47,22
-38,47,22
-38,47,22
-37,47,22
-37,47,22
-37,47,22
-37,47,22
-37,47,22
-38,47,22
-37,47,22
-37,47,22
-37,47,22
-37,47,22
-37,47,22
-38,47,22
-37,47,23
-37,47,22
-38,47,22
-37,47,22
-37,47,22
-37,47,22
-37,47,22
-37,47,22
-37,47,22
-38,47,22
-37,47,23
-37,47,22
-37,47,22
-37,47,22
-37,47,22
-37,47,22
-37,47,22
-37,47,22
-38,47,23
-38,47,22
-37,47,22
-37,47,22
-37,47,22
-38,47,22
-37,47,22
-37,47,23
-37,47,23
-37,47,22
-37,47,22
-38,47,22
-37,47,22
-37,47,22
-37,47,22
-38,47,22
-38,47,22
-37,47,22
-37,47,22
-37,47,22
-38,47,22
-37,47,22
-37,47,22
-37,47,22
-37,47,22
-37,47,22
-38,47,22
-37,47,22
-37,47,23
-37,47,22
-37,47,22
-37,47,23
-37,47,22
-37,47,22
-37,47,22
-37,47,22
-37,47,22
-37,47,22
-37,47,22
-37,47,23
-37,47,22
-37,47,22
-37,47,22
-37,47,22
-37,47,22
-38,47,22
-38,47,22
-37,47,22
-37,47,22
-37,47,22
-38,47,22
-37,47,22
-37,47,22
-37,47,22
-37,47,22
-37,47,23
-37,47,22
-37,47,22
-38,47,22
-37,47,22
-37,47,22
-37,47,22
-37,47,22
-37,47,22
-37,47,23
-37,47,22
-37,47,22
-37,47,23
-37,47,23
-37,47,22
-38,47,22
-37,47,22
-38,47,22
-37,47,22
-37,47,23
-37,47,22
-37,47,22
-37,47,22
-37,47,22
-37,47,22
-37,47,23
-37,47,22
-38,47,22
-37,47,23
-37,47,22
-38,47,22
-37,47,23
-37,47,22
-37,47,22
-37,47,22
-38,47,22
-37,47,22
-37,47,23
-37,47,23
-37,47,22
-37,47,23
-37,47,22
-37,47,22
-37,47,22
-37,47,22
-37,47,22
-37,47,22
-37,47,22
-37,47,23
-37,47,22
-37,47,22
-38,47,22
-37,47,22
-37,47,22
-37,47,22
-37,47,22
-37,47,22
-37,47,22
-37,47,22
-37,47,22
-37,47,22
-37,47,22
-37,47,22
-37,47,22
-37,47,22
-37,47,22
-37,47,23
-37,47,22
-37,47,22
-37,47,22
-37,47,22
-37,47,22
-37,47,22
-37,47,22
-37,47,22
-38,47,22
-38,47,22
-37,47,22
-37,47,22
-37,47,22
-37,47,22
-37,47,22
-37,47,22
-37,47,22
-37,47,22
-37,47,22
-37,47,22
-37,47,22
-38,47,22
-37,47,22
-37,47,22
-37,47,22
-38,47,22
-37,47,23
-37,47,22
-37,47,22
-37,47,22
-37,47,22
-37,47,22
-37,47,22
-37,47,23
-37,47,22
-37,47,22
-38,47,22
-37,47,22
-37,47,22
-37,47,22
-37,47,22
-37,47,22
-37,47,22
-37,47,22
-37,47,22
-38,47,22
-37,47,22
-37,47,23
-37,47,22
-38,47,22
-37,47,22
-37,47,22
-37,47,22
-37,47,23
-37,47,23
-37,47,22
-38,47,23
-37,47,22
-37,47,22
-37,47,22
-37,47,22
-37,47,22
-37,47,22
-37,47,23
-37,47,22
-37,47,22
-37,47,22
-37,47,22
-37,47,22
-37,47,22
-38,47,22
-37,47,22
-37,47,22
-37,47,22
-37,47,22
-37,47,23
-37,47,22
-38,47,22
-37,47,22
-37,47,22
-37,47,22
-37,47,22
-37,48,23
-37,47,22
-37,47,22
-37,47,23
-37,47,22
-37,47,22
-37,47,22
-37,47,23
-37,47,22
-38,47,22
-38,47,22
-37,47,22
-37,47,22
-37,47,22
-37,47,22
-37,47,22
-37,47,22
-37,47,22
-37,47,22
-37,47,23
-37,47,22
-37,47,23
-37,47,22
-37,47,22
-37,47,23
-37,47,22
-37,47,22
-38,47,22
-37,47,23
-37,47,23
-38,47,22
-38,47,22
-37,47,22
-37,47,22
-37,47,22
-37,47,23
-37,47,22
-37,47,22
-37,47,22
-37,47,22
-37,47,23
-37,47,23
-37,47,22
-37,47,22
-37,47,22
-37,47,23
-37,47,22
-38,47,22
-38,47,22
-37,47,23
-37,47,23
-37,47,22
-37,47,22
-37,47,22
-37,47,22
-37,47,22
-37,47,23
-37,47,22
-38,47,22
-37,47,22
-37,47,23
-37,47,23
-37,47,22
-37,47,22
-37,47,22
-37,47,23
-37,47,23
-37,47,22
-37,47,23
-37,47,22
-37,47,23
-37,47,22
-37,47,22
-38,47,22
-37,47,22
-37,47,22
-37,47,23
-38,47,22
-37,47,22
-37,47,22
-37,47,22
-37,47,22
-37,47,22
-37,47,22
-37,47,22
-37,47,22
-37,47,23
-37,47,23
-37,47,22
-37,47,22
-37,47,22
-37,47,23
-37,47,22
-38,47,22
-37,47,22
-37,47,22
-37,47,22
-37,47,23
-37,47,23
-37,47,22
-37,47,22
-37,47,22
-37,47,22
-37,47,22
-37,47,23
-37,47,22
-37,47,23
-37,47,22
-37,47,22
-37,47,22
-38,47,22
-37,47,23
-37,47,22
-38,47,22
-37,47,22
-37,47,22
-37,47,22
-37,47,22
-37,47,22
-37,47,22
-38,47,22
-37,47,22
-37,47,22
-38,47,22
-37,47,22
-37,47,22
-36,48,23
-37,47,23
-38,47,22
-38,47,22
-37,47,23
-36,47,22
-37,47,23
-38,47,22
-38,47,22
-37,47,22
-38,47,22
-38,47,22
-37,47,22
-39,47,22
-37,47,21
-37,47,22
-37,47,22
-37,47,22
-37,47,22
-38,47,22
-37,47,22
-38,47,22
-38,47,22
-38,47,22
-37,47,22
-37,47,22
-37,47,22
-37,47,22
-37,47,22
-37,47,22
-37,47,22
-37,47,22
-37,47,22
-37,47,22
-38,47,22
-37,47,22
-37,47,22
-37,47,22
-37,47,23
-37,47,22
-37,47,22
-37,47,22
-37,47,22
-38,47,22
-37,47,22
-36,47,22
-37,47,22
-39,47,22
-37,46,22
-38,47,22
-39,47,22
-38,47,21
-37,47,22
-38,47,22
-37,47,22
-37,47,21
-38,47,22
-37,47,21
-38,47,21
-38,47,22
-38,46,22
-39,46,22
-42,46,20
-38,46,20
-38,47,22
-36,48,24
-36,48,22
-37,48,21
-37,47,21
-39,47,21
-40,47,20
-39,47,21
-38,46,21
-39,47,21
-39,46,22
-39,47,22
-38,47,22
-37,47,21
-37,47,21
-38,48,22
-37,48,21
-37,47,22
-38,47,22
-38,47,21
-38,47,21
-38,46,21
-39,47,22
-38,47,22
-37,47,22
-37,47,21
-38,48,21
-38,48,21
-37,47,22
-38,47,22
-38,47,22
-38,47,22
-38,47,21
-38,47,21
-37,47,22
-38,47,22
-38,47,22
-38,47,22
-37,47,22
-37,47,22
-38,47,22
-38,47,22
-38,47,22
-38,47,21
-38,47,22
-37,47,22
-37,47,22
-39,47,22
-38,47,22
-37,47,22
-38,47,22
-38,47,22
-39,46,21
-38,47,21
-38,46,21
-38,47,22
-38,47,23
-37,46,23
-38,47,22
-38,47,22
-38,47,22
-38,47,21
-39,47,21
-39,46,21
-38,47,22
-38,47,22
-38,46,22
-38,47,22
-38,47,22
-38,47,22
-38,47,22
-38,46,22
-37,47,22
-38,47,22
-38,47,21
-39,46,21
-39,46,21
-39,47,22
-38,47,22
-38,47,22
-37,47,22
-38,47,21
-38,47,22
-38,47,22
-38,47,22
-38,47,22
-38,47,22
-38,47,21
-39,46,21
-38,47,22
-38,47,22
-38,47,21
-38,47,22
-38,47,22
-38,47,21
-38,47,21
-38,47,22
-38,47,22
-39,47,22
-38,47,22
-38,47,22
-38,47,22
-38,47,21
-38,47,22
-38,47,21
-39,47,21
-38,47,22
-38,47,22
-38,47,22
-38,47,21
-38,47,21
-38,47,21
-38,47,21
-38,47,22
-38,47,22
-38,47,21
-38,47,21
-38,47,21
-38,46,22
-38,47,22
-38,47,21
-38,47,22
-38,47,22
-38,47,21
-38,47,22
-38,47,22
-38,47,22
-38,47,22
-38,47,22
-38,47,22
-38,47,22
-38,47,22
-38,47,22
-38,46,22
-38,47,22
-38,47,22
-38,47,22
-38,47,22
-38,47,22
-38,47,22
-38,47,22
-38,47,22
-38,47,22
-38,47,22
-38,47,22
-38,47,22
-38,47,21
-38,46,21
-38,47,22
-38,47,22
-38,47,22
-38,47,22
-38,47,22
-38,47,22
-38,47,22
-38,47,22
-38,46,22
-38,47,21
-39,47,22
-38,47,22
-38,47,22
-38,47,22
-38,47,22
-38,47,22
-38,47,22
-38,47,22
-38,47,22
-38,47,21
-38,47,22
-38,47,22
-38,47,22
-38,47,22
-38,47,22
-38,47,21
-38,47,22
-38,47,22
-38,47,22
-38,47,22
-38,47,22
-38,47,21
-38,47,22
-38,47,21
-38,47,21
-38,47,22
-38,47,22
-38,47,21
-38,47,21
-38,47,22
-38,47,22
-38,47,21
-38,47,21
-38,47,22
-38,47,21
-38,47,21
-38,47,22
-38,47,21
-38,47,22
-38,47,21
-38,47,21
-38,47,22
-38,47,22
-38,47,21
-38,47,22
-38,47,22
-38,47,22
-38,47,21
-38,47,22
-38,47,22
-38,47,21
-38,47,22
-38,47,22
-38,47,22
-38,46,22
-38,47,22
-38,47,21
-38,47,21
-38,47,22
-38,47,22
-38,47,22
-38,47,22
-38,47,21
-38,47,22
-38,47,21
-38,47,22
-38,46,22
-38,47,22
-38,47,22
-38,47,21
-38,47,22
-38,47,22
-38,47,22
-38,47,21
-38,46,22
-38,47,22
-38,47,22
-38,47,22
-38,47,22
-38,47,22
-38,47,22
-38,47,21
-38,47,22
-38,47,22
-38,47,22
-38,47,22
-38,47,22
-38,47,22
-38,47,22
-38,47,21
-38,47,22
-38,47,22
-38,47,22
-38,47,21
-38,47,22
-38,47,22
-38,47,22
-38,47,22
-38,47,22
-38,47,22
-38,47,22
-38,47,21
-38,47,21
-38,47,22
-38,47,22
-38,47,21
-38,47,22
-38,47,21
-38,47,21
-38,46,21
-38,47,22
-38,47,22
-38,47,22
-38,47,22
-38,47,22
-38,47,21
-38,47,22
-38,47,22
-38,47,22
-38,47,21
-39,47,21
-38,47,21
-38,47,21
-38,47,22
-38,47,22
-38,47,22
-38,47,21
-38,47,21
-38,47,21
-38,47,21
-38,47,22
-38,47,21
-39,47,21
-38,47,21
-38,47,21
-38,47,22
-38,47,22
-38,47,21
-39,47,21
-38,47,21
-38,47,22
-38,47,21
-38,47,22
-38,47,22
-38,47,21
-38,47,22
-38,47,22
-38,47,21
-38,47,22
-38,47,22
-38,47,21
-38,47,21
-38,47,22
-38,47,21
-38,47,22
-38,47,22
-38,47,22
-38,47,21
-38,47,21
-38,47,22
-38,47,22
-38,47,22
-38,47,21
-38,47,22
-38,47,22
-38,47,21
-38,47,21
-38,47,21
-38,47,22
-38,47,22
-38,47,21
-38,47,22
-38,47,21
-38,47,21
-38,47,22
-38,47,22
-38,47,22
-38,47,22
-38,47,22
-38,47,22
-38,47,21
-38,47,22
-38,46,21
-38,50,24
-39,44,22
-37,46,23
-38,46,22
-39,46,22
-38,46,22
-38,47,21
-38,47,21
-38,46,22
-38,46,22
-39,46,22
-39,47,21
-39,47,21
-39,47,21
-38,46,22
-39,47,22
-39,46,21
-38,46,22
-38,47,22
-38,47,22
-37,46,22
-40,46,21
-40,47,21
-37,47,22
-38,46,22
-38,46,22
-38,47,21
-38,46,22
-38,47,22
-39,46,21
-38,47,21
-38,47,22
-38,47,22
-38,47,22
-38,46,22
-38,46,22
-39,47,22
-39,47,22
-38,46,22
-38,47,22
-38,47,21
-38,47,22
-38,47,22
-38,47,21
-38,47,21
-39,47,21
-39,47,22
-38,47,22
-38,46,22
-39,46,22
-39,46,22
-38,46,22
-38,46,22
-38,46,22
-38,46,22
-38,47,21
-39,47,21
-39,47,22
-39,47,22
-39,46,22
-38,46,22
-38,46,22
-38,47,21
-39,47,20
-39,47,21
-38,46,22
-38,47,22
-38,47,22
-38,46,22
-38,46,22
-38,47,21
-39,47,21
-39,47,21
-39,46,21
-39,46,22
-39,46,22
-38,46,22
-38,47,21
-38,47,22
-38,47,22
-38,46,21
-38,46,22
-38,47,22
-38,47,22
-38,46,22
-39,47,22
-39,47,21
-39,47,21
-38,47,22
-38,47,22
-38,47,22
-38,47,22
-38,47,21
-38,47,22
-38,47,22
-38,47,21
-38,47,21
-38,46,22
-39,47,21
-38,47,22
-38,46,22
-38,46,22
-38,46,22
-38,47,21
-39,47,21
-39,46,21
-38,47,22
-38,47,21
-39,47,21
-38,47,22
-38,47,22
-39,46,21
-38,46,22
-38,47,21
-38,47,21
-39,47,22
-38,46,22
-38,46,22
-38,46,22
-38,47,22
-38,47,21
-38,46,22
-39,47,22
-39,47,22
-38,47,21
-39,47,22
-38,46,22
-38,46,22
-38,47,22
-39,47,21
-39,47,22
-39,46,22
-39,46,21
-38,47,22
-38,47,22
-36,47,24
-41,46,20
-40,47,18
-38,48,22
-37,47,27
-32,46,25
-40,47,19
-43,46,18
-40,46,20
-38,46,21
-39,47,22
-38,47,24
-37,47,23
-38,47,20
-40,47,20
-38,47,20
-37,47,22
-38,47,22
-39,47,22
-38,46,22
-38,46,22
-39,47,20
-39,46,21
-39,46,21
-39,47,22
-39,47,21
-38,47,21
-38,47,21
-38,47,21
-38,47,21
-38,47,21
-38,47,21
-38,47,21
-39,47,21
-39,47,21
-39,47,21
-39,46,21
-38,46,21
-38,47,21
-38,47,21
-38,47,21
-38,47,21
-38,46,21
-39,47,21
-39,47,21
-39,46,21
-39,47,21
-39,47,21
-39,47,21
-38,47,21
-38,47,21
-39,47,20
-38,47,21
-38,47,21
-39,47,21
-39,47,21
-38,47,21
-39,47,21
-38,47,21
-38,47,21
-39,47,21
-39,46,21
-39,47,21
-39,47,21
-38,47,21
-38,47,21
-38,47,21
-38,47,21
-39,47,21
-39,47,21
-38,47,21
-39,47,21
-38,47,21
-38,47,21
-39,47,21
-39,46,21
-38,47,21
-39,47,21
-38,47,21
-38,47,21
-38,47,21
-39,47,21
-39,47,20
-38,47,21
-39,47,21
-38,47,21
-38,47,21
-39,47,21
-39,46,21
-38,47,21
-39,47,21
-38,47,21
-38,47,21
-38,47,21
-38,47,21
-38,47,21
-38,46,21
-38,47,21
-39,47,21
-39,47,21
-39,47,21
-39,46,21
-38,47,21
-38,47,21
-38,47,21
-38,47,21
-38,47,21
-39,47,21
-39,47,21
-39,47,21
-39,47,21
-38,46,21
-38,47,21
-38,47,21
-39,47,20
-38,47,21
-38,47,21
-38,47,21
-38,47,22
-38,46,21
-39,46,21
-38,47,21
-38,47,21
-38,47,21
-38,47,21
-38,46,21
-39,46,21
-38,47,21
-38,47,21
-38,47,21
-39,47,21
-38,47,22
-38,47,22
-39,47,21
-39,47,21
-38,47,21
-39,47,21
-38,47,21
-38,47,22
-38,47,21
-38,47,21
-38,47,21
-38,47,21
-38,47,21
-38,47,21
-38,47,21
-38,47,21
-38,47,22
-38,47,21
-38,47,21
-38,47,21
-38,47,21
-38,47,21
-38,46,21
-39,47,21
-38,47,21
-38,47,21
-38,47,21
-38,47,22
-38,47,22
-39,47,21
-38,47,21
-39,47,21
-39,47,21
-38,47,21
-38,47,21
-39,46,21
-38,47,21
-38,47,21
-38,47,21
-38,47,22
-38,47,22
-38,47,21
-39,47,21
-38,47,21
-38,47,21
-38,47,21
-38,47,21
-38,47,22
-38,47,21
-38,47,21
-38,47,21
-38,47,21
-38,47,21
-38,47,21
-38,47,21
-38,47,21
-38,47,21
-38,47,21
-38,47,22
-37,46,22
-38,47,21
-39,47,21
-38,47,22
-38,47,21
-38,47,21
-38,47,22
-38,47,22
-38,47,21
-38,47,21
-38,47,21
-38,47,22
-38,47,21
-38,47,21
-38,47,22
-38,47,21
-38,47,21
-38,46,21
-38,47,22
-38,47,22
-38,47,22
-38,47,21
-38,47,21
-38,47,21
-38,47,22
-38,47,22
-38,47,21
-38,47,21
-38,47,21
-38,47,21
-38,47,21
-38,46,22
-38,46,21
-39,47,21
-38,47,21
-38,47,21
-38,47,20
-38,47,21
-38,47,21
-38,47,21
-38,47,21
-38,47,21
-38,47,21
-38,47,21
-38,47,21
-39,47,21
-38,47,21
-38,47,21
-38,47,21
-38,47,22
-38,47,21
-38,47,21
-38,47,22
-38,47,21
-38,47,21
-38,47,21
-38,47,22
-38,47,21
-39,47,21
-38,47,21
-38,47,21
-38,47,21
-38,47,22
-38,47,22
-38,47,21
-38,47,21
-38,47,21
-38,47,21
-38,47,21
-38,47,21
-38,47,21
-38,47,22
-38,47,22
-38,47,21
-38,47,21
-38,47,21
-38,47,21
-38,47,22
-38,47,22
-38,47,21
-38,47,22
-38,47,21
-38,47,21
-38,47,21
-38,47,21
-38,47,21
-38,47,21
-38,47,21
-38,47,21
-38,47,21
-38,47,22
-38,47,21
-38,47,21
-38,47,21
-38,47,21
-38,47,21
-38,47,21
-38,47,21
-38,47,21
-38,47,22
-38,47,22
-38,47,22
-38,47,21
-39,47,21
-38,47,21
-38,47,21
-38,47,21
-38,47,21
-38,47,21
-38,47,21
-38,47,21
-38,47,22
-38,47,21
-38,47,21
-38,47,21
-38,47,22
-38,47,21
-38,47,21
-38,47,21
-38,47,22
-38,47,22
-38,47,21
-38,47,22
-38,47,21
-38,47,21
-38,47,21
-38,47,21
-38,47,21
-38,47,21
-38,47,21
-38,47,21
-38,47,21
-38,47,21
-38,47,21
-38,47,21
-38,47,21
-38,47,21
-38,47,21
-38,47,21
-38,47,21
-38,47,21
-38,47,21
-38,47,21
-38,47,21
-38,47,21
-38,47,21
-38,47,21
-38,47,21
-38,47,21
-38,47,21
-38,47,21
-38,47,21
-38,47,21
-38,47,21
-38,47,21
-38,47,21
-38,47,22
-38,47,22
-38,47,21
-38,47,21
-38,47,21
-38,47,21
-39,47,21
-38,47,21
-38,47,21
-38,47,21
-37,47,22
-37,47,22
-38,47,21
-38,47,21
-38,47,21
-38,47,21
-38,47,21
-38,47,21
-38,47,21
-38,47,22
-38,47,21
-38,47,21
-38,47,21
-38,47,21
-38,47,21
-38,47,21
-38,47,22
-38,47,21
-38,47,21
-38,47,22
-38,47,21
-38,47,21
-38,47,22
-38,47,21
-38,47,21
-38,47,21
-38,47,21
-38,47,21
-38,47,21
-38,47,21
-38,47,22
-38,47,21
-38,47,21
-38,47,21
-38,47,21
-38,47,21
-38,47,21
-38,47,21
-38,47,22
-38,47,21
-38,47,21
-38,47,21
-38,47,21
-38,47,21
-38,47,21
-38,47,21
-38,47,21
-38,47,21
-38,47,21
-38,47,21
-38,47,21
-38,47,21
-38,47,21
-38,47,21
-38,47,21
-38,47,22
-38,47,21
-38,47,21
-38,47,21
-38,47,22
-38,47,21
-38,47,21
-39,47,21
-38,47,21
-38,47,22
-38,47,21
-38,47,22
-38,47,21
-38,47,21
-38,47,21
-38,47,21
-38,47,21
-38,47,22
-39,47,21
-39,47,21
-38,47,21
-39,47,21
-38,47,21
-38,47,21
-38,47,21
-38,47,21
-37,47,21
-38,47,21
-38,47,21
-38,47,21
-38,47,21
-38,47,21
-38,47,21
-38,47,21
-38,46,21
-38,47,22
-38,47,21
-38,47,21
-38,47,21
-38,47,21
-38,47,21
-39,47,21
-38,47,22
-38,47,21
-38,47,21
-37,47,22
-37,47,22
-38,47,21
-39,47,21
-38,47,21
-38,47,22
-38,47,22
-38,47,22
-38,47,22
-38,47,21
-38,47,21
-38,47,21
-38,47,22
-38,47,21
-39,47,21
-38,47,21
-38,47,21
-38,47,21
-38,47,21
-38,47,21
-38,46,21
-38,47,22
-38,47,21
-39,47,21
-38,47,21
-38,47,21
-38,47,21
-38,47,22
-38,47,21
-38,47,21
-38,47,21
-38,47,21
-38,47,21
-38,47,21
-38,47,21
-38,47,21
-38,47,21
-38,47,21
-38,47,21
-38,47,21
-38,47,21
-38,47,22
-38,47,21
-38,47,21
-38,47,21
-38,47,21
-38,47,21
-38,47,22
-38,47,21
-39,47,21
-38,47,21
-38,47,21
-38,47,22
-37,47,21
-38,47,21
-38,47,21
-38,47,21
-38,47,21
-38,47,21
-38,47,21
-38,47,21
-38,47,22
-38,47,21
-38,47,21
-38,47,21
-38,47,21
-38,47,21
-38,47,21
-38,47,21
-38,47,21
-38,47,21
-38,47,21
-38,47,21
-38,47,22
-38,47,21
-38,47,21
-38,47,21
-38,47,21
-38,47,21
-38,47,21
-38,47,22
-38,47,22
-38,47,21
-38,47,21
-38,47,21
-38,47,21
-38,47,22
-38,47,21
-38,47,21
-38,47,22
-38,47,22
-38,47,21
-38,47,22
-38,47,21
-38,47,21
-38,47,22
-38,47,21
-38,47,21
-38,47,21
-37,47,21
-38,47,21
-38,47,22
-38,47,21
-38,47,22
-38,47,22
-38,47,21
-37,47,22
-38,47,21
-38,47,21
-38,47,21
-38,47,21
-38,47,21
-38,47,21
-38,47,21
-38,47,21
-38,47,21
-38,47,21
-38,47,21
-38,47,21
-38,47,21
-38,47,21
-38,47,21
-38,47,21
-38,47,21
-38,47,21
-38,47,21
-38,47,21
-38,47,21
-38,47,21
-38,47,21
-38,47,21
-38,47,21
-38,47,21
-38,47,21
-38,47,21
-38,47,21
-38,47,21
-38,47,21
-38,47,21
-38,47,22
-38,47,21
-38,47,21
-39,47,21
-38,47,21
-38,47,21
-38,47,22
-38,47,21
-38,47,21
-38,47,21
-38,47,21
-38,47,21
-38,47,21
-38,47,21
-38,47,21
-38,47,21
-38,47,21
-38,47,21
-38,47,21
-38,47,21
-38,47,21
-38,47,21
-38,47,21
-38,47,21
-38,47,21
-38,47,21
-38,47,21
-38,47,21
-38,47,21
-38,47,21
-38,47,21
-38,47,21
-38,47,21
-38,47,21
-38,47,21
-38,47,21
-38,47,21
-38,47,21
-38,47,22
-38,47,22
-38,47,21
-39,47,21
-38,47,21
-38,47,21
-38,47,21
-38,47,21
-38,47,21
-38,47,21
-38,47,21
-38,47,21
-38,47,21
-38,47,21
-38,47,21
-38,47,21
-38,47,21
-38,47,21
-38,47,22
-38,47,21
-39,48,21
-38,47,21
-38,47,21
-38,47,21
-38,47,21
-38,47,21
-38,47,21
-38,47,21
-38,47,22
-38,47,22
-38,47,21
-38,47,21
-38,47,21
-38,47,21
-38,47,21
-38,47,22
-38,47,21
-38,47,21
-38,46,21
-38,47,22
-38,47,22
-38,47,21
-38,47,21
-38,47,21
-37,47,22
-38,47,21
-38,47,21
-38,47,21
-38,47,21
-38,47,21
-38,47,22
-38,47,22
-38,47,21
-38,47,21
-38,47,21
-38,47,21
-38,47,21
-38,47,22
-38,47,21
-38,47,21
-38,47,21
-38,47,21
-38,47,22
-38,47,21
-38,47,21
-38,47,21
-38,47,22
-38,47,21
-38,47,21
-38,47,21
-38,47,21
-38,47,21
-38,47,21
-38,47,21
-38,47,21
-38,47,21
-38,47,21
-38,47,21
-38,47,21
-38,47,21
-38,47,21
-38,47,21
-38,47,21
-38,47,21
-38,47,21
-38,47,21
-38,47,21
-38,47,22
-38,47,21
-38,47,21
-38,47,21
-38,47,21
-38,47,21
-38,47,21
-38,47,21
-39,47,21
-38,47,21
-38,47,21
-38,47,21
-38,47,21
-38,47,22
-38,47,21
-38,47,21
-38,47,21
-38,47,22
-38,47,21
-38,47,21
-38,47,21
-38,47,22
-38,47,21
-38,47,21
-38,47,22
-38,47,21
-38,47,21
-38,47,22
-38,47,21
-38,47,21
-38,47,21
-38,47,22
-38,47,21
-38,47,21
-38,47,21
-38,47,21
-38,47,21
-38,47,22
-38,47,22
-38,47,21
-38,47,21
-38,47,22
-38,47,22
-38,47,21
-38,47,21
-38,47,21
-38,47,22
-38,47,22
-38,47,22
-38,47,21
-38,47,21
-38,47,21
-38,47,22
-38,47,22
-38,47,21
-38,47,22
-38,47,21
-38,47,21
-38,47,22
-38,47,21
-38,47,21
-38,47,21
-38,47,21
-38,47,21
-38,47,21
-38,47,21
-38,47,21
-38,47,22
-38,47,21
-38,47,22
-38,47,21
-38,47,21
-38,47,21
-38,47,21
-38,47,21
-38,47,21
-38,47,21
-38,47,21
-38,47,21
-38,47,21
-38,47,21
-38,47,21
-38,47,21
-38,47,21
-38,47,21
-38,47,21
-38,47,21
-38,47,21
-38,47,21
-38,47,21
-38,48,22
-38,47,21
-38,47,21
-38,47,21
-38,47,21
-38,47,22
-38,47,21
-38,47,21
-38,47,21
-38,47,22
-38,47,21
-38,47,21
-38,47,21
-38,47,22
-38,47,21
-38,47,21
-38,47,21
-38,47,21
-37,47,22
-38,47,21
-38,47,22
-38,47,21
-38,47,21
-38,47,22
-38,47,21
-38,47,21
-38,47,22
-38,47,21
-38,47,21
-38,47,22
-38,47,21
-38,47,21
-38,47,22
-38,47,22
-38,47,22
-38,47,21
-38,47,21
-38,47,21
-38,47,21
-38,47,22
-38,47,21
-38,47,21
-38,47,21
-38,47,21
-38,47,21
-38,47,22
-38,47,22
-38,47,21
-38,47,21
-38,47,22
-38,47,22
-38,47,21
-38,47,21
-38,47,21
-38,47,22
-38,47,21
-38,47,21
-38,47,22
-38,47,21
-38,47,22
-38,47,22
-38,47,21
-38,47,21
-38,47,21
-38,47,21
-38,47,22
-38,47,22
-38,47,21
-38,47,22
-38,47,21
-38,47,21
-38,47,22
-38,47,21
-38,47,21
-38,47,22
-38,47,22
-38,47,21
-38,47,21
-38,47,21
-38,47,22
-38,47,22
-38,47,22
-38,47,21
-38,47,21
-38,47,21
-38,47,22
-38,47,21
-38,47,21
-38,47,21
-38,47,21
-38,47,21
-38,47,21
-38,47,21
-38,47,21
-38,47,22
-37,47,22
-38,47,21
-38,47,21
-38,47,22
-38,47,22
-38,47,21
-38,47,21
-38,47,22
-38,47,21
-38,47,21
-38,47,21
-38,47,22
-38,48,22
-38,47,21
-38,47,21
-38,47,21
-38,47,22
-38,47,22
-38,47,21
-38,47,21
-38,47,22
-38,47,22
-38,47,21
-38,47,21
-38,47,21
-38,47,21
-38,47,22
-38,47,22
-38,47,21
-38,47,22
-38,46,21
-38,47,22
-38,47,21
-38,47,22
-38,47,21
-38,47,21
-38,47,21
-38,47,22
-38,47,21
-38,47,21
-38,47,22
-38,47,22
-38,47,22
-38,47,21
-38,47,22
-38,47,22
-38,47,22
-38,47,22
-38,47,22
-38,47,21
-38,47,21
-38,47,22
-38,47,21
-38,47,21
-38,47,22
-38,47,21
-38,47,22
-38,47,22
-38,47,21
-38,47,21
-38,47,21
-38,47,22
-37,47,22
-38,47,22
-38,47,21
-38,47,21
-38,47,21
-38,47,22
-38,47,22
-38,47,22
-38,47,21
-38,47,21
-38,47,21
-38,47,22
-38,47,22
-38,47,21
-38,47,21
-38,47,21
-38,47,21
-38,47,21
-38,47,21
-38,47,21
-38,47,22
-38,47,22
-38,47,21
-38,47,21
-38,46,21
-38,47,21
-38,47,21
-38,47,22
-38,47,22
-38,47,21
-38,47,21
-38,47,21
-38,47,21
-38,47,22
-38,47,22
-38,47,21
-38,47,21
-38,47,21
-38,47,21
-38,47,21
-38,47,21
-38,47,21
-38,47,21
-38,47,21
-38,47,22
-38,47,21
-38,47,21
-38,47,21
-38,47,22
-38,47,22
-38,47,21
-38,47,21
-38,47,22
-38,47,21
-38,47,22
-38,47,22
-38,47,21
-38,47,21
-38,47,22
-38,47,21
-38,47,21
-38,47,22
-38,47,22
-38,47,21
-38,47,22
-38,47,21
-38,47,21
-38,47,22
-38,47,22
-38,47,21
-38,47,22
-38,47,22
-38,47,21
-38,47,22
-38,47,22
-38,47,22
-37,47,21
-38,47,22
-38,48,21
-38,46,21
-38,47,23
-38,47,22
-37,47,22
-37,47,21
-38,47,21
-38,47,22
-38,47,22
-39,47,22
-37,47,22
-37,47,22
-39,47,21
-38,47,21
-37,47,21
-38,47,22
-38,47,22
-38,47,22
-38,47,22
-37,47,22
-37,47,22
-38,47,21
-38,47,22
-37,47,22
-38,47,22
-37,47,21
-38,47,22
-38,47,21
-38,47,22
-38,47,22
-38,47,22
-38,47,22
-37,47,22
-38,47,21
-38,47,21
-38,47,22
-38,47,22
-38,47,22
-38,47,22
-38,47,21
-38,47,21
-38,47,21
-38,47,21
-38,47,22
-38,47,21
-38,47,22
-38,47,22
-38,47,22
-38,47,21
-38,47,22
-38,47,22
-38,47,22
-38,47,21
-38,47,22
-37,47,21
-37,47,22
-37,47,22
-38,47,22
-38,47,22
-37,47,22
-38,47,21
-38,47,21
-38,47,21
-38,47,21
-38,47,21
-38,47,21
-38,47,21
-38,47,21
-38,47,22
-37,47,22
-37,47,22
-38,47,22
-38,47,21
-38,47,21
-38,47,21
-38,47,22
-38,47,22
-38,47,22
-37,47,22
-37,47,21
-38,47,22
-38,47,22
-38,46,22
-37,47,22
-38,48,21
-38,47,21
-38,46,22
-38,47,22
-38,47,22
-37,47,22
-37,47,22
-38,47,21
-38,47,22
-38,47,22
-38,47,22
-38,47,22
-38,47,22
-38,47,22
-38,47,21
-38,47,22
-37,47,22
-37,47,22
-38,47,22
-38,47,21
-38,47,21
-38,47,22
-38,47,21
-38,47,22
-37,47,22
-38,47,22
-38,47,22
-38,47,22
-38,47,22
-38,47,21
-37,47,22
-37,47,22
-38,47,21
-38,47,22
-39,47,21
-38,47,22
-37,47,22
-37,47,22
-37,47,22
-38,47,21
-38,47,22
-38,47,22
-38,47,22
-38,47,22
-38,47,22
-38,47,21
-38,47,22
-37,47,22
-37,47,22
-38,47,22
-38,47,21
-38,47,22
-38,47,21
-38,47,22
-38,47,22
-37,47,21
-38,47,21
-38,47,21
-38,47,22
-38,47,21
-38,47,22
-38,47,21
-38,47,22
-38,47,21
-38,47,21
-37,47,22
-37,47,22
-38,47,21
-38,47,22
-38,47,22
-38,47,22
-38,47,21
-38,47,21
-38,47,22
-37,47,22
-37,47,22
-38,47,22
-38,47,21
-38,47,21
-38,47,22
-37,47,22
-37,47,22
-38,47,22
-39,47,22
-38,47,22
-37,47,21
-38,47,21
-38,47,21
-38,47,21
-39,47,22
-38,47,23
-37,47,22
-37,47,22
-37,48,21
-39,47,21
-38,46,22
-38,46,22
-37,47,22
-38,47,21
-38,47,22
-38,47,21
-38,47,22
-38,47,22
-37,47,22
-38,47,22
-38,47,22
-38,47,22
-38,47,22
-38,47,22
-38,47,21
-38,47,22
-37,47,22
-38,47,21
-38,47,22
-39,47,22
-38,47,21
-37,47,21
-38,47,22
-38,47,21
-38,47,21
-38,47,22
-38,47,21
-38,47,21
-38,47,22
-38,47,22
-38,47,22
-38,47,21
-38,47,21
-38,47,21
-38,47,21
-38,47,21
-38,47,21
-38,47,21
-38,47,21
-38,47,22
-38,47,21
-38,47,22
-38,47,21
-38,47,21
-38,47,21
-38,47,21
-38,47,21
-38,47,22
-38,47,22
-38,47,21
-38,47,21
-38,47,21
-38,47,22
-38,47,21
-38,47,21
-38,47,21
-38,47,21
-38,47,21
-38,47,22
-38,47,22
-38,47,21
-38,47,21
-38,47,22
-38,47,21
-38,47,22
-38,47,21
-38,47,22
-38,47,22
-38,47,21
-38,47,21
-38,47,22
-38,47,22
-38,47,21
-38,47,22
-38,47,21
-38,47,21
-37,47,22
-38,47,22
-38,47,21
-38,47,22
-38,48,22
-38,47,21
-38,47,22
-38,47,22
-38,47,22
-38,47,22
-38,47,22
-38,47,21
-38,47,22
-38,47,22
-38,47,21
-38,47,21
-38,47,22
-38,47,22
-38,47,22
-38,47,22
-38,47,22
-38,47,22
-38,47,22
-38,47,22
-38,47,22
-38,47,22
-38,47,22
-38,47,22
-38,47,22
-38,47,21
-38,47,22
-38,47,22
-38,47,22
-38,47,21
-38,47,21
-38,47,21
-38,47,21
-38,47,22
-38,47,22
-38,47,21
-38,47,21
-38,47,21
-38,47,21
-38,47,22
-38,47,22
-38,47,22
-38,47,22
-38,47,21
-38,47,21
-38,47,21
-38,47,22
-38,47,22
-38,47,21
-38,47,21
-38,47,21
-38,47,21
-38,47,21
-38,47,21
-38,47,21
-38,47,21
-38,47,21
-38,47,21
-38,47,21
-38,47,22
-38,47,21
-38,47,21
-38,47,21
-38,47,21
-38,47,21
-38,47,21
-38,47,21
-38,47,21
-38,47,21
-38,47,21
-38,47,22
-37,47,22
-38,47,22
-38,47,21
-38,47,21
-38,47,21
-38,47,22
-38,47,21
-38,47,21
-38,47,22
-38,47,21
-38,47,21
-38,47,22
-38,47,22
-37,47,22
-38,47,21
-38,47,21
-38,47,21
-38,47,21
-38,47,22
-38,47,21
-38,47,21
-38,47,21
-38,47,21
-38,47,21
-38,47,21
-38,47,21
-38,47,22
-38,47,22
-38,47,21
-38,47,22
-38,47,22
-37,47,22
-38,47,21
-38,47,21
-38,47,21
-38,47,21
-38,47,22
-37,47,22
-38,47,22
-38,47,22
-38,47,21
-38,47,22
-38,47,21
-38,47,22
-38,47,21
-38,47,22
-38,47,22
-38,47,21
-38,47,22
-37,47,22
-38,47,21
-38,47,21
-38,47,21
-38,47,21
-38,47,21
-38,47,22
-38,47,22
-38,47,22
-38,47,21
-38,47,21
-38,47,22
-38,47,22
-38,47,22
-38,47,22
-38,47,21
-38,47,21
-38,47,21
-38,47,21
-38,47,21
-38,47,22
-38,47,21
-38,47,21
-38,47,21
-38,47,21
-38,47,21
-37,47,22
-38,47,21
-38,47,21
-38,47,21
-38,47,21
-38,47,21
-38,47,22
-38,47,21
-38,47,21
-37,47,21
-38,47,22
-38,47,21
-38,47,22
-38,47,22
-38,47,22
-38,47,21
-38,47,21
-38,47,22
-38,47,21
-38,47,21
-38,47,22
-38,47,22
-38,47,21
-38,47,21
-38,47,22
-38,47,21
-38,47,22
-38,47,22
-38,47,21
-38,47,22
-38,47,21
-38,47,21
-38,47,21
-38,47,22
-38,47,22
-38,47,22
-38,47,21
-38,47,22
-38,47,22
-38,47,21
-38,47,22
-38,47,21
-38,47,21
-38,47,21
-38,47,21
-38,47,22
-37,47,22
-38,47,21
-38,47,22
-38,47,21
-38,47,22
-38,47,21
-38,47,21
-38,47,22
-38,47,22
-38,47,22
-38,47,21
-38,47,22
-38,47,21
-38,47,22
-38,47,22
-38,47,22
-38,47,21
-38,47,21
-38,47,21
-38,47,21
-38,47,22
-38,47,22
-38,47,21
-38,47,21
-38,47,22
-38,47,22
-38,47,21
-38,47,22
-38,47,22
-37,47,22
-38,47,21
-38,47,21
-38,47,22
-38,47,22
-38,47,22
-38,47,22
-38,47,21
-38,47,21
-38,47,21
-38,47,21
-38,47,22
-38,47,22
-38,47,21
-38,47,22
-38,47,22
-38,47,22
-38,47,22
-38,47,21
-38,47,21
-38,47,22
-38,47,22
-38,47,21
-38,47,22
-38,47,22
-38,47,22
-37,47,22
-38,47,22
-38,47,21
-38,47,21
-38,47,21
-38,47,21
-37,47,22
-38,47,21
-37,47,22
-38,47,22
-38,47,21
-38,47,22
-38,47,21
-38,47,21
-38,47,22
-38,47,21
-38,47,21
-38,47,21
-38,47,22
-38,47,21
-38,47,22
-38,47,21
-38,47,21
-38,47,21
-38,47,21
-38,47,22
-38,47,21
-38,47,22
-38,47,22
-38,47,21
-38,47,21
-38,47,22
-38,47,21
-38,47,21
-38,47,21
-37,47,22
-38,47,21
-38,47,21
-38,47,22
-38,47,21
-38,47,21
-38,47,22
-38,47,22
-38,47,21
-38,47,21
-38,47,22
-38,47,22
-38,47,21
-38,47,22
-38,47,21
-38,47,22
-38,47,21
-38,47,21
-38,47,21
-38,47,22
-38,47,22
-38,47,22
-38,47,21
-38,47,22
-37,47,22
-38,47,21
-38,47,22
-38,47,21
-38,47,21
-38,47,22
-38,47,21
-38,47,21
-38,47,22
-38,47,22
-38,47,22
-38,47,22
-38,47,21
-38,47,21
-38,47,22
-38,47,22
-37,47,22
-38,47,21
-38,47,21
-38,47,22
-38,47,22
-37,47,22
-38,47,22
-38,47,21
-38,47,21
-37,47,22
-38,47,21
-38,47,21
-37,47,22
-38,47,21
-38,47,21
-38,47,22
-38,47,22
-38,47,21
-38,47,21
-38,47,22
-38,47,21
-38,47,21
-38,47,22
-38,47,21
-38,47,21
-38,47,22
-38,47,21
-38,47,21
-38,47,21
-38,47,22
-38,47,21
-38,47,21
-38,47,21
-38,47,21
-38,47,21
-38,47,21
-38,47,21
-38,47,21
-38,47,22
-38,47,22
-38,47,21
-38,47,21
-38,47,21
-38,47,21
-38,47,22
-38,47,22
-38,47,21
-38,47,21
-38,47,21
-38,47,21
-38,47,22
-38,47,21
-38,47,22
-38,47,21
-38,47,21
-37,47,22
-38,47,21
-38,47,21
-38,47,22
-38,47,21
-38,47,21
-38,47,21
-38,47,22
-38,47,21
-38,47,22
-38,47,22
-38,47,22
-38,47,21
-38,47,21
-38,47,22
-38,47,21
-38,47,22
-38,47,22
-38,47,21
-38,47,22
-38,47,21
-38,47,21
-38,47,21
-38,47,21
-37,47,21
-37,47,22
-38,47,21
-38,47,21
-38,47,22
-37,47,22
-38,47,22
-38,47,21
-38,47,21
-38,47,22
-38,47,21
-37,47,22
-38,47,22
-38,47,21
-38,47,21
-38,47,22
-38,47,22
-38,47,21
-38,47,22
-38,47,22
-38,47,22
-38,47,21
-38,47,21
-38,47,21
-38,47,22
-38,47,22
-38,47,22
-38,47,21
-38,47,21
-38,47,22
-38,47,21
-38,47,22
-38,47,22
-38,47,21
-38,47,21
-38,47,22
-38,47,21
-38,47,22
-38,47,22
-38,47,21
-38,47,21
-38,47,21
-38,47,21
-38,47,22
-38,47,21
-38,47,21
-37,47,22
-38,47,22
-38,47,21
-38,47,21
-38,47,22
-38,47,21
-38,47,21
-38,47,21
-38,47,22
-38,47,21
-38,47,21
-38,47,21
-38,47,21
-38,47,21
-38,47,21
-38,47,22
-38,47,21
-38,47,21
-38,47,21
-38,47,21
-38,47,21
-38,47,22
-38,47,21
-38,47,21
-38,47,21
-38,47,22
-38,47,21
-38,47,22
-38,47,21
-38,47,21
-38,47,21
-38,47,22
-38,47,21
-38,47,21
-38,47,21
-38,47,22
-37,47,22
-38,47,21
-38,47,21
-38,47,21
-38,47,21
-38,47,21
-38,47,22
-38,47,21
-38,47,21
-38,47,21
-38,47,21
-38,47,22
-38,47,22
-38,47,21
-38,47,21
-38,47,22
-38,47,22
-38,47,21
-38,47,21
-38,47,21
-38,47,22
-38,47,21
-38,47,21
-38,47,21
-38,47,22
-38,47,21
-38,47,22
-38,47,21
-38,47,21
-38,47,21
-38,47,22
-38,47,22
-38,47,22
-38,47,22
-38,47,21
-38,47,21
-38,47,22
-38,47,21
-38,47,22
-38,47,21
-38,47,22
-37,47,22
-38,47,21
-38,47,21
-38,47,22
-38,47,21
-38,47,22
-38,47,22
-38,47,21
-38,47,21
-38,47,21
-38,47,21
-37,47,22
-38,47,22
-38,47,21
-38,47,21
-38,47,21
-38,47,22
-38,47,22
-38,47,21
-38,47,21
-38,47,22
-37,47,22
-38,47,21
-38,47,21
-38,47,21
-38,47,21
-38,47,21
-37,47,21
-38,47,21
-38,47,21
-38,47,21
-38,47,22
-38,47,21
-38,47,21
-38,47,22
-38,47,21
-38,47,21
-38,47,22
-38,47,21
-38,47,21
-38,47,21
-38,47,22
-38,47,21
-38,47,21
-38,47,22
-38,47,21
-38,47,21
-38,47,22
-38,47,21
-38,47,21
-38,47,21
-38,47,21
-38,47,21
-38,47,21
-38,47,22
-38,47,22
-38,47,21
-38,47,22
-38,47,22
-38,47,21
-38,47,22
-38,47,22
-38,47,22
-38,47,21
-38,47,21
-38,47,21
-38,47,21
-38,47,22
-38,47,22
-38,47,21
-38,47,21
-38,47,21
-38,47,21
-38,47,22
-38,47,22
-38,47,21
-38,47,21
-38,47,22
-38,47,21
-38,47,21
-38,47,22
-38,47,21
-37,47,22
-38,47,21
-38,47,21
-38,47,22
-38,47,21
-38,47,22
-38,47,22
-38,47,21
-38,47,21
-38,47,21
-38,47,22
-38,47,21
-38,47,22
-38,47,21
-38,47,21
-38,47,22
-38,47,21
-38,47,22
-38,47,21
-38,47,22
-37,47,22
-38,47,21
-38,47,21
-38,47,21
-38,47,21
-37,47,22
-37,47,22
-38,47,22
-38,47,21
-38,47,21
-38,47,22
-38,47,21
-38,47,22
-38,47,22
-38,47,21
-38,47,21
-38,47,22
-38,47,21
-38,47,21
-38,47,21
-38,47,22
-38,47,22
-38,47,21
-37,47,22
-38,47,21
-38,47,21
-38,47,21
-38,47,21
-38,47,21
-38,47,21
-38,47,21
-38,47,22
-38,47,21
-38,47,21
-38,47,21
-38,47,21
-38,47,21
-38,47,21
-38,47,21
-38,47,21
-38,47,21
-37,47,22
-38,47,21
-38,47,21
-38,47,21
-38,47,21
-38,47,21
-38,47,21
-38,47,21
-38,47,21
-38,47,21
-38,47,21
-38,47,21
-38,47,21
-38,47,22
-38,47,21
-38,47,21
-38,47,22
-38,47,21
-38,47,21
-38,47,22
-38,47,21
-38,47,21
-38,47,21
-38,47,22
-38,47,21
-38,47,21
-38,47,21
-38,47,21
-38,47,21
-38,47,21
-38,47,22
-38,47,21
-38,47,21
-38,47,21
-38,47,21
-38,47,22
-38,47,22
-38,47,21
-38,47,21
-38,47,21
-38,47,22
-38,47,21
-38,47,21
-38,47,21
-38,47,22
-38,47,22
-38,47,21
-38,47,22
-38,47,21
-38,47,21
-38,47,21
-38,47,22
-38,47,21
-38,47,22
-38,47,22
-38,47,21
-38,47,22
-38,47,22
-38,47,21
-38,47,21
-38,47,22
-38,47,22
-38,47,21
-38,47,22
-38,47,22
-37,47,22
-37,47,22
-38,47,21
-38,47,21
-38,47,21
-38,47,21
-38,47,22
-37,47,22
-38,47,21
-38,47,21
-37,47,21
-38,47,21
-38,47,22
-38,47,22
-38,47,21
-38,47,21
-38,47,22
-38,47,22
-38,47,21
-38,47,21
-38,47,21
-38,47,21
-38,47,22
-38,47,22
-38,47,21
-38,47,21
-38,47,21
-38,47,22
-38,47,21
-38,47,22
-38,47,22
-38,47,21
-38,47,21
-38,47,22
-38,47,21
-38,47,21
-38,47,21
-38,47,22
-38,47,21
-38,47,21
-38,47,22
-38,47,21
-38,47,21
-38,47,22
-38,47,22
-37,47,22
-38,47,21
-38,47,22
-38,47,21
-38,47,22
-38,47,21
-38,47,21
-38,47,22
-38,47,21
-38,47,22
-38,47,21
-38,47,21
-38,47,22
-38,47,22
-38,47,22
-38,48,22
-38,47,21
-38,47,21
-38,47,22
-38,47,21
-38,47,21
-38,47,21
-38,47,21
-37,47,21
-38,47,22
-38,47,21
-37,47,22
-38,47,22
-38,47,21
-38,47,21
-38,47,22
-38,47,21
-38,47,21
-38,47,21
-37,47,22
-38,47,21
-38,47,21
-38,47,22
-38,47,21
-38,47,21
-38,47,22
-38,47,21
-38,47,21
-37,47,21
-37,47,21
-37,47,22
-38,47,21
-38,47,21
-38,47,22
-38,47,21
-38,47,21
-38,47,21
-38,47,21
-38,47,21
-38,47,21
-38,47,22
-38,47,22
-38,47,21
-38,47,22
-38,47,22
-38,47,21
-38,47,22
-38,47,21
-38,47,21
-37,47,21
-37,47,22
-38,47,21
-37,47,21
-37,47,22
-38,47,21
-38,47,21
-38,47,22
-38,47,21
-38,47,21
-38,47,21
-38,47,22
-38,47,21
-38,47,21
-38,47,21
-38,47,21
-38,47,21
-38,47,22
-38,47,21
-38,47,21
-38,47,21
-38,47,21
-38,47,21
-38,47,21
-38,47,22
-38,47,21
-38,47,21
-38,47,22
-38,47,21
-38,47,21
-38,47,21
-38,47,22
-38,47,21
-38,47,21
-38,47,21
-38,47,21
-38,47,21
-38,47,21
-38,48,22
-38,47,21
-38,47,21
-38,47,21
-38,47,21
-37,47,21
-38,47,22
-38,47,21
-38,47,21
-37,47,22
-38,47,21
-38,47,21
-38,47,22
-37,47,22
-37,47,21
-38,47,21
-38,47,21
-38,47,21
-38,47,21
-38,47,22
-38,47,22
-38,47,21
-38,47,21
-38,47,21
-38,47,22
-38,47,22
-38,47,22
-38,47,22
-38,47,21
-38,47,21
-38,47,21
-38,47,21
-38,47,21
-38,47,21
-38,47,22
-38,47,21
-38,47,21
-38,47,22
-38,47,21
-38,47,22
-38,47,22
-38,47,21
-38,47,21
-38,47,21
-38,47,21
-38,47,22
-38,47,22
-38,47,21
-38,47,21
-38,47,22
-38,47,21
-38,47,21
-38,47,21
-38,47,22
-38,47,21
-38,47,21
-38,47,21
-38,47,21
-38,47,21
-38,47,21
-38,47,21
-38,47,21
-38,47,21
-38,47,21
-38,47,22
-38,47,21
-38,47,21
-38,47,21
-38,47,21
-38,47,21
-38,47,21
-38,47,21
-38,47,21
-38,47,22
-38,47,22
-38,47,21
-38,47,21
-38,47,21
-38,47,21
-38,47,21
-38,47,22
-38,47,21
-38,47,21
-38,47,21
-38,47,21
-38,47,21
-38,47,21
-38,47,22
-38,47,21
-38,47,21
-38,47,21
-38,47,21
-38,47,22
-38,47,22
-38,47,21
-38,47,21
-38,47,22
-38,47,21
-38,47,22
-38,47,22
-38,47,21
-38,47,21
-38,47,22
-38,47,21
-38,47,22
-37,47,22
-38,47,21
-38,47,21
-38,47,21
-38,47,22
-38,47,21
-38,47,21
-38,47,21
-38,47,22
-38,47,21
-38,47,21
-38,47,21
-38,47,21
-38,47,22
-38,47,22
-38,47,21
-38,47,21
-38,47,21
-38,47,21
-38,47,22
-38,47,21
-38,47,21
-38,47,22
-37,47,22
-37,47,22
-38,47,22
-38,47,22
-38,47,21
-38,47,22
-38,47,22
-38,47,21
-38,47,22
-38,47,22
-38,47,21
-38,47,21
-38,47,22
-38,47,22
-38,47,21
-38,47,21
-37,47,21
-38,47,21
-38,47,22
-38,47,21
-38,47,21
-38,47,22
-38,47,21
-38,47,21
-38,47,21
-38,47,22
-38,47,22
-38,47,22
-38,47,21
-38,47,21
-38,47,21
-38,47,22
-38,47,22
-38,47,21
-38,47,21
-38,47,21
-38,47,21
-38,47,21
-38,47,21
-38,47,22
-38,47,21
-37,47,21
-37,47,22
-38,47,21
-38,47,21
-38,47,21
-38,47,22
-38,47,22
-38,47,21
-37,47,22
-38,47,22
-38,47,21
-38,47,22
-38,47,22
-38,47,21
-38,47,21
-38,47,21
-38,47,22
-38,47,22
-38,47,22
-38,47,21
-38,47,21
-38,47,22
-38,47,22
-38,47,22
-38,47,21
-38,47,21
-37,47,22
-37,47,22
-38,47,21
-38,47,21
-38,47,21
-38,47,21
-38,47,22
-38,47,22
-38,47,22
-38,47,21
-38,47,21
-38,47,22
-38,47,22
-37,47,22
-38,47,22
-38,47,22
-38,47,21
-38,47,21
-38,47,22
-38,47,22
-38,47,21
-38,47,21
-38,47,22
-38,47,22
-38,47,21
-38,47,22
-38,47,21
-37,47,22
-38,47,22
-38,47,21
-38,47,21
-38,47,21
-38,47,21
-37,47,22
-38,47,21
-38,47,22
-38,47,21
-38,47,21
-38,47,21
-38,47,21
-38,47,21
-38,47,22
-38,47,21
-38,47,21
-38,47,21
-38,47,22
-38,47,21
-38,47,21
-38,47,21
-38,47,21
-38,47,21
-38,47,22
-38,47,22
-38,47,21
-38,47,21
-38,47,21
-38,47,22
-37,47,22
-38,47,22
-38,47,21
-38,47,21
-38,47,21
-38,47,22
-38,47,22
-38,47,21
-38,47,21
-38,47,21
-37,47,22
-38,47,21
-38,47,21
-38,47,22
-38,47,21
-38,47,21
-38,47,22
-38,47,21
-38,47,21
-38,47,22
-38,47,21
-38,47,21
-38,47,22
-38,47,22
-38,47,21
-38,47,21
-38,47,21
-38,47,21
-38,47,22
-38,47,21
-38,47,21
-38,47,22
-37,47,21
-38,47,21
-38,47,21
-38,47,22
-38,47,21
-38,47,22
-38,47,21
-38,47,22
-38,47,21
-38,47,22
-38,47,22
-38,47,21
-38,47,21
-38,47,21
-38,47,21
-38,47,21
-38,47,21
-38,47,22
-38,47,22
-38,47,21
-38,47,22
-37,47,22
-38,47,21
-38,47,21
-38,47,21
-38,47,21
-37,47,22
-38,47,22
-38,47,21
-38,47,21
-38,47,21
-38,47,21
-38,47,22
-38,47,21
-38,47,22
-38,47,21
-38,47,21
-37,47,22
-38,47,21
-38,47,21
-38,47,21
-38,47,21
-38,47,22
-38,47,21
-38,47,21
-38,47,21
-38,47,21
-38,47,21
-38,47,22
-38,47,21
-38,47,21
-38,47,21
-38,47,21
-38,47,22
-38,47,22
-38,47,22
-38,47,21
-38,47,21
-38,47,22
-38,47,21
-38,47,21
-38,47,21
-38,47,22
-37,47,22
-38,47,21
-38,47,22
-38,47,22
-38,47,21
-38,47,22
-38,47,21
-38,47,21
-38,47,22
-38,47,21
-38,47,21
-38,47,22
-38,47,21
-38,47,22
-38,47,22
-38,47,21
-38,47,22
-38,47,21
-38,47,21
-37,47,22
-37,47,22
-38,47,21
-38,47,21
-38,47,22
-38,47,21
-38,47,22
-38,47,22
-38,47,21
-38,47,21
-38,47,21
-38,47,22
-37,47,21
-37,47,22
-38,47,22
-39,47,21
-36,47,22
-38,47,21
-38,47,21
-38,47,21
-38,47,22
-38,47,22
-38,47,21
-38,47,21
-38,47,22
-37,47,22
-37,47,23
-37,47,22
-38,47,21
-39,47,19
-38,48,20
-39,48,20
-39,48,21
-38,47,21
-38,47,21
-38,47,21
-37,47,22
-38,47,21
-39,47,20
-38,47,21
-38,47,21
-38,47,21
-38,47,21
-38,47,21
-38,47,21
-38,47,21
-38,47,21
-38,47,21
-38,47,20
-38,47,20
-38,47,21
-38,47,21
-38,47,21
-38,48,21
-38,47,21
-38,47,21
-37,47,21
-38,47,20
-39,47,21
-38,47,22
-38,47,22
-38,47,21
-38,47,20
-39,47,21
-38,47,21
-38,47,21
-39,47,21
-38,47,21
-38,47,21
-39,47,21
-38,47,21
-38,47,21
-39,47,21
-38,47,22
-38,47,20
-37,47,21
-38,47,21
-40,47,19
-41,47,19
-37,47,20
-34,48,26
-34,47,26
-39,46,21
-40,46,20
-40,46,21
-40,47,19
-40,47,19
-39,47,21
-37,47,21
-37,47,21
-38,47,21
-37,47,22
-38,47,22
-39,46,22
-39,46,21
-39,47,21
-39,46,20
-39,47,20
-38,47,21
-37,47,22
-37,48,22
-37,47,21
-37,47,21
-38,47,21
-39,47,21
-39,47,21
-39,46,21
-38,47,21
-38,47,21
-38,47,21
-38,47,21
-38,47,21
-38,47,21
-39,47,21
-38,47,21
-38,47,21
-39,47,21
-39,47,20
-38,47,21
-38,47,21
-38,47,21
-39,47,21
-39,47,21
-38,47,21
-38,47,21
-38,47,21
-38,47,22
-38,47,21
-38,47,21
-38,47,21
-38,47,21
-38,47,21
-39,47,21
-38,47,21
-38,47,21
-38,47,21
-38,47,21
-38,47,21
-38,47,21
-38,47,21
-38,47,21
-38,47,21
-38,47,21
-38,47,21
-38,47,21
-38,47,21
-38,47,21
-38,47,21
-38,47,21
-38,47,21
-39,47,21
-39,47,21
-38,47,21
-38,47,21
-38,47,21
-38,47,21
-38,47,21
-38,47,20
-38,47,20
-38,47,21
-38,47,21
-39,47,21
-38,47,21
-38,47,21
-38,47,21
-38,47,21
-38,47,21
-38,47,21
-38,47,21
-38,47,21
-38,47,21
-38,47,21
-38,47,21
-38,47,21
-38,47,21
-38,47,21
-38,47,21
-38,47,21
-38,47,21
-38,47,21
-38,47,21
-38,47,22
-38,47,20
-38,47,21
-38,47,21
-38,47,21
-38,47,21
-38,47,21
-38,47,21
-38,47,21
-38,47,21
-38,47,21
-38,47,21
-38,47,21
-38,47,21
-39,47,21
-39,47,21
-38,47,21
-38,47,21
-38,47,21
-39,47,21
-38,47,22
-38,47,21
-38,47,21
-38,47,21
-38,47,21
-38,47,21
-38,47,21
-38,47,21
-38,47,22
-38,47,21
-38,47,21
-38,47,21
-38,47,21
-38,47,21
-38,47,21
-38,47,21
-38,47,21
-38,47,21
-38,47,21
-38,47,21
-38,47,21
-38,47,21
-38,47,21
-38,47,21
-38,47,21
-38,47,21
-38,47,21
-38,47,21
-38,47,20
-38,47,21
-38,47,21
-38,47,21
-38,47,21
-38,47,21
-38,47,21
-38,47,21
-38,47,21
-38,47,21
-38,47,21
-38,47,21
-38,47,21
-38,47,21
-39,47,21
-38,47,21
-38,47,21
-38,47,21
-38,47,21
-38,47,21
-38,47,21
-38,47,21
-38,47,21
-38,47,21
-38,47,21
-38,47,21
-38,47,21
-39,47,21
-38,47,21
-38,47,21
-38,47,21
-38,47,21
-38,47,21
-39,47,21
-38,47,21
-38,47,21
-38,47,21
-38,47,21
-38,47,21
-39,47,21
-38,47,21
-38,47,21
-38,47,21
-38,47,21
-38,47,21
-38,47,21
-38,47,21
-38,47,21
-38,47,21
-38,47,21
-38,47,21
-38,47,21
-38,47,21
-38,47,21
-38,47,21
-38,47,21
-38,47,21
-38,47,21
-38,47,21
-38,47,21
-38,47,21
-38,47,21
-38,47,21
-38,47,21
-38,47,21
-38,47,21
-38,47,21
-38,47,22
-38,47,21
-38,47,21
-38,47,21
-38,47,21
-38,47,21
-38,47,21
-39,47,21
-38,47,21
-38,47,21
-39,47,20
-38,47,21
-38,47,21
-39,47,21
-38,47,21
-38,47,21
-38,47,21
-38,47,21
-38,47,21
-38,47,21
-38,47,21
-38,47,21
-38,47,21
-38,47,21
-38,47,21
-38,47,21
-38,47,21
-38,47,21
-38,47,21
-38,47,21
-38,47,21
-38,47,21
-38,47,21
-38,47,21
-38,47,21
-38,47,21
-38,47,21
-38,47,21
-38,47,21
-38,47,21
-38,47,21
-38,47,21
-38,47,21
-38,47,21
-38,47,21
-38,47,21
-38,47,21
-38,47,21
-38,47,21
-38,47,21
-38,47,21
-38,47,21
-38,47,21
-38,47,21
-38,47,21
-38,47,21
-38,47,21
-38,47,21
-38,47,21
-38,47,21
-38,47,21
-38,47,21
-38,47,21
-38,47,21
-38,47,21
-39,47,21
-38,47,21
-38,47,21
-38,47,21
-38,47,21
-38,47,21
-38,47,21
-38,47,21
-38,47,21
-38,47,21
-38,47,21
-38,47,21
-38,47,21
-38,47,21
-38,47,21
-38,47,21
-38,47,21
-38,47,21
-38,47,21
-38,47,21
-38,47,21
-38,47,21
-38,47,21
-38,47,21
-38,47,21
-38,47,21
-38,47,21
-38,47,21
-38,47,21
-38,47,21
-39,47,21
-38,47,21
-38,47,21
-38,47,21
-38,47,21
-38,47,21
-39,47,21
-38,47,21
-38,47,21
-38,47,21
-38,47,21
-38,47,21
-38,47,21
-38,47,21
-38,47,21
-38,47,21
-38,47,21
-38,47,21
-38,47,21
-38,47,21
-38,47,21
-39,47,21
-38,47,22
-38,47,21
-38,47,21
-38,47,21
-38,47,21
-38,47,21
-38,47,21
-38,47,21
-38,47,21
-38,47,21
-38,47,21
-38,47,21
-38,47,21
-38,47,22
-38,47,21
-38,47,21
-38,47,21
-38,47,21
-38,47,21
-38,47,21
-38,47,21
-38,47,21
-38,47,21
-38,47,21
-38,47,21
-38,47,21
-38,47,21
-38,47,21
-38,47,21
-38,47,21
-38,47,21
-38,47,21
-38,47,21
-38,47,21
-38,47,22
-38,47,21
-38,47,21
-38,47,21
-38,47,21
-38,47,21
-38,47,21
-38,47,21
-38,47,21
-38,47,22
-38,47,21
-38,47,21
-38,47,21
-38,47,21
-38,47,21
-38,47,22
-38,47,21
-38,47,21
-38,47,21
-38,47,21
-38,47,21
-38,47,21
-38,47,21
-38,47,21
-38,47,21
-38,47,21
-38,47,22
-38,47,21
-38,47,21
-38,47,21
-38,47,21
-38,47,22
-39,47,21
-38,47,21
-38,47,21
-38,47,21
-38,47,22
-38,47,22
-38,47,21
-38,47,21
-38,47,21
-38,47,21
-38,47,21
-38,47,21
-38,47,21
-38,47,21
-38,47,21
-38,47,22
-38,47,21
-38,47,21
-38,47,22
-38,47,21
-38,47,21
-38,47,21
-38,47,21
-38,47,21
-38,47,21
-38,47,22
-38,47,21
-38,47,21
-38,47,21
-38,47,21
-38,47,21
-38,47,21
-38,47,21
-38,47,21
-38,47,21
-38,47,21
-38,47,21
-38,47,21
-38,47,21
-38,47,22
-38,47,21
-39,47,21
-39,47,21
-38,47,21
-38,47,22
-38,47,22
-38,47,21
-38,47,21
-39,47,21
-38,47,21
-38,47,22
-38,47,21
-38,47,21
-38,47,21
-38,47,21
-38,47,21
-38,47,21
-38,47,21
-38,47,21
-38,47,21
-38,47,22
-38,47,21
-38,47,21
-38,47,21
-38,47,21
-38,47,21
-38,47,21
-38,47,21
-38,47,21
-38,47,21
-38,47,21
-38,47,21
-38,47,21
-38,47,21
-38,47,21
-38,47,21
-38,47,21
-38,47,21
-38,47,21
-38,47,21
-38,47,22
-38,47,21
-38,47,21
-38,47,21
-38,47,21
-38,47,21
-38,47,21
-38,47,21
-38,47,21
-38,47,21
-38,47,21
-38,47,21
-38,47,21
-38,47,21
-38,47,21
-38,47,21
-38,47,22
-38,47,21
-38,47,21
-38,47,21
-38,47,21
-38,47,21
-39,47,21
-38,47,21
-38,47,21
-38,47,22
-38,47,22
-38,47,21
-38,47,21
-38,47,21
-38,47,21
-38,47,21
-38,47,21
-38,47,21
-38,47,21
-38,47,21
-38,47,21
-38,47,21
-38,47,21
-38,47,21
-38,47,21
-38,47,21
-38,47,21
-38,47,21
-38,47,21
-38,47,21
-38,47,22
-38,47,21
-38,47,21
-38,47,21
-38,47,21
-38,47,21
-38,47,21
-38,47,21
-38,47,21
-38,47,21
-38,47,21
-38,47,21
-38,47,21
-38,47,21
-39,47,21
-38,47,22
-38,47,21
-38,47,21
-38,47,21
-38,47,22
-38,48,22
-38,47,21
-38,47,21
-39,47,21
-38,47,21
-38,47,21
-38,47,21
-38,47,21
-38,47,21
-38,47,21
-38,47,21
-38,47,21
-38,47,21
-38,47,21
-38,47,21
-38,47,21
-38,47,21
-38,47,22
-38,47,21
-39,47,21
-38,47,21
-38,47,21
-38,47,21
-38,47,22
-38,47,21
-38,47,21
-38,47,21
-38,47,21
-38,47,21
-38,47,21
-38,47,21
-38,47,21
-38,47,21
-38,47,21
-38,47,22
-38,47,21
-38,47,21
-38,47,21
-38,47,21
-38,47,22
-38,47,21
-38,47,21
-38,47,21
-38,47,21
-38,47,21
-38,47,22
-38,47,21
-38,47,21
-38,47,21
-38,47,21
-38,47,21
-38,47,21
-38,47,21
-38,47,21
-38,47,21
-38,47,21
-38,47,22
-38,47,20
-38,47,21
-38,47,21
-38,47,21
-38,47,22
-38,47,21
-38,47,21
-38,47,21
-38,47,22
-38,47,22
-38,47,21
-38,47,21
-38,47,21
-38,47,21
-38,47,21
-38,47,21
-38,47,21
-38,47,21
-38,47,21
-38,47,21
-38,47,21
-38,47,21
-38,47,21
-38,47,21
-38,47,22
-38,47,21
-38,47,21
-38,47,21
-38,47,21
-38,47,22
-38,47,22
-38,47,21
-38,47,21
-38,47,21
-38,47,22
-38,47,22
-38,47,21
-38,47,22
-38,47,21
-38,47,21
-38,47,21
-38,47,22
-38,47,22
-38,47,21
-38,47,21
-38,47,22
-38,47,22
-38,47,22
-38,47,21
-38,47,22
-38,47,21
-38,47,21
-38,47,22
-38,47,21
-38,47,21
-38,47,21
-38,47,22
-38,47,22
-38,47,21
-38,47,22
-38,47,22
-38,47,21
-38,47,22
-38,47,21
-38,47,21
-38,47,22
-38,47,22
-37,47,22
-38,47,21
-38,47,22
-38,47,21
-39,47,21
-39,47,21
-37,47,22
-37,47,21
-37,47,22
-38,47,21
-38,47,21
-39,47,21
-39,47,22
-38,47,21
-38,47,21
-38,47,21
-37,47,21
-37,47,21
-38,47,21
-38,47,22
-38,46,22
-38,47,21
-38,47,21
-38,47,21
-39,48,21
-39,48,22
-39,49,21
-40,47,21
-42,46,22
-42,46,22
-37,46,27
-34,46,29
-52,51,30
-45,40,26
-40,40,32
-32,38,34
-32,39,37
-32,39,40
-29,36,42
-29,33,43
-28,31,44
-26,29,45
-24,27,46
-26,28,45
-24,28,46
-22,31,47
-20,32,49
-23,32,51
-19,29,48
-17,32,47
-18,33,46
-16,38,44
-15,41,46
-17,44,46
-21,47,46
-24,45,50
-21,42,50
-17,36,47
-18,35,48
-21,34,51
-25,35,55
-25,35,55
-22,35,51
-20,36,49
-22,36,48
-23,36,48
-23,36,47
-22,35,45
-23,36,46
-27,36,47
-28,36,47
-27,36,45
-28,36,44
-28,36,44
-28,35,43
-29,35,43
-30,36,43
-30,36,43
-28,35,42
-29,36,43
-30,37,44
-28,37,43
-28,37,43
-29,38,44
-28,37,44
-28,37,44
-28,37,43
-30,37,43
-30,37,43
-30,37,43
-29,37,44
-29,36,44
-29,37,43
-30,37,43
-30,37,43
-29,37,43
-29,37,43
-29,37,44
-28,37,43
-29,37,43
-29,37,43
-28,38,44
-28,39,44
-28,37,43
-31,34,42
-31,37,43
-29,37,43
-27,37,44
-28,37,44
-29,37,43
-28,37,43
-28,37,43
-27,37,43
-29,36,43
-29,36,44
-32,37,42
-35,37,39
-35,36,39
-33,36,40
-33,36,41
-33,36,41
-33,37,41
-32,37,41
-31,37,41
-35,37,39
-36,37,39
-35,37,39
-35,37,41
-34,36,40
-33,37,41
-33,37,41
-33,37,40
-34,37,40
-34,36,40
-34,37,40
-33,36,39
-34,37,40
-33,37,40
-34,37,40
-34,37,41
-33,37,40
-34,37,40
-34,37,40
-34,37,41
-34,38,40
-34,37,40
-34,37,40
-34,37,39
-34,37,39
-35,36,38
-35,36,39
-34,37,38
-35,37,38
-35,38,38
-36,37,38
-38,39,38
-32,38,41
-30,38,42
-30,39,43
-29,38,43
-29,39,41
-29,38,41
-30,38,41
-28,37,41
-28,38,40
-29,38,41
-28,39,42
-29,39,38
-30,39,37
-30,39,38
-32,38,42
-33,38,42
-29,39,39
-32,37,34
-33,39,36
-36,39,42
-36,40,39
-34,41,38
-32,41,36
-33,40,36
-34,40,38
-34,39,37
-32,39,38
-32,40,38
-32,40,39
-32,40,39
-33,39,38
-34,39,38
-34,39,38
-33,39,38
-33,39,38
-33,40,38
-33,40,38
-32,39,38
-33,39,38
-33,39,38
-33,39,37
-33,39,38
-33,40,39
-32,39,38
-32,39,38
-33,40,38
-34,39,38
-34,39,38
-33,40,38
-33,40,38
-32,40,38
-33,39,39
-33,39,39
-32,39,38
-33,40,37
-34,40,38
-33,40,39
-33,40,38
-33,39,39
-33,39,39
-33,39,38
-33,39,37
-33,39,38
-33,39,39
-32,39,38
-32,39,38
-33,39,38
-33,39,38
-33,39,38
-33,39,38
-33,39,38
-33,39,38
-33,40,38
-33,40,38
-33,39,39
-33,39,38
-33,39,38
-33,39,38
-33,39,38
-33,40,38
-33,39,39
-33,39,38
-33,39,37
-33,40,37
-33,40,38
-33,40,38
-33,39,37
-33,39,38
-33,40,38
-33,40,40
-34,40,39
-34,40,38
-33,39,37
-32,39,36
-32,39,36
-33,40,38
-33,40,39
-32,40,40
-32,40,39
-32,40,38
-32,40,38
-32,40,38
-32,40,38
-32,40,38
-32,40,38
-32,40,38
-32,40,38
-32,40,38
-33,40,38
-33,40,38
-32,40,38
-32,40,38
-33,40,38
-32,40,38
-32,40,38
-33,40,38
-33,40,38
-32,40,38
-32,40,38
-33,40,38
-33,40,38
-33,40,38
-32,40,38
-33,40,38
-33,40,38
-32,40,38
-33,40,38
-33,40,38
-33,40,38
-33,40,38
-32,40,38
-32,40,38
-32,40,38
-32,40,38
-32,40,38
-33,40,38
-32,40,38
-33,40,38
-33,40,38
-33,40,38
-33,40,38
-33,40,38
-33,40,38
-33,40,38
-33,40,38
-33,40,38
-33,40,38
-32,40,38
-33,40,38
-33,40,38
-33,40,38
-32,40,37
-33,40,38
-33,40,38
-33,40,38
-33,40,38
-33,40,38
-33,40,38
-33,40,38
-33,40,38
-33,40,38
-33,40,38
-33,40,38
-33,40,38
-33,40,38
-33,40,38
-33,40,38
-33,40,38
-33,40,38
-32,40,38
-33,40,38
-32,40,38
-33,40,38
-33,40,38
-33,40,38
-33,40,38
-33,40,38
-33,40,38
-33,40,38
-32,40,38
-32,40,38
-33,40,38
-32,40,38
-32,40,38
-33,40,38
-32,39,38
-33,40,38
-33,40,38
-33,40,38
-33,40,38
-33,40,38
-33,40,38
-33,40,38
-33,40,38
-33,40,38
-33,39,38
-33,40,38
-33,39,37
-32,40,37
-33,40,38
-33,40,38
-33,40,38
-33,40,38
-33,40,38
-33,40,38
-33,40,38
-33,40,38
-33,40,38
-33,40,38
-33,40,38
-33,40,38
-33,40,37
-33,40,37
-33,40,38
-33,40,38
-33,40,38
-33,40,38
-33,40,38
-33,40,38
-33,40,37
-33,40,37
-33,40,38
-33,40,38
-33,40,38
-33,40,37
-33,40,37
-33,40,38
-33,40,38
-33,40,38
-33,40,38
-33,40,38
-33,40,38
-33,40,38
-33,40,38
-33,40,37
-33,40,37
-33,40,38
-33,40,38
-33,40,37
-33,40,37
-33,40,38
-33,40,38
-33,40,38
-33,40,38
-33,40,37
-33,40,37
-33,40,38
-33,40,37
-33,40,37
-33,40,38
-33,40,38
-33,40,38
-33,40,37
-33,40,37
-33,40,38
-33,40,38
-33,40,37
-33,39,38
-33,40,38
-33,40,37
-33,40,37
-33,40,38
-33,40,38
-33,40,37
-33,40,38
-33,40,38
-33,39,38
-33,39,37
-33,40,38
-34,40,38
-33,40,38
-33,40,38
-33,40,38
-33,40,37
-33,40,38
-33,40,38
-33,40,38
-33,40,38
-33,40,38
-33,40,37
-33,39,37
-33,39,37
-33,40,37
-33,40,37
-33,40,38
-33,40,37
-33,39,37
-33,40,38
-33,40,38
-33,40,38
-33,40,38
-33,39,38
-33,40,37
-33,40,37
-33,39,37
-33,40,38
-33,40,38
-33,40,38
-33,40,37
-33,40,38
-33,40,37
-33,40,38
-33,40,37
-33,40,38
-33,40,38
-33,40,38
-33,40,37
-33,40,38
-33,40,37
-33,40,37
-33,40,37
-33,40,37
-33,40,38
-33,40,37
-33,40,37
-33,40,38
-33,40,38
-33,40,37
-33,40,38
-33,40,38
-33,40,37
-33,40,37
-33,40,37
-33,40,37
-33,40,37
-33,40,37
-33,40,37
-33,40,37
-33,40,38
-33,40,38
-33,40,38
-33,40,37
-33,40,37
-33,40,37
-33,40,37
-33,39,37
-33,39,38
-33,40,37
-33,40,37
-33,40,38
-33,40,37
-33,40,37
-33,40,37
-33,40,38
-33,40,37
-33,40,37
-33,40,38
-33,39,37
-33,40,37
-34,40,37
-33,40,37
-33,40,37
-33,40,37
-33,40,38
-33,40,38
-34,40,37
-33,40,38
-33,40,37
-33,40,37
-33,40,37
-33,39,37
-33,40,37
-34,40,37
-33,40,37
-33,40,37
-34,40,38
-34,40,37
-33,40,37
-34,40,37
-34,40,37
-34,40,37
-34,40,37
-34,40,37
-34,40,37
-33,40,37
-34,40,37
-34,40,37
-34,40,37
-33,40,37
-34,39,37
-33,40,37
-33,40,37
-34,40,37
-33,40,37
-34,40,37
-34,39,37
-33,40,37
-34,40,37
-34,40,37
-34,40,37
-34,40,37
-34,40,37
-34,40,37
-34,40,37
-34,40,37
-34,40,37
-33,40,37
-34,40,37
-34,40,37
-33,40,37
-34,40,37
-34,40,37
-33,40,37
-34,40,37
-34,40,37
-33,40,37
-34,40,37
-34,40,37
-34,39,37
-34,40,37
-34,40,37
-34,40,37
-34,40,37
-34,40,37
-34,40,37
-34,40,37
-34,40,37
-34,40,37
-34,40,37
-34,40,37
-34,40,37
-34,40,37
-33,40,37
-33,40,37
-34,40,37
-34,40,37
-34,40,37
-34,40,37
-34,40,37
-34,39,37
-34,40,37
-34,40,37
-34,40,37
-33,40,37
-33,40,37
-34,40,37
-34,40,37
-34,40,37
-34,40,37
-34,40,37
-34,40,37
-34,39,37
-34,40,37
-34,40,37
-34,40,37
-34,40,37
-34,40,37
-34,40,37
-34,40,37
-34,40,37
-34,40,37
-34,40,37
-33,40,37
-34,40,37
-34,39,37
-34,40,37
-34,40,37
-34,40,37
-34,40,37
-34,40,37
-34,40,37
-34,40,37
-34,40,37
-34,40,37
-34,40,37
-34,40,37
-34,40,37
-34,40,37
-34,40,37
-34,40,37
-34,40,37
-34,40,37
-34,40,37
-34,40,37
-34,39,37
-34,39,37
-34,40,37
-34,40,37
-34,40,37
-34,40,37
-34,40,37
-34,40,37
-34,40,37
-34,40,37
-34,40,37
-34,40,37
-34,39,37
-34,40,37
-34,40,37
-34,40,37
-34,40,37
-34,40,37
-34,40,37
-34,40,37
-34,39,37
-34,40,37
-34,40,37
-34,40,37
-34,40,37
-34,40,37
-34,40,37
-34,40,37
-34,40,37
-34,40,37
-34,40,37
-33,40,37
-34,40,37
-34,40,37
-34,40,37
-34,40,37
-34,40,37
-33,41,35
-35,39,37
-35,38,39
-34,39,39
-30,39,39
-29,39,37
-32,40,38
-34,39,37
-35,40,38
-34,39,39
-32,38,38
-33,39,38
-34,39,38
-34,40,38
-34,39,38
-34,39,38
-35,38,38
-35,39,38
-34,39,38
-33,39,39
-31,39,40
-29,39,41
-35,39,37
-37,39,36
-38,40,35
-36,39,34
-35,39,35
-34,39,36
-33,40,37
-34,40,37
-34,40,36
-34,40,37
-34,40,37
-35,40,36
-34,40,36
-34,40,37
-34,40,37
-34,40,37
-34,40,36
-34,40,36
-35,40,37
-34,40,36
-34,40,37
-35,40,36
-34,39,36
-35,40,36
-35,40,36
-35,40,36
-35,40,36
-35,40,37
-35,40,36
-35,40,36
-35,40,37
-35,40,36
-35,40,36
-35,40,36
-35,40,36
-34,40,36
-35,40,36
-35,40,36
-35,39,36
-35,40,36
-35,40,36
-35,40,36
-35,40,36
-35,40,36
-35,40,36
-35,40,36
-35,40,36
-35,40,36
-35,40,36
-35,40,36
-35,40,36
-35,39,36
-35,40,36
-35,40,36
-35,40,36
-35,40,36
-35,40,36
-35,40,36
-35,40,36
-35,40,36
-35,40,36
-35,40,36
-35,40,36
-35,40,36
-35,40,36
-35,40,36
-35,40,35
-35,40,36
-35,40,36
-35,40,36
