1568073326.000000, 1568073326.000000, 1568073326.000000
32.000000, 32.000000, 32.000000
6,51,36
6,52,36
7,52,36
8,52,36
6,51,36
7,52,35
7,52,36
7,51,36
7,52,36
8,52,36
6,52,37
7,52,36
7,52,37
6,52,36
8,51,35
8,51,35
7,51,36
7,52,36
7,52,37
7,51,37
8,53,36
7,52,35
5,53,37
7,52,37
8,51,36
6,52,36
8,51,37
9,51,37
7,51,36
6,52,36
8,51,36
6,51,37
7,52,36
7,52,36
8,50,37
7,51,36
8,51,36
8,51,36
7,52,36
7,51,36
8,51,37
8,51,37
8,52,36
8,51,37
8,51,36
10,49,38
7,52,36
7,52,36
8,51,36
8,51,36
8,51,36
8,51,36
9,51,36
8,51,36
8,51,36
8,51,36
7,51,37
8,52,36
8,52,37
8,51,37
8,52,36
8,52,36
8,51,36
8,52,37
8,51,36
8,51,36
8,51,36
9,51,36
9,51,36
7,51,35
9,51,36
9,51,37
8,52,36
8,52,36
8,52,36
8,51,36
9,51,36
8,51,36
8,52,36
9,51,36
9,51,37
8,52,35
8,51,36
8,51,36
8,52,35
9,52,35
9,51,36
9,52,35
9,52,35
9,52,36
8,51,37
8,52,36
9,52,36
9,50,35
10,49,34
10,53,32
10,52,33
11,55,32
8,54,31
12,54,35
13,55,36
11,54,40
10,55,28
16,49,39
8,53,33
8,54,34
7,56,33
5,53,32
7,48,35
6,67,41
10,49,37
2,52,34
7,51,37
9,51,37
7,51,37
7,51,37
8,51,37
6,51,37
6,51,37
6,51,37
5,51,37
6,51,37
5,51,38
6,51,37
6,51,37
7,51,37
6,51,37
6,51,37
7,51,37
6,51,37
6,51,37
6,51,38
6,51,37
6,51,37
7,51,38
6,51,37
6,51,37
7,51,37
6,51,37
6,51,37
6,51,37
6,51,37
6,51,38
6,51,37
6,51,37
5,51,37
6,51,37
6,51,37
6,51,37
6,51,38
6,51,37
6,51,37
7,51,38
6,51,38
6,51,38
6,51,38
6,51,38
6,51,37
5,51,37
5,51,37
6,51,37
6,51,37
6,51,37
6,51,38
6,51,38
6,51,38
6,51,37
6,51,38
6,51,37
6,51,37
6,51,37
6,51,37
6,51,37
6,51,37
5,51,37
6,51,37
6,51,38
6,51,37
6,51,37
6,51,38
6,51,38
6,51,37
6,51,38
6,51,38
6,51,37
6,51,37
6,51,37
6,51,38
6,51,37
6,51,37
6,51,37
6,51,37
6,51,38
5,51,37
6,51,37
6,51,37
6,51,38
6,51,37
6,51,38
6,51,38
7,51,38
6,51,37
6,51,38
6,51,38
6,51,38
6,46,36
5,51,36
6,50,36
8,50,39
6,51,38
5,51,39
7,51,39
6,51,39
7,50,38
6,50,38
6,51,37
6,51,37
5,50,37
5,51,37
6,51,37
5,51,37
5,51,37
5,51,38
6,51,37
6,51,37
6,51,38
5,51,37
5,51,37
6,51,38
5,51,37
5,51,38
5,51,37
4,51,37
5,51,38
5,51,37
5,51,37
6,51,38
5,51,38
5,51,37
6,51,38
5,51,37
5,51,37
6,51,37
5,51,37
5,52,37
5,51,37
5,51,37
6,51,37
6,51,37
5,51,37
6,51,37
5,51,37
5,51,37
6,51,37
6,51,37
6,51,37
5,51,37
5,51,37
6,51,38
5,51,37
6,51,38
5,51,38
5,51,37
6,51,38
6,50,38
5,51,38
5,51,38
5,51,37
5,51,37
6,51,37
6,50,37
6,50,37
6,51,37
5,51,37
5,51,37
5,51,38
5,51,37
5,51,38
5,51,38
6,51,37
6,51,38
6,50,38
6,51,37
5,51,37
6,51,38
6,51,37
6,51,37
6,51,37
5,51,37
5,51,37
6,51,38
6,51,38
6,51,38
6,51,38
6,51,38
5,51,38
5,51,38
5,51,38
6,51,37
5,51,37
6,51,37
6,51,37
5,51,37
6,51,38
6,51,37
6,51,38
6,51,38
5,51,37
6,51,38
6,51,37
5,51,37
5,50,38
5,51,37
4,51,37
5,51,38
5,51,37
5,51,37
6,51,37
6,51,37
6,51,38
6,51,38
6,51,38
6,51,38
5,51,38
6,51,38
5,51,38
5,51,37
6,51,38
7,51,38
4,51,38
4,51,37
4,51,38
4,51,38
5,51,38
5,51,38
4,51,38
5,51,38
4,51,37
5,51,37
5,51,37
5,51,37
5,50,37
5,50,37
4,51,37
4,51,37
4,51,38
5,51,38
4,51,38
4,51,38
4,51,38
4,51,38
5,51,38
5,51,38
5,51,37
5,51,37
4,51,37
4,51,38
4,51,37
4,51,38
4,51,38
4,51,37
4,51,38
4,51,38
4,51,38
4,51,37
4,51,37
4,51,37
4,51,37
5,51,38
5,51,38
4,51,38
4,51,38
4,51,38
4,51,38
4,51,38
4,51,38
5,51,38
4,51,38
4,51,38
5,51,37
5,51,38
5,51,38
5,51,38
4,51,38
5,51,38
4,51,38
4,51,38
4,51,38
4,51,38
4,51,38
4,51,38
4,51,38
4,51,38
4,51,38
4,51,38
4,51,38
4,51,38
5,50,38
4,50,38
4,50,37
3,50,37
3,51,37
4,51,38
4,51,39
4,51,39
4,52,40
5,52,40
4,51,39
5,51,38
4,50,38
3,50,37
4,51,37
3,51,37
3,51,37
3,51,38
3,51,37
3,51,37
3,51,37
3,51,38
4,51,38
4,51,38
5,51,38
5,51,38
4,51,38
4,51,39
4,50,38
3,49,37
4,51,38
3,51,39
4,51,38
4,49,37
4,49,36
4,49,36
4,51,37
3,51,37
4,51,38
5,51,38
4,51,38
5,50,38
5,51,39
4,51,38
4,51,38
4,51,38
4,51,38
3,51,38
3,51,38
3,51,38
2,51,37
3,51,37
3,51,37
5,51,38
4,51,37
3,52,37
3,51,37
3,52,37
3,52,37
3,51,37
3,51,37
3,51,37
3,51,38
3,51,38
3,51,37
3,52,38
4,52,38
2,52,37
3,51,37
4,51,37
3,51,38
3,51,37
3,51,37
3,52,37
3,51,37
4,51,37
3,51,37
4,51,37
4,50,37
4,51,37
5,51,38
5,51,38
4,51,38
4,51,38
3,51,37
3,51,37
3,51,38
3,51,37
3,51,37
3,51,37
3,52,37
4,51,37
4,51,38
4,51,38
4,51,38
4,51,37
4,51,38
3,51,37
3,52,37
3,51,37
3,52,37
4,51,37
4,51,36
4,50,36
5,53,39
5,53,39
5,51,39
4,51,37
3,51,38
3,51,37
2,51,37
2,51,37
3,52,38
3,51,37
4,51,36
5,52,37
5,52,37
4,50,36
3,54,37
3,54,37
2,51,37
3,50,36
3,49,36
0,54,37
4,52,37
5,52,37
1,52,38
7,51,37
3,50,36
2,53,36
4,51,36
4,51,37
3,53,38
2,52,36
2,51,36
3,50,37
1,53,36
2,52,37
5,52,37
4,51,36
4,52,36
5,51,36
4,52,37
3,52,37
3,52,37
3,51,37
3,52,37
2,52,37
2,52,37
4,51,37
3,52,37
4,52,37
4,51,37
4,51,37
3,52,36
3,52,36
3,51,37
2,53,37
3,52,37
3,51,37
4,51,36
5,52,37
5,51,37
5,51,37
5,52,37
4,53,37
2,51,35
1,52,35
5,53,36
2,51,36
0,52,35
2,51,36
2,54,37
5,53,36
2,52,34
3,52,35
7,51,34
3,54,33
1,54,34
6,52,35
-4,53,32
-8,57,33
0,54,35
-5,51,33
-7,55,34
-5,54,34
-5,54,35
-10,54,35
-10,56,34
-7,55,35
-6,53,33
-10,54,28
-11,55,29
-10,55,28
-11,57,29
-11,56,32
-13,55,32
-15,57,31
-14,54,32
-14,54,31
-12,56,34
-13,55,33
-13,55,32
-15,55,31
-12,54,32
-13,55,31
-14,55,31
-16,55,29
-17,54,29
-13,53,30
-13,54,29
-14,54,29
-13,54,31
-13,54,31
-12,54,32
-13,54,31
-12,54,32
-12,54,32
-13,55,31
-12,54,32
-12,54,32
-14,54,31
-13,54,31
-14,54,31
-14,53,31
-14,54,31
-14,54,32
-13,54,31
-14,54,31
-13,54,31
-14,54,31
-13,54,32
-13,54,32
-14,55,32
-13,54,31
-12,54,32
-10,54,31
-10,53,30
-10,55,30
-13,55,28
-11,55,29
-7,56,31
-7,55,33
-6,55,33
-6,55,33
-6,54,32
1,56,34
2,56,31
4,56,28
5,57,27
3,58,23
6,59,21
3,61,20
-3,60,18
-7,58,18
-6,58,18
-4,60,19
-4,61,23
-6,62,24
-9,63,24
-8,64,26
-7,64,26
-6,63,27
-7,64,26
-10,64,25
-9,63,25
-9,61,23
-9,59,24
-9,58,24
-10,56,23
-12,55,23
-14,55,24
-13,57,26
-12,58,27
-14,58,26
-13,57,24
-12,57,24
-11,57,24
-10,57,24
-11,56,23
-11,56,24
-9,53,25
-7,54,26
-7,57,25
-10,60,25
-10,62,25
-12,63,25
-13,58,24
-11,56,25
-10,56,23
-12,57,22
-16,59,21
-17,59,22
-17,59,20
-18,59,19
-15,60,19
-13,60,20
-11,60,20
-14,59,17
-14,59,17
-14,59,17
-15,58,16
-16,58,16
-14,60,17
-13,60,19
-13,61,19
-14,62,19
-12,62,19
-12,61,18
-13,61,17
-13,62,17
-13,62,17
-14,61,16
-14,61,16
-14,61,17
-13,60,17
-14,59,17
-13,59,18
-13,59,17
-14,59,17
-14,58,17
-14,58,18
-15,58,18
-15,58,18
-15,59,18
-16,60,18
-15,61,18
-15,61,18
-16,60,17
-16,60,17
-16,60,17
-15,60,17
-15,60,17
-14,59,18
-15,59,19
-15,58,18
-15,59,19
-15,59,19
-15,59,19
-16,60,19
-16,60,19
-16,60,19
-16,60,18
-16,60,18
-16,60,18
-16,59,18
-15,59,18
-15,59,18
-15,60,18
-14,60,18
-14,60,18
-14,60,18
-14,59,18
-14,59,18
-14,59,18
-14,59,18
-14,59,18
-14,60,18
-15,59,18
-15,58,18
-17,57,18
-18,57,18
-19,57,17
-16,57,17
-18,59,17
-18,63,18
-18,63,17
-17,63,17
-16,61,17
-15,60,16
-16,60,16
-15,59,17
-14,59,18
-16,60,17
-15,60,18
-15,60,19
-16,60,18
-17,60,18
-17,61,18
-17,60,18
-16,61,20
-14,62,21
-14,62,21
-13,63,21
-14,62,20
-15,60,21
-13,59,23
-12,59,24
-13,59,26
-10,57,27
-10,56,28
-10,55,28
-10,55,27
-12,56,28
-12,55,29
-11,51,28
-8,52,29
-7,49,26
-10,50,26
-9,47,25
-10,47,26
-12,44,27
-10,49,30
-8,51,31
-9,55,30
-7,59,30
-7,59,31
-11,53,24
-9,58,24
-8,60,24
-9,64,24
-10,65,24
-12,65,23
-15,64,22
-14,65,22
-15,64,22
-15,61,20
-16,60,20
-16,60,21
-16,60,19
-17,60,19
-17,60,17
-15,59,17
-15,61,18
-13,60,19
-12,60,19
-12,59,19
-13,59,19
-15,55,16
-14,57,16
-13,57,17
-12,60,20
-10,62,21
-11,63,17
-13,64,17
-12,63,20
-11,61,20
-6,57,23
-13,59,22
-13,60,24
-15,60,19
-17,59,16
-15,61,16
-16,62,15
-17,62,13
-20,59,13
-17,59,16
-16,59,17
-17,59,17
-15,60,20
-16,60,20
-16,58,20
-16,60,21
-18,61,20
-16,59,22
-14,57,20
-16,57,18
-15,58,17
-13,60,13
-14,61,12
-11,62,15
-11,61,16
-13,60,17
-13,58,18
-14,59,20
-14,59,20
-15,59,18
-15,60,19
-14,60,18
-15,61,18
-16,60,16
-15,60,17
-15,60,17
-14,60,16
-14,60,17
-14,60,16
-14,59,17
-12,60,17
-13,60,17
-14,59,17
-13,60,17
-13,60,18
-13,60,18
-10,59,13
-11,63,18
-14,63,15
-12,64,20
-11,63,20
-12,62,19
-8,54,18
-11,61,17
-15,63,14
-11,60,17
-11,62,16
-12,63,18
-15,62,20
-12,56,16
-14,56,16
-14,59,17
-17,59,17
-21,63,16
-12,57,19
-14,58,19
-14,59,20
-14,58,20
-15,57,21
-16,58,21
-15,58,21
-13,59,22
-14,59,22
-16,59,21
-16,59,21
-15,59,21
-13,59,22
-15,59,21
-16,59,20
-14,59,21
-13,59,21
-14,59,21
-15,59,20
-12,58,21
-10,59,22
-15,59,20
-14,59,20
-14,59,20
-13,59,20
-14,59,19
-14,59,20
-12,59,20
-13,59,20
-16,59,19
-13,59,21
-13,59,21
-15,59,20
-15,59,20
-13,59,21
-14,59,21
-13,59,21
-12,59,21
-13,59,21
-14,59,20
-14,59,20
-13,59,20
-13,59,21
-13,59,21
-12,59,21
-10,59,22
-10,59,22
-13,59,21
-12,59,21
-11,59,21
-11,60,22
-12,60,21
-12,59,21
-12,59,21
-11,58,21
-11,58,21
-11,59,22
-12,59,22
-12,59,21
-11,59,21
-12,59,21
-13,59,21
-12,59,21
-11,58,22
-11,59,22
-12,59,21
-12,60,22
-11,59,22
-12,59,22
-12,59,22
-11,59,22
-11,59,22
-13,59,22
-12,59,22
-11,59,22
-12,59,22
-13,59,22
-12,59,22
-11,59,22
-12,59,22
-13,59,22
-12,59,23
-12,59,22
-12,59,22
-12,59,22
-12,59,22
-12,59,22
-12,59,22
-11,59,22
-12,59,22
-12,59,22
-11,59,22
-11,59,22
-12,59,22
-11,59,22
-11,59,22
-11,59,22
-12,59,22
-11,59,22
-11,59,22
-12,59,22
-12,59,23
-12,59,23
-13,59,23
-13,59,22
-13,58,23
-13,58,23
-13,59,22
-12,59,22
-12,59,22
-12,59,22
-12,59,22
-13,59,22
-11,59,23
-10,59,23
-11,59,23
-11,59,23
-11,59,23
-10,59,24
-9,59,23
-9,58,23
-9,58,23
-11,58,22
-11,58,22
-10,58,21
-11,58,21
-13,58,21
-13,58,22
-12,58,22
-12,58,23
-11,58,23
-13,59,22
-13,59,22
-11,59,22
-10,59,22
-10,59,22
-12,59,21
-17,59,18
-16,59,19
-10,59,22
-13,59,21
-14,60,21
-13,60,22
-11,59,22
-12,59,22
-13,59,21
-13,59,21
-12,59,21
-13,60,21
-14,59,20
-12,59,21
-9,59,22
-10,59,21
-12,59,21
-13,59,20
-12,58,20
-9,58,21
-13,58,19
-12,58,20
-11,59,21
-12,59,21
-13,59,21
-13,59,22
-11,59,23
-10,58,23
-11,59,23
-13,59,22
-13,59,22
-11,59,22
-12,59,22
-13,59,21
-12,59,21
-12,59,21
-11,59,22
-13,59,21
-11,59,22
-11,59,22
-13,59,21
-12,59,21
-11,59,22
-11,59,21
-12,59,21
-11,59,21
-11,59,21
-12,59,20
-12,59,21
-11,59,21
-11,59,21
-12,59,21
-11,59,21
-11,59,21
-12,59,21
-12,59,21
-11,59,21
-11,59,21
-13,59,21
-12,59,21
-11,59,22
-12,59,21
-12,59,22
-11,59,22
-11,59,22
-12,59,22
-11,59,22
-11,59,22
-11,59,21
-11,59,21
-11,59,21
-11,59,21
-12,59,21
-11,59,21
-11,59,21
-11,59,21
-12,59,22
-11,59,21
-12,59,21
-13,59,21
-13,59,21
-12,59,21
-12,59,21
-12,59,21
-12,59,22
-11,59,22
-12,59,22
-12,59,22
-13,59,21
-14,59,20
-12,59,21
-12,59,21
-12,59,21
-13,59,21
-12,59,22
-11,59,22
-13,60,22
-12,59,22
-11,59,22
-12,59,21
-12,59,21
-11,59,21
-12,59,21
-12,59,20
-12,59,21
-12,59,21
-12,59,21
-12,59,20
-13,59,20
-12,59,21
-13,59,20
-13,59,20
-12,59,20
-12,59,21
-12,59,20
-12,59,21
-11,59,21
-12,59,21
-12,59,20
-12,59,20
-12,59,20
-13,60,20
-13,60,20
-13,60,21
-12,59,21
-12,60,21
-12,59,20
-12,59,20
-12,59,20
-13,60,20
-13,60,20
-12,59,20
-13,60,20
-13,59,20
-12,59,20
-13,59,20
-13,59,20
-12,59,20
-12,59,21
-12,60,21
-12,60,21
-12,59,20
-14,60,20
-12,59,20
-12,59,20
-13,60,19
-12,60,19
-11,60,20
-12,60,19
-13,60,19
-12,59,20
-12,59,20
-13,59,20
-13,59,20
-12,59,21
-12,59,21
-13,59,20
-12,59,20
-12,59,20
-12,59,20
-12,59,19
-12,59,20
-12,59,20
-12,59,19
-12,59,20
-11,59,20
-11,59,21
-12,59,21
-12,59,21
-11,59,22
-12,59,21
-13,59,21
-11,59,21
-12,59,20
-13,59,20
-13,59,20
-12,59,21
-12,59,21
-13,59,20
-12,59,21
-12,59,21
-12,59,21
-12,59,21
-12,59,20
-13,59,20
-11,59,21
-12,59,21
-12,59,20
-12,59,21
-12,59,20
-12,59,20
-12,59,20
-12,59,20
-12,59,20
-12,59,20
-12,59,20
-13,59,20
-12,59,20
-12,59,20
-13,59,20
-12,60,20
-13,59,20
-12,59,20
-12,59,20
-12,59,20
-11,59,20
-12,60,20
-11,60,20
-12,60,20
-12,59,20
-12,59,20
-11,59,21
-12,59,21
-12,59,20
-13,59,20
-13,59,20
-12,59,21
-12,59,21
-13,59,21
-12,59,21
-11,60,22
-12,61,21
-12,61,22
-11,61,22
-11,60,21
-11,60,21
-11,59,21
-11,59,20
-12,59,20
-11,58,20
-11,58,19
-10,58,20
-11,58,19
-11,58,20
-11,58,20
-12,59,21
-12,59,21
-12,59,21
-12,60,21
-12,60,21
-12,60,21
-12,61,22
-12,60,21
-12,60,22
-11,60,22
-10,59,23
-11,59,22
-15,61,20
-13,61,20
-12,61,20
-16,61,19
-15,59,18
-12,58,19
-8,57,21
-11,57,20
-12,57,19
-13,56,18
-12,57,19
-13,59,19
-14,60,20
-15,61,20
-14,61,21
-14,60,21
-13,59,21
-13,59,20
-12,58,20
-12,58,19
-13,59,19
-12,60,19
-12,60,20
-12,60,20
-11,61,22
-11,60,22
-11,60,20
-11,60,20
-10,60,20
-11,60,20
-12,60,20
-12,61,19
-13,60,19
-13,59,19
-12,59,19
-12,60,19
-11,60,19
-12,61,19
-10,61,20
-10,61,19
-11,61,18
-12,59,18
-13,58,17
-14,58,16
-12,58,16
-12,59,17
-14,59,17
-15,59,17
-14,59,19
-14,59,20
-14,60,20
-14,61,22
-14,61,22
-14,62,22
-13,61,20
-12,61,20
-12,59,20
-12,59,20
-13,59,20
-14,59,21
-15,60,20
-15,60,21
-14,59,19
-13,59,18
-12,60,18
-12,60,17
-11,59,17
-11,58,17
-16,58,15
-12,58,18
-11,58,19
-11,59,21
-13,59,21
-13,59,22
-13,60,21
-14,61,22
-14,61,23
-15,60,22
-14,59,20
-14,58,19
-15,58,18
-16,58,18
-17,60,18
-16,61,20
-15,61,20
-16,60,20
-15,60,19
-14,59,19
-14,60,18
-13,59,18
-13,59,18
-13,58,17
-13,59,18
-12,59,18
-13,59,19
-13,59,19
-13,59,19
-13,58,20
-13,58,20
-13,58,20
-14,59,21
-15,60,21
-15,60,21
-15,61,21
-14,60,21
-15,60,20
-15,60,20
-13,60,20
-12,59,20
-12,59,20
-11,59,20
-11,59,20
-12,59,19
-10,58,21
-9,59,21
-9,59,21
-8,59,22
-10,59,22
-12,59,22
-14,59,22
-8,59,24
-14,58,20
-13,58,20
-10,59,20
-13,61,19
-13,61,19
-12,60,20
-11,59,19
-11,59,20
-11,58,20
-11,58,21
-11,59,22
-11,59,22
-12,60,21
-11,60,21
-10,59,20
-10,59,20
-10,59,19
-10,59,18
-11,60,18
-11,61,18
-10,61,18
-11,61,18
-11,61,17
-11,60,17
-10,60,17
-12,61,16
-13,62,16
-11,60,16
-11,60,18
-12,60,17
-13,60,18
-13,61,19
-13,61,20
-13,61,20
-12,60,19
-10,60,19
-8,59,19
-9,60,19
-9,60,19
-6,59,19
-7,59,18
-8,61,18
-7,59,17
-7,60,18
-8,62,17
-8,61,17
-8,61,18
-8,62,19
-8,62,19
-7,61,19
-7,61,19
-8,61,17
-7,61,16
-10,62,17
-8,62,18
-9,62,17
-9,60,18
-12,60,18
-12,62,18
-8,61,22
-7,61,18
-6,61,18
-6,59,19
-7,62,20
-5,61,19
-7,58,19
-5,59,21
-6,60,21
-7,60,22
-15,60,18
-4,54,23
-5,58,24
-6,58,23
-9,58,23
-7,59,24
-6,59,24
-5,59,24
-5,59,24
-4,59,24
-5,59,24
-5,59,24
-5,59,24
-5,59,24
-6,59,24
-5,59,24
-6,59,24
-7,59,24
-6,59,24
-6,59,24
-7,59,24
-7,58,24
-7,59,24
-7,58,24
-7,59,24
-7,58,24
-7,58,24
-7,58,24
-6,59,25
-7,59,25
-7,59,25
-6,58,25
-6,59,25
-6,58,25
-6,59,25
-6,59,25
-7,59,25
-7,59,24
-7,59,24
-7,58,24
-7,59,24
-7,59,24
-7,58,25
-7,58,24
-7,58,25
-7,58,24
-6,59,25
-7,59,25
-7,59,25
-6,59,25
-7,58,25
-7,59,25
-6,58,25
-7,58,25
-7,58,25
-6,58,25
-7,59,25
-7,58,25
-6,58,24
-6,58,25
-7,58,25
-7,58,24
-6,59,25
-6,58,25
-7,58,25
-7,58,24
-7,58,25
-7,58,25
-7,59,25
-7,58,25
-7,59,25
-7,58,25
-7,58,25
-6,58,25
-6,58,25
-6,58,25
-7,58,25
-7,58,25
-6,58,24
-7,58,24
-6,58,24
-5,58,25
-7,59,24
-9,59,23
-8,58,23
-6,58,23
-7,59,23
-9,59,23
-8,59,23
-8,59,24
-10,59,23
-9,59,23
-8,59,24
-9,60,24
-11,60,23
-11,60,23
-11,60,22
-9,59,22
-9,59,22
-11,58,21
-13,59,19
-14,59,19
-14,59,20
-14,59,20
-14,59,20
-13,59,21
-14,59,20
-14,59,21
-13,59,21
-12,59,22
-12,60,21
-13,60,21
-12,60,21
-12,60,20
-12,60,20
-11,60,20
-11,61,21
-11,60,22
-11,61,21
-11,61,21
-10,60,21
-10,59,20
-9,58,19
-9,58,18
-10,57,18
-10,57,18
-11,57,18
-11,57,19
-11,58,20
-12,59,21
-13,60,22
-14,60,23
-13,60,24
-12,60,24
-13,59,24
-12,58,23
-12,58,22
-13,59,22
-13,59,21
-14,59,20
-14,59,20
-14,59,20
-14,60,20
-13,60,20
-13,59,19
-13,60,19
-11,60,20
-10,60,20
-10,60,20
-10,61,21
-10,61,22
-9,61,22
-9,61,22
-9,60,21
-9,60,21
-9,60,20
-8,60,20
-8,60,20
-9,60,20
-10,59,20
-9,59,19
-10,58,20
-10,58,21
-10,59,21
-11,59,21
-11,59,21
-11,59,21
-11,59,21
-11,59,21
-11,58,21
-12,59,21
-12,59,21
-11,59,21
-11,59,21
-11,59,22
-11,59,22
-11,60,22
-11,60,23
-11,60,23
-10,60,23
-11,59,22
-11,59,22
-10,59,22
-11,59,20
-11,59,20
-10,59,20
-11,59,20
-11,59,19
-11,59,20
-11,59,20
-11,59,20
-10,59,20
-10,59,20
-10,59,21
-11,59,21
-10,59,20
-11,60,20
-10,60,22
-10,60,22
-11,60,22
-11,60,21
-11,60,22
-12,60,21
-11,59,20
-11,59,20
-12,58,19
-11,59,19
-12,60,19
-12,61,20
-12,61,19
-12,61,19
-11,61,20
-10,61,21
-10,61,22
-10,59,22
-11,59,22
-10,59,22
-9,59,22
-10,59,20
-11,59,19
-10,59,19
-11,59,18
-11,59,18
-11,60,18
-11,60,17
-11,60,17
-10,60,18
-10,60,19
-9,60,19
-9,60,20
-9,60,20
-8,60,21
-8,60,21
-8,60,21
-8,60,21
-8,60,21
-10,59,20
-10,59,19
-11,59,19
-11,59,19
-12,59,19
-14,60,19
-13,60,20
-13,60,20
-14,60,20
-14,60,20
-14,60,21
-13,60,20
-13,60,20
-12,60,21
-12,60,21
-12,61,21
-11,61,21
-12,60,21
-11,61,21
-11,61,21
-11,60,21
-10,60,21
-10,60,20
-10,60,20
-10,59,20
-10,59,19
-10,59,20
-10,59,20
-10,59,19
-10,58,19
-10,58,18
-10,57,19
-11,58,19
-11,58,19
-12,59,20
-12,59,21
-12,59,21
-13,59,22
-13,60,22
-13,60,22
-13,60,23
-13,60,23
-13,60,23
-14,60,22
-13,61,22
-12,60,22
-12,60,21
-12,59,20
-12,59,20
-12,59,20
-11,59,19
-11,59,19
-11,59,18
-11,58,18
-10,59,19
-11,59,19
-13,59,20
-13,59,20
-13,60,21
-14,60,22
-14,60,22
-14,60,22
-14,60,23
-13,61,22
-13,60,21
-13,60,20
-13,59,20
-12,59,19
-12,59,19
-12,59,19
-11,59,19
-11,59,19
-11,59,19
-10,59,19
-10,58,19
-10,58,19
-10,58,20
-11,58,20
-12,59,21
-13,60,21
-13,60,21
-13,60,21
-13,60,21
-13,60,22
-13,59,22
-14,59,21
-13,59,21
-13,59,22
-13,59,21
-13,59,21
-13,59,21
-13,59,21
-13,59,21
-13,59,20
-13,59,20
-13,59,20
-13,59,20
-12,59,20
-12,59,20
-12,59,19
-12,59,20
-12,59,20
-12,59,20
-12,59,21
-11,59,21
-12,59,20
-12,59,20
-12,59,20
-13,59,21
-13,60,21
-13,60,21
-13,59,21
-14,58,21
-14,59,21
-14,59,21
-14,60,21
-14,60,20
-13,59,20
-13,59,20
-13,59,20
-13,59,20
-12,59,20
-12,59,20
-13,59,20
-12,60,21
-12,60,21
-12,61,21
-11,61,22
-11,60,22
-11,58,21
-10,58,22
-9,57,22
-10,57,21
-11,57,19
-12,57,19
-12,59,19
-12,60,19
-14,63,19
-14,62,19
-13,61,19
-13,59,17
-12,59,19
-11,60,20
-11,61,22
-12,59,22
-12,59,23
-13,58,24
-12,59,24
-13,61,24
-14,62,23
-15,62,22
-14,62,21
-14,60,20
-14,59,19
-13,59,19
-11,58,19
-11,58,18
-11,57,17
-10,59,18
-10,59,17
-10,59,18
-10,58,20
-8,57,20
-8,57,21
-8,58,22
-8,60,23
-8,60,23
-9,62,23
-10,61,22
-11,61,21
-11,59,22
-11,58,21
-11,59,21
-12,59,22
-13,59,21
-13,58,21
-14,58,21
-15,58,20
-14,59,21
-13,61,21
-14,62,21
-13,61,22
-12,60,21
-12,58,21
-11,58,21
-11,59,20
-11,60,21
-10,61,21
-11,63,23
-10,60,24
-9,58,23
-9,57,22
-9,56,22
-8,57,22
-10,60,21
-10,59,21
-11,58,20
-13,57,19
-13,58,19
-12,58,19
-13,60,20
-14,60,20
-15,60,20
-14,60,21
-14,60,21
-12,59,22
-11,59,21
-12,60,21
-14,60,20
-15,59,20
-15,59,21
-13,59,22
-14,59,21
-14,60,21
-14,60,21
-12,59,22
-12,59,22
-13,58,21
-13,58,21
-13,58,21
-13,57,21
-15,58,20
-15,57,19
-15,57,19
-15,58,20
-17,58,20
-17,58,20
-16,58,21
-16,58,21
-17,58,22
-16,60,22
-17,60,22
-17,61,21
-17,62,21
-16,61,21
-14,60,22
-14,58,21
-14,58,21
-12,59,21
-12,61,20
-11,61,19
-11,61,18
-12,58,17
-12,57,17
-10,56,19
-11,55,19
-12,56,19
-12,57,21
-15,59,20
-15,60,20
-16,60,20
-17,59,19
-17,60,19
-16,60,20
-16,60,20
-16,60,20
-15,60,20
-16,59,20
-15,59,21
-14,59,21
-15,59,20
-15,59,21
-14,60,21
-14,60,21
-14,60,20
-14,59,19
-13,59,20
-13,58,19
-13,58,19
-13,58,19
-15,58,19
-15,58,20
-15,58,20
-15,60,21
-16,59,21
-16,60,21
-16,60,21
-15,60,20
-15,60,20
-14,59,20
-15,58,19
-14,59,19
-15,59,19
-15,59,19
-15,59,19
-15,60,19
-14,60,20
-14,60,20
-13,61,20
-14,58,22
-16,58,20
-16,57,21
-10,58,20
-12,57,18
-17,60,18
-13,61,18
-13,62,18
-14,61,19
-13,58,19
-13,57,19
-12,57,21
-12,56,21
-11,58,22
-14,59,22
-15,63,20
-14,63,21
-14,59,20
-12,57,23
-12,58,23
-13,59,22
-14,59,23
-15,60,22
-14,60,21
-14,59,21
-13,59,21
-13,58,21
-14,58,21
-12,59,21
-14,59,20
-14,59,19
-13,56,19
-14,57,20
-14,57,21
-15,59,21
-14,59,19
-14,59,18
-14,59,18
-16,58,17
-16,59,18
-16,59,19
-18,58,21
-17,59,22
-15,60,23
-16,60,22
-17,60,22
-17,59,22
-15,57,22
-15,57,22
-16,58,22
-18,59,20
-17,59,21
-16,60,21
-17,60,20
-17,60,20
-16,59,19
-16,59,19
-14,59,20
-14,59,20
-14,59,20
-14,59,20
-13,58,20
-12,59,21
-13,58,20
-13,60,20
-13,59,21
-13,59,21
-14,59,21
-14,57,21
-14,58,20
-15,58,21
-16,58,19
-16,58,19
-15,59,18
-15,59,19
-14,59,19
-15,57,19
-15,57,20
-15,58,21
-16,61,21
-16,61,21
-16,61,21
-14,60,22
-12,58,22
-12,58,21
-14,59,20
-15,59,20
-15,58,20
-15,60,20
-14,60,20
-14,61,19
-15,62,19
-16,62,20
-16,61,21
-18,60,22
-18,59,22
-16,59,22
-15,58,22
-14,58,21
-14,58,20
-14,58,19
-14,58,18
-14,58,17
-14,57,18
-15,56,17
-16,57,17
-17,57,18
-17,57,18
-18,58,19
-19,58,20
-19,59,20
-19,59,21
-20,59,21
-20,60,22
-19,60,22
-18,60,22
-18,59,21
-17,59,20
-16,58,20
-15,58,19
-14,59,19
-14,60,20
-14,59,19
-15,59,19
-13,60,21
-13,60,20
-14,59,20
-14,57,18
-14,58,18
-16,59,18
-16,60,19
-17,60,20
-17,59,20
-17,56,19
-16,56,20
-16,58,20
-16,59,21
-17,59,21
-17,59,21
-15,59,21
-15,59,22
-14,60,22
-13,60,21
-13,60,21
-12,60,21
-11,60,21
-11,59,21
-11,59,20
-11,59,20
-11,59,20
-12,59,20
-12,59,20
-13,60,19
-13,61,21
-13,60,21
-13,60,21
-13,60,22
-13,59,21
-13,59,20
-13,58,19
-14,57,18
-14,58,18
-15,58,18
-16,58,18
-17,60,19
-16,59,20
-16,59,21
-17,61,22
-16,61,23
-15,60,22
-14,61,22
-14,60,21
-13,60,20
-11,59,19
-10,59,18
-10,59,17
-10,58,18
-10,58,17
-10,58,16
-10,57,18
-10,57,19
-11,58,19
-13,59,19
-13,59,19
-14,60,19
-15,60,19
-16,60,19
-15,60,19
-15,60,20
-16,60,20
-16,60,20
-16,62,20
-16,63,21
-16,63,21
-14,62,22
-14,62,23
-13,60,22
-14,58,20
-13,57,20
-11,57,19
-13,58,18
-13,57,17
-14,57,17
-15,58,18
-15,58,18
-15,57,17
-16,58,17
-17,60,18
-17,60,18
-16,60,19
-15,60,19
-15,60,20
-14,59,21
-14,59,21
-14,59,21
-13,59,20
-13,59,20
-13,59,19
-13,60,19
-13,59,19
-14,61,19
-14,61,20
-14,61,20
-16,61,20
-16,60,20
-15,60,19
-15,59,17
-14,59,18
-13,59,17
-14,59,17
-13,60,18
-14,59,18
-14,59,18
-12,58,18
-13,58,18
-14,59,19
-14,59,19
-14,59,19
-14,59,19
-14,59,18
-15,59,19
-15,59,19
-15,59,19
-16,59,19
-16,59,19
-16,60,19
-17,60,20
-17,60,20
-17,61,20
-17,61,20
-17,60,20
-15,61,20
-15,62,20
-15,62,19
-15,61,19
-14,60,19
-14,59,18
-13,58,18
-12,57,18
-12,57,18
-12,57,18
-13,57,18
-14,58,18
-14,58,18
-14,59,19
-14,59,19
-14,59,19
-14,59,18
-15,59,19
-14,59,20
-15,59,20
-14,59,20
-14,60,20
-15,60,20
-14,60,20
-14,60,20
-14,60,20
-14,59,20
-14,59,19
-14,60,20
-14,61,20
-15,60,20
-14,59,20
-13,59,20
-13,59,19
-14,58,19
-14,58,20
-14,58,20
-16,59,19
-14,60,19
-14,60,19
-14,59,19
-12,59,19
-13,59,19
-13,59,19
-13,59,20
-13,59,20
-13,59,19
-12,59,20
-12,59,20
-12,59,20
-13,59,20
-13,59,20
-13,59,20
-14,59,20
-14,59,20
-15,59,19
-16,60,19
-16,59,19
-15,59,19
-16,59,19
-16,59,19
-16,59,19
-16,60,19
-15,60,20
-15,60,20
-15,59,20
-14,59,20
-14,59,20
-14,59,20
-14,59,20
-14,59,19
-14,59,19
-14,59,19
-15,59,19
-15,59,19
-15,59,19
-15,59,18
-15,59,19
-15,59,19
-15,59,19
-15,59,19
-15,59,19
-14,59,19
-15,59,20
-15,59,20
-14,59,20
-14,59,20
-14,59,20
-14,59,20
-14,59,20
-15,59,20
-14,59,20
-15,59,20
-15,59,19
-14,59,19
-15,59,19
-15,59,19
-15,59,19
-15,59,19
-15,59,19
-15,59,19
-15,59,19
-14,59,19
-14,59,19
-14,59,19
-15,59,19
-14,59,19
-15,59,19
-15,59,19
-14,59,19
-15,59,19
-15,59,18
-14,59,18
-15,59,18
-14,60,18
-14,59,18
-14,59,19
-15,59,18
-14,60,19
-14,59,19
-15,60,19
-14,59,19
-14,60,19
-14,59,18
-16,60,18
-15,60,18
-12,59,18
-13,60,20
-14,60,20
-14,60,19
-15,60,19
-15,60,19
-15,60,19
-15,60,19
-15,60,18
-15,60,18
-14,60,18
-14,60,18
-13,60,18
-13,60,18
-13,60,18
-13,60,18
-13,59,18
-13,60,18
-13,59,18
-13,60,18
-14,59,18
-14,59,18
-14,59,18
-14,59,19
-15,60,18
-15,59,19
-15,60,18
-16,59,18
-16,60,18
-15,60,19
-15,59,19
-15,59,19
-15,60,19
-15,59,19
-15,60,19
-15,59,18
-14,59,18
-15,60,18
-15,60,19
-15,59,18
-15,60,18
-14,59,18
-14,59,18
-14,59,18
-14,60,18
-14,59,18
-14,60,18
-14,59,18
-15,59,18
-15,60,18
-15,59,19
-15,59,19
-15,59,19
-16,60,18
-15,59,19
-15,60,19
-15,59,19
-15,60,19
-15,59,19
-15,60,19
-15,59,18
-15,59,18
-14,59,19
-15,59,18
-15,59,18
-14,59,18
-15,59,18
-14,59,18
-14,59,18
-15,59,18
-15,59,18
-14,59,18
-15,59,18
-15,59,18
-15,59,18
-15,59,18
-15,60,19
-15,59,19
-15,59,19
-15,59,19
-15,59,19
-15,59,19
-15,60,19
-15,60,18
-14,59,18
-14,59,18
-15,60,19
-15,60,19
-15,60,19
-15,59,19
-15,59,19
-14,59,20
-14,59,19
-14,59,19
-14,59,18
-14,59,18
-14,59,17
-14,59,17
-15,59,17
-15,59,18
-15,60,19
-16,60,20
-16,60,20
-15,59,20
-15,59,20
-15,59,19
-15,59,18
-15,59,18
-16,59,18
-16,59,19
-17,61,19
-17,61,20
-16,60,19
-15,59,19
-16,58,19
-16,58,19
-16,60,19
-16,60,18
-15,58,18
-15,58,18
-16,58,18
-16,60,18
-16,60,19
-16,60,19
-16,59,20
-15,59,19
-15,59,19
-16,60,19
-16,59,19
-16,59,19
-16,59,18
-16,59,18
-16,59,18
-17,58,18
-17,59,18
-16,59,19
-16,59,19
-16,59,19
-16,59,20
-16,59,19
-15,59,19
-15,59,19
-16,59,18
-15,59,19
-15,59,18
-16,59,18
-15,59,19
-16,59,19
-16,59,19
-15,60,19
-16,59,19
-15,60,19
-14,60,19
-15,60,19
-14,59,19
-14,59,19
-15,59,19
-14,59,19
-15,59,19
-16,59,19
-15,59,19
-16,59,18
-16,59,18
-16,59,18
-16,59,18
-15,59,18
-15,59,18
-15,59,18
-15,59,18
-14,59,18
-14,59,18
-14,59,18
-14,59,18
-15,59,18
-14,59,19
-15,59,19
-15,60,19
-16,59,18
-16,59,18
-15,59,18
-15,59,18
-15,60,18
-15,60,19
-15,60,18
-15,59,18
-15,60,18
-14,60,19
-14,60,18
-15,60,19
-14,60,19
-14,60,20
-15,60,19
-15,59,19
-15,59,19
-15,60,19
-15,60,18
-15,60,18
-15,59,18
-14,59,18
-15,59,18
-14,59,18
-14,59,18
-15,59,18
-14,60,19
-14,59,18
-14,59,19
-14,59,19
-14,59,19
-14,59,19
-14,59,19
-15,59,19
-14,59,19
-15,59,19
-15,59,19
-14,59,19
-14,59,19
-14,59,19
-15,59,19
-14,59,19
-14,60,19
-14,60,19
-14,59,19
-14,59,19
-14,59,19
-14,59,19
-15,59,19
-15,59,19
-15,59,19
-15,59,19
-15,59,19
-15,59,19
-15,59,19
-15,59,19
-14,59,19
-15,59,19
-15,59,19
-14,59,19
-14,59,19
-14,59,19
-15,59,19
-15,59,19
-15,59,19
-15,59,19
-15,59,19
-15,59,19
-15,59,19
-15,59,19
-15,59,19
-14,59,19
-15,59,19
-15,59,19
-15,60,19
-14,59,19
-15,59,19
-14,59,19
-15,59,19
-14,59,19
-14,59,19
-14,59,19
-14,59,19
-14,59,18
-14,59,19
-14,59,18
-15,60,18
-14,59,18
-15,59,19
-14,59,19
-14,59,19
-14,59,19
-15,59,19
-15,59,19
-15,59,19
-15,59,19
-14,60,19
-15,59,19
-15,59,19
-14,59,19
-15,59,18
-14,59,19
-14,60,19
-15,60,19
-14,59,19
-15,60,19
-14,59,19
-14,59,19
-15,59,19
-15,59,19
-14,59,19
-15,59,19
-15,59,19
-14,59,19
-14,59,19
-14,59,18
-14,59,18
-14,59,18
-14,59,19
-14,59,18
-14,59,19
-14,59,19
-15,59,19
-14,59,19
-15,60,19
-15,59,19
-15,59,19
-14,59,19
-14,59,19
-15,59,19
-15,60,19
-15,59,19
-15,59,19
-15,60,19
-15,60,19
-15,59,19
-15,59,19
-15,59,19
-15,59,19
-15,59,19
-15,59,19
-15,59,19
-15,59,18
-15,59,19
-15,59,19
-15,59,19
-15,59,19
-15,59,19
-15,59,19
-15,59,19
-15,59,19
-15,59,19
-15,59,19
-14,59,19
-14,59,19
-14,59,19
-15,59,19
-15,60,19
-16,60,20
-16,60,19
-17,59,19
-17,59,19
-17,60,19
-15,59,20
-13,59,20
-12,59,21
-12,59,21
-13,59,19
-17,57,18
-15,58,19
-14,58,18
-16,58,17
-16,59,17
-16,59,17
-18,59,17
-18,59,17
-18,58,17
-18,58,17
-18,58,18
-18,58,19
-20,59,19
-20,60,19
-19,60,20
-17,60,21
-16,60,21
-16,60,21
-14,60,20
-14,60,20
-14,59,19
-13,59,19
-15,59,18
-15,58,18
-17,58,17
-17,58,18
-17,59,18
-17,59,19
-17,59,18
-17,59,18
-16,60,18
-16,60,18
-15,62,18
-15,60,17
-15,59,17
-14,57,18
-14,56,18
-14,57,18
-15,59,19
-17,60,19
-18,60,19
-18,60,20
-18,59,20
-18,59,19
-18,59,20
-18,59,19
-18,59,19
-18,59,19
-17,59,18
-17,58,18
-17,58,18
-17,59,18
-16,59,18
-16,59,18
-16,60,18
-16,60,19
-16,60,19
-15,59,19
-15,59,19
-15,59,19
-15,59,19
-15,59,19
-15,58,19
-15,58,19
-15,59,19
-16,59,19
-17,59,19
-17,59,19
-17,59,19
-16,59,19
-16,59,19
-16,60,18
-15,59,18
-14,59,18
-15,59,19
-14,59,19
-15,59,19
-15,60,20
-15,59,20
-15,59,20
-15,59,19
-15,59,19
-15,59,19
-16,60,19
-15,59,19
-15,59,19
-16,59,18
-15,59,19
-16,59,18
-16,59,19
-16,59,18
-17,59,18
-16,59,19
-16,59,19
-16,59,19
-16,59,19
-16,59,19
-16,61,20
-14,59,18
-14,59,18
-14,57,19
-15,58,19
-17,59,18
-18,60,19
-18,61,20
-18,60,20
-17,59,20
-17,59,19
-17,59,19
-16,59,19
-16,59,18
-16,59,18
-15,60,18
-16,60,18
-15,60,18
-14,59,18
-14,59,17
-14,59,18
-14,59,18
-15,59,18
-15,59,18
-14,59,19
-15,59,19
-15,59,19
-15,59,19
-15,59,18
-15,59,18
-15,60,17
-15,60,17
-15,60,17
-15,62,17
-14,63,19
-15,62,20
-14,60,21
-13,57,21
-13,56,20
-13,56,20
-15,57,20
-16,58,19
-18,60,19
-19,60,18
-20,61,18
-18,60,19
-18,59,19
-18,59,19
-16,59,20
-16,59,20
-16,59,19
-15,59,19
-14,59,19
-14,60,18
-13,59,19
-13,59,19
-12,59,19
-12,59,19
-12,59,19
-13,58,20
-14,58,20
-14,59,20
-14,59,20
-16,59,21
-16,59,20
-16,58,20
-17,58,19
-17,58,19
-17,58,19
-17,59,19
-18,59,19
-18,60,20
-18,60,20
-18,61,20
-16,60,21
-16,60,21
-16,59,21
-15,58,21
-15,58,21
-15,58,20
-15,59,20
-15,60,19
-15,59,19
-16,59,18
-15,59,18
-15,59,18
-15,58,18
-15,58,18
-15,58,19
-16,58,18
-16,59,19
-16,59,20
-16,59,19
-16,58,20
-16,58,20
-16,58,20
-17,60,20
-17,60,19
-15,60,19
-10,60,21
-14,61,20
-21,61,16
-19,59,16
-16,59,17
-13,58,18
-15,58,17
-15,58,17
-15,59,17
-16,61,17
-16,60,17
-17,60,17
-17,59,16
-17,59,16
-17,60,16
-17,60,17
-17,61,18
-18,60,18
-18,61,18
-17,60,18
-17,59,18
-17,59,18
-16,59,18
-15,57,17
-15,57,16
-14,59,17
-14,60,18
-14,61,19
-15,62,19
-16,61,18
-16,61,18
-14,58,17
-12,60,18
-11,62,16
-11,60,15
-8,60,15
-8,59,13
-11,57,13
-13,58,12
-13,60,14
-13,60,16
-13,62,18
-14,62,18
-13,63,19
-13,64,20
-15,63,20
-16,62,19
-15,61,19
-16,61,18
-17,64,17
-16,63,17
-16,62,16
-15,61,15
-14,59,15
-13,59,15
-14,60,15
-14,62,15
-15,61,16
-14,62,17
-14,60,17
-15,62,16
-13,62,18
-13,53,20
-13,51,20
-12,53,23
-11,58,23
-14,60,24
-18,64,25
-16,59,24
-15,57,22
-12,55,23
-12,55,24
-12,55,25
-11,54,26
-10,53,27
-10,54,27
-11,54,27
-11,54,26
-13,55,25
-12,56,25
-13,56,24
-13,55,25
-15,54,27
-13,54,28
-9,54,29
-12,54,25
-14,56,23
-15,58,23
-15,58,23
-16,60,23
-17,62,23
-19,63,20
-19,64,20
-14,63,21
-12,63,20
-12,63,19
-12,63,18
-11,64,17
-10,64,17
-12,63,13
-13,63,12
-13,63,11
-14,63,10
-15,62,10
-15,61,11
-15,59,11
-14,57,14
-13,56,16
-11,53,19
-11,52,21
-11,52,20
-14,57,22
-15,63,25
-16,64,26
-17,63,26
-15,62,26
-15,60,26
-17,57,23
-17,57,23
-17,57,22
-18,57,21
-17,56,21
-18,56,20
-18,55,19
-18,56,19
-18,56,19
-18,57,19
-18,57,21
-17,57,22
-18,57,21
-17,58,22
-17,59,23
-17,58,23
-18,58,22
-18,59,22
-18,58,21
-18,57,20
-17,57,20
-16,57,20
-16,57,20
-16,57,20
-16,59,20
-16,60,20
-16,62,21
-15,63,21
-15,63,21
-14,62,22
-14,61,21
-14,60,21
-14,59,21
-14,58,19
-15,57,19
-15,57,19
-16,57,19
-17,57,19
-17,57,20
-18,57,20
-18,57,20
-18,57,20
-17,57,21
-17,57,21
-17,58,22
-16,59,22
-17,60,22
-16,59,22
-16,59,21
-16,59,20
-17,59,18
-16,59,18
-16,59,18
-15,59,18
-15,59,19
-15,58,19
-15,57,18
-15,57,19
-14,58,20
-15,58,20
-16,58,20
-16,59,20
-16,59,22
-17,59,21
-17,59,21
-16,59,22
-17,60,20
-16,60,21
-15,59,21
-15,59,20
-16,59,20
-16,59,20
-15,59,20
-15,59,20
-15,59,20
-15,60,19
-14,60,19
-14,59,20
-14,58,20
-14,58,20
-14,59,21
-14,59,21
-13,58,20
-13,58,20
-13,58,19
-13,58,19
-14,58,19
-14,58,20
-15,59,20
-16,59,20
-16,59,20
-15,59,21
-15,59,22
-16,59,22
-16,59,22
-16,59,21
-16,59,20
-15,59,20
-16,58,20
-16,59,19
-16,59,18
-16,60,19
-16,60,20
-15,59,22
-15,60,22
-15,59,21
-15,58,18
-14,59,19
-14,58,18
-16,57,17
-16,59,19
-16,60,21
-15,62,23
-15,60,21
-15,60,20
-14,60,20
-13,59,18
-14,59,18
-14,58,17
-15,57,17
-15,57,17
-15,57,17
-16,57,18
-16,58,18
-18,59,20
-18,59,20
-19,59,20
-19,59,20
-17,61,21
-17,61,21
-18,61,20
-17,60,20
-16,60,21
-14,59,21
-13,59,20
-13,59,20
-13,59,20
-13,59,19
-13,59,19
-14,58,18
-14,58,18
-14,58,18
-15,58,18
-15,58,19
-16,58,19
-17,58,20
-17,59,20
-18,59,20
-18,58,20
-18,59,20
-18,58,19
-18,59,19
-18,59,19
-18,59,20
-17,59,19
-17,59,19
-17,59,19
-17,59,20
-17,59,20
-18,59,20
-18,59,20
-18,60,20
-18,60,21
-18,60,21
-18,60,21
-17,60,22
-15,58,22
-15,58,22
-15,58,21
-15,57,20
-15,57,19
-14,57,19
-14,56,18
-14,56,19
-14,56,19
-15,57,19
-15,57,20
-16,58,21
-16,57,21
-16,57,21
-16,58,22
-17,59,23
-17,59,24
-17,59,23
-19,59,23
-19,59,23
-15,59,23
-16,58,22
-16,58,22
-15,57,21
-13,57,21
-14,56,19
-16,57,15
-16,56,17
-15,56,17
-16,58,17
-16,60,18
-17,60,20
-17,61,20
-17,61,21
-17,61,21
-17,60,22
-18,60,22
-19,60,20
-17,60,20
-17,60,20
-16,60,19
-15,60,20
-15,60,20
-15,60,18
-16,58,19
-15,57,19
-15,57,18
-16,58,18
-16,58,19
-18,58,18
-17,59,18
-17,59,19
-15,59,19
-15,60,21
-15,59,21
-15,59,21
-14,59,20
-15,59,19
-15,59,18
-14,57,18
-14,56,17
-14,56,18
-14,57,17
-14,58,17
-15,60,17
-15,61,17
-15,61,18
-15,60,19
-16,60,19
-16,61,20
-16,61,22
-14,61,22
-13,61,22
-12,61,20
-11,59,19
-11,58,18
-12,57,17
-12,57,16
-13,56,16
-13,58,16
-14,60,16
-14,61,16
-14,61,16
-14,60,16
-14,60,17
-13,61,18
-14,61,18
-14,61,18
-14,61,18
-15,61,19
-15,60,19
-15,60,19
-15,60,19
-14,61,20
-16,63,19
-16,62,20
-15,61,21
-14,60,20
-15,60,18
-14,60,17
-15,59,16
-16,59,14
-16,59,14
-14,59,14
-15,59,14
-15,59,15
-15,59,16
-15,59,16
-16,59,17
-16,60,18
-17,59,18
-16,58,18
-15,58,18
-16,58,18
-15,59,18
-16,60,18
-16,61,19
-16,61,19
-16,60,18
-16,60,18
-15,60,18
-15,60,18
-15,60,18
-16,60,18
-17,59,18
-17,60,18
-17,60,19
-16,59,19
-17,59,19
-17,59,18
-17,59,18
-17,60,18
-17,60,18
-17,60,19
-17,59,18
-17,59,18
-17,59,19
-17,59,19
-17,59,20
-17,59,21
-17,59,21
-16,58,21
-16,57,20
-16,56,20
-16,56,20
-16,57,20
-17,57,20
-17,58,21
-18,58,21
-18,58,20
-18,57,20
-18,57,20
-18,57,20
-18,57,20
-18,58,20
-18,58,21
-18,57,20
-19,57,20
-19,59,20
-18,58,20
-17,58,21
-17,59,21
-16,58,22
-16,59,21
-17,59,22
-16,58,21
-16,58,21
-17,57,21
-17,57,20
-17,58,20
-17,58,19
-17,58,19
-17,57,19
-18,59,20
-17,59,22
-17,60,22
-18,61,22
-16,60,23
-15,58,23
-17,57,22
-16,57,22
-16,57,22
-17,56,20
-17,57,20
-17,57,19
-18,57,18
-18,57,18
-18,57,18
-17,57,19
-17,58,20
-17,58,20
-17,58,21
-17,59,22
-18,59,23
-18,59,24
-18,58,24
-18,58,23
-18,58,23
-17,58,22
-17,59,22
-17,61,20
-17,61,19
-16,60,19
-16,59,19
-16,58,20
-16,58,20
-16,58,22
-16,59,23
-16,59,23
-16,58,23
-16,56,22
-17,56,22
-18,57,21
-18,58,20
-19,58,21
-18,57,20
-19,57,19
-18,56,20
-18,56,20
-18,57,20
-17,57,21
-17,57,21
-17,57,22
-17,57,21
-17,57,22
-17,58,22
-17,58,22
-17,59,23
-17,59,23
-17,59,23
-17,59,23
-17,59,23
-17,58,22
-16,58,21
-16,57,21
-15,58,21
-15,58,20
-16,57,19
-15,58,20
-16,59,20
-16,59,20
-16,58,21
-16,58,21
-17,58,21
-17,58,21
-18,58,21
-18,57,22
-18,58,21
-17,59,22
-16,59,22
-15,59,21
-15,58,22
-15,58,22
-15,58,23
-17,58,22
-17,58,22
-17,57,21
-16,57,20
-16,57,20
-17,58,20
-17,58,21
-17,58,21
-17,58,22
-18,58,22
-19,58,22
-17,57,21
-17,56,21
-17,58,21
-17,58,21
-17,58,21
-17,58,22
-17,58,23
-17,57,23
-17,57,22
-17,58,21
-17,58,21
-18,58,21
-18,59,21
-18,59,22
-18,58,21
-18,59,22
-18,58,22
-18,58,21
-17,58,22
-17,58,22
-17,57,21
-16,58,22
-16,57,22
-17,57,21
-16,56,21
-15,55,20
-16,55,19
-17,55,19
-17,55,19
-18,55,18
-19,57,18
-18,58,19
-18,60,19
-19,60,20
-19,61,21
-18,61,22
-17,61,22
-17,59,22
-17,58,22
-17,59,21
-17,60,21
-17,60,21
-18,59,20
-18,58,20
-18,58,19
-19,59,19
-19,59,18
-19,57,17
-19,57,17
-18,57,18
-19,57,17
-19,58,17
-18,59,18
-18,62,19
-15,62,21
-15,61,21
-15,61,21
-14,59,19
-14,58,19
-14,56,17
-14,56,17
-15,56,17
-17,57,17
-17,60,19
-17,60,19
-18,62,20
-16,64,23
-15,63,23
-14,61,23
-13,61,23
-13,61,21
-13,61,19
-12,61,18
-12,58,18
-13,55,16
-12,55,16
-13,56,18
-13,57,19
-14,58,21
-14,58,21
-15,59,21
-15,59,20
-16,59,20
-16,58,19
-16,58,19
-16,58,20
-15,59,21
-15,59,21
-16,59,21
-16,59,21
-16,59,21
-16,60,20
-16,60,20
-16,60,20
-15,60,20
-15,61,20
-14,60,20
-15,60,20
-14,59,19
-14,58,19
-14,57,18
-14,57,17
-14,58,17
-14,58,18
-15,59,19
-15,59,19
-15,60,20
-15,61,21
-16,61,20
-16,60,20
-15,60,19
-15,60,20
-13,59,19
-16,59,19
-15,59,19
-15,60,18
-15,59,17
-16,59,17
-16,58,17
-14,59,19
-14,59,19
-15,60,19
-15,61,20
-15,61,20
-15,60,19
-14,59,18
-14,59,18
-15,59,18
-14,59,18
-14,59,18
-14,60,18
-15,60,19
-15,60,19
-14,60,19
-15,60,19
-15,59,19
-15,59,19
-14,59,18
-15,59,19
-14,59,20
-14,60,20
-15,60,21
-14,58,21
-14,57,21
-14,59,20
-14,60,19
-14,61,20
-13,60,20
-12,58,21
-12,57,21
-12,57,21
-13,58,21
-14,58,21
-15,59,20
-15,59,21
-16,59,21
-16,59,21
-15,58,21
-15,59,22
-16,59,22
-15,59,22
-15,59,22
-15,59,21
-15,58,21
-14,58,21
-15,58,21
-15,57,20
-14,57,19
-15,58,18
-14,58,18
-14,58,18
-14,57,17
-14,58,18
-15,59,18
-15,60,19
-16,62,21
-17,62,22
-17,62,22
-16,60,23
-15,60,23
-14,60,23
-15,61,21
-15,61,21
-14,60,20
-13,58,19
-12,57,18
-12,57,18
-13,57,18
-13,57,17
-14,57,17
-14,57,18
-14,57,18
-15,58,19
-15,58,19
-16,59,20
-17,60,20
-17,60,20
-16,60,21
-15,60,22
-15,60,22
-15,59,21
-16,59,20
-16,59,20
-15,59,20
-16,59,19
-16,59,18
-16,59,18
-17,60,19
-16,61,19
-17,61,19
-17,60,19
-17,59,19
-15,57,19
-14,57,19
-14,57,19
-15,58,19
-15,58,19
-16,59,19
-16,59,19
-17,59,20
-17,59,20
-17,58,21
-17,58,21
-17,58,21
-17,58,20
-18,58,20
-18,59,19
-18,59,19
-18,59,19
-18,59,19
-18,58,19
-18,59,19
-19,59,19
-19,59,19
-19,61,21
-19,60,23
-16,57,24
-17,58,24
-17,58,22
-17,59,19
-16,57,17
-16,56,17
-15,57,16
-15,58,16
-15,59,16
-16,59,17
-16,59,17
-16,59,18
-15,58,20
-16,58,22
-17,58,21
-18,58,21
-17,58,22
-17,61,22
-17,66,24
-17,66,25
-18,61,24
-19,58,24
-18,56,23
-17,55,22
-17,55,22
-16,55,20
-18,57,18
-16,58,18
-16,59,17
-17,59,16
-14,58,16
-14,58,17
-14,58,17
-14,59,17
-13,59,18
-12,58,19
-12,57,20
-12,57,20
-12,57,20
-13,57,19
-14,58,19
-14,59,20
-16,60,20
-15,59,21
-17,60,19
-18,60,19
-18,61,19
-19,63,21
-19,63,22
-19,63,22
-18,62,22
-17,62,22
-17,61,22
-15,60,23
-15,59,21
-15,58,20
-14,57,19
-14,57,18
-14,57,17
-13,57,17
-14,57,17
-14,57,17
-14,57,17
-14,57,18
-14,57,19
-15,58,20
-15,59,20
-15,59,21
-15,59,22
-16,58,22
-15,58,22
-16,58,23
-16,59,23
-16,59,23
-17,60,23
-16,60,22
-15,58,21
-15,58,20
-15,57,19
-15,58,18
-14,57,18
-15,57,19
-15,58,19
-17,59,19
-17,59,19
-17,60,19
-16,60,19
-15,59,19
-15,59,20
-15,59,19
-15,59,20
-15,60,20
-15,60,20
-15,60,20
-15,59,20
-15,59,20
-16,59,19
-16,59,19
-16,58,18
-16,58,18
-17,58,18
-17,58,18
-17,58,18
-17,58,17
-18,59,17
-18,58,17
-18,58,17
-18,59,18
-18,59,18
-18,60,19
-18,60,20
-18,60,20
-19,60,20
-18,60,20
-18,59,20
-17,59,20
-16,59,20
-17,59,19
-18,59,17
-18,59,17
-18,59,17
-17,59,18
-18,59,18
-18,59,18
-16,59,18
-16,59,18
-15,59,18
-14,59,18
-14,59,18
-14,59,19
-14,59,19
-14,59,19
-14,59,19
-15,59,19
-15,59,19
-15,59,19
-16,58,19
-17,58,19
-17,59,19
-18,59,18
-18,59,18
-18,59,17
-17,58,17
-17,58,17
-18,58,18
-18,59,18
-18,59,18
-17,60,19
-17,59,18
-17,59,19
-16,59,19
-16,59,19
-15,59,19
-15,60,19
-16,59,19
-16,59,19
-17,58,18
-17,58,18
-17,59,18
-18,60,18
-18,60,18
-18,60,18
-19,60,19
-18,60,19
-18,60,19
-18,60,19
-16,60,20
-16,60,20
-15,60,19
-14,59,19
-14,59,18
-13,58,18
-13,58,18
-13,58,18
-13,58,18
-13,58,17
-14,58,17
-14,58,18
-15,58,18
-15,58,18
-15,58,19
-16,59,19
-17,59,19
-17,59,20
-18,59,20
-18,59,21
-18,59,21
-17,60,21
-17,60,21
-17,60,21
-16,60,20
-16,59,20
-15,59,19
-15,59,19
-15,59,19
-15,59,19
-15,59,19
-15,59,18
-15,59,18
-14,59,18
-15,59,19
-15,59,20
-15,59,20
-15,59,20
-16,59,20
-15,59,20
-15,59,20
-16,59,20
-16,59,19
-16,58,19
-16,59,19
-15,58,19
-15,57,19
-16,59,19
-15,60,19
-15,59,19
-15,60,19
-16,60,20
-14,57,21
-16,58,18
-18,59,17
-16,59,20
-19,59,20
-21,59,19
-20,60,21
-18,60,21
-18,60,21
-17,59,20
-16,59,18
-15,59,18
-16,59,18
-13,58,19
-12,58,19
-13,58,20
-15,59,20
-14,60,20
-13,60,20
-12,58,18
-13,58,18
-14,59,16
-15,58,19
-14,58,20
-16,59,23
-17,60,24
-16,60,25
-19,59,23
-18,59,19
-18,58,19
-16,57,19
-17,57,18
-17,57,18
-16,59,20
-17,59,19
-16,59,19
-15,57,18
-16,57,17
-16,57,16
-15,58,18
-14,57,19
-15,60,20
-15,62,21
-15,63,21
-16,61,22
-16,56,21
-15,59,21
-14,59,23
-15,59,21
-16,60,20
-17,62,19
-17,59,16
-18,57,15
-17,55,13
-15,56,12
-14,58,14
-14,59,16
-16,61,17
-17,62,17
-16,64,17
-16,62,17
-16,60,18
-16,60,19
-15,59,21
-16,59,21
-15,60,23
-16,61,23
-16,61,22
-15,61,20
-16,60,18
-16,59,18
-17,59,17
-16,58,16
-16,58,15
-16,59,14
-16,60,14
-16,60,14
-15,60,13
-14,59,15
-14,59,15
-14,59,16
-15,59,16
-15,60,16
-15,62,16
-16,61,17
-16,60,17
-14,61,18
-14,60,19
-14,59,19
-14,58,19
-15,59,21
-15,60,21
-17,62,20
-19,62,22
-19,61,21
-19,58,19
-18,57,18
-17,57,19
-17,57,19
-17,57,19
-17,58,18
-17,60,18
-17,60,18
-16,60,18
-16,59,18
-16,59,18
-16,59,18
-16,58,19
-16,58,20
-16,59,20
-15,59,23
-15,60,24
-15,60,23
-15,60,23
-15,59,22
-15,59,21
-14,58,21
-14,57,20
-14,57,20
-14,58,19
-14,58,19
-13,59,21
-13,59,21
-13,59,22
-12,58,22
-12,56,22
-12,55,21
-14,54,19
-15,55,19
-15,56,18
-16,57,18
-17,58,19
-18,59,19
-17,60,19
-18,60,21
-17,59,21
-18,59,21
-17,59,22
-18,59,22
-18,59,23
-18,60,23
-19,60,24
-19,61,24
-19,62,23
-19,61,23
-18,59,21
-17,59,20
-16,59,20
-15,59,19
-15,59,18
-15,59,18
-14,58,18
-12,57,18
-12,57,18
-12,57,18
-12,58,18
-12,58,19
-12,58,19
-12,58,20
-12,59,20
-12,59,20
-13,59,20
-13,59,20
-14,59,21
-14,60,21
-15,60,22
-14,61,22
-15,61,22
-14,60,22
-14,59,22
-14,59,21
-15,58,21
-15,59,22
-16,59,22
-17,58,21
-17,58,22
-17,58,21
-17,59,21
-16,58,21
-15,58,21
-15,58,21
-15,58,21
-15,59,21
-14,59,22
-14,59,22
-15,59,22
-15,58,22
-15,58,22
-15,58,21
-14,59,22
-15,59,22
-14,58,23
-14,59,23
-14,58,23
-14,58,23
-14,58,22
-14,58,22
-14,58,22
-14,59,21
-13,58,21
-13,58,21
-13,58,21
-13,58,21
-13,58,21
-12,58,21
-13,58,22
-13,58,22
-13,58,22
-14,58,23
-14,58,23
-14,58,23
-15,59,23
-15,58,23
-15,59,23
-15,58,23
-15,59,22
-14,58,22
-14,58,22
-13,58,23
-14,58,22
-13,58,22
-14,58,22
-15,57,21
-15,57,21
-15,57,21
-16,57,21
-15,57,20
-15,57,21
-15,57,21
-16,58,21
-16,59,22
-16,59,22
-16,59,23
-15,59,23
-15,58,23
-14,59,23
-15,59,22
-15,58,22
-15,58,21
-15,58,20
-15,58,19
-15,58,19
-16,58,20
-17,58,20
-17,58,20
-18,58,20
-18,58,20
-18,58,21
-18,58,20
-18,58,20
-18,58,20
-17,59,20
-17,60,20
-17,60,19
-16,60,20
-16,60,20
-15,60,20
-15,60,20
-14,59,20
-14,59,20
-14,59,20
-14,59,20
-14,59,20
-14,59,20
-15,59,20
-15,59,20
-16,59,20
-16,59,20
-17,59,20
-17,59,20
-17,59,20
-18,59,20
-17,59,19
-17,58,19
-17,58,19
-16,58,19
-16,59,20
-16,59,20
-15,59,20
-15,59,20
-15,59,20
-14,58,20
-14,58,20
-14,58,19
-14,58,20
-14,58,19
-15,58,20
-15,59,20
-16,59,20
-16,60,21
-17,60,22
-17,60,22
-18,60,22
-17,60,21
-18,59,21
-17,59,21
-16,59,21
-16,59,21
-15,59,20
-15,59,20
-15,59,20
-14,58,19
-14,58,19
-14,58,19
-14,58,19
-14,58,20
-14,58,20
-14,58,20
-14,58,21
-14,58,21
-15,59,21
-15,59,21
-15,59,21
-15,59,21
-15,58,21
-15,58,21
-15,58,21
-16,58,21
-15,59,21
-15,58,20
-15,58,20
-16,58,20
-16,58,20
-16,59,20
-16,59,21
-16,58,21
-16,58,21
-16,58,21
-16,59,21
-16,59,21
-16,59,21
-16,59,21
-16,58,21
-16,59,21
-16,58,21
-16,59,21
-16,59,21
-16,59,21
-15,58,21
-15,59,21
-15,59,20
-15,58,20
-15,58,20
-14,58,21
-15,58,22
-15,59,21
-15,59,20
-16,58,20
-16,58,20
-16,58,21
-16,58,21
-16,59,21
-16,58,21
-16,58,21
-17,58,21
-16,58,21
-16,58,21
-16,58,20
-16,59,20
-16,59,20
-16,59,21
-16,59,21
-16,59,21
-16,59,21
-16,59,21
-16,59,21
-15,59,22
-15,58,21
-15,58,21
-15,58,21
-15,58,20
-15,58,20
-15,58,21
-15,58,21
-15,58,21
-15,58,21
-15,58,21
-15,58,21
-16,58,21
-15,57,20
-15,57,19
-17,58,18
-16,59,18
-17,59,18
-16,59,20
-16,59,21
-15,59,21
-14,59,22
-14,59,22
-15,59,22
-15,60,22
-16,60,21
-17,60,21
-17,59,20
-18,60,20
-18,60,20
-18,59,21
-17,59,21
-17,59,20
-17,58,20
-16,58,20
-16,59,19
-15,59,18
-14,58,18
-15,59,17
-14,58,17
-14,58,17
-15,58,17
-15,57,18
-15,57,18
-15,57,19
-16,58,20
-17,58,20
-17,59,21
-18,60,22
-18,60,22
-17,59,22
-17,60,22
-16,61,22
-14,58,19
-13,53,17
-13,54,18
-16,57,17
-17,59,17
-17,59,17
-17,60,16
-17,61,16
-16,61,17
-14,63,17
-13,64,17
-13,64,16
-13,64,17
-12,61,19
-13,60,19
-12,59,22
-13,59,22
-15,60,22
-17,60,22
-16,61,21
-16,61,21
-16,60,20
-16,59,18
-16,59,17
-17,59,15
-16,60,16
-16,60,16
-15,61,16
-14,63,18
-14,64,19
-14,65,19
-14,63,18
-13,63,19
-10,60,21
-7,55,21
-6,53,22
-5,52,26
-7,51,24
-9,51,24
-10,54,23
-11,56,23
-13,58,21
-15,58,19
-15,57,18
-16,55,15
-15,57,21
-15,53,15
-17,62,18
-19,62,18
-20,62,18
-19,61,17
-19,59,16
-18,60,16
-17,61,16
-17,61,17
-16,60,17
-15,57,17
-16,57,16
-15,58,16
-15,61,17
-19,62,15
-19,62,15
-19,63,16
-20,64,16
-20,63,16
-18,62,16
-17,60,14
-17,59,13
-16,60,13
-16,62,12
-15,62,12
-14,61,12
-16,60,12
-16,60,12
-15,61,12
-15,60,12
-15,59,12
-16,58,12
-17,59,13
-17,60,14
-18,60,15
-21,59,16
-21,59,16
-22,60,18
-21,61,19
-19,62,19
-18,62,19
-17,63,18
-17,63,18
-18,61,16
-18,59,14
-18,59,15
-17,58,16
-17,58,16
-17,59,16
-17,60,16
-17,60,16
-16,61,16
-15,60,17
-15,61,17
-15,60,17
-14,60,16
-14,59,17
-14,59,16
-13,61,17
-14,60,17
-14,60,17
-14,56,21
-12,55,23
-7,55,28
-7,52,29
-8,54,30
-8,56,30
-10,59,30
-10,58,31
-12,58,29
-14,59,27
-15,58,25
-14,55,24
-15,53,20
-14,51,19
-12,54,19
-11,58,23
-11,59,23
-12,58,23
-12,52,21
-12,52,21
-9,56,22
-8,68,23
-8,74,24
-14,81,25
-19,64,22
-21,60,21
-18,57,22
-13,55,21
-12,56,20
-13,55,17
-13,59,15
-10,60,17
-9,61,14
-13,63,14
-14,60,14
-14,56,13
-14,56,15
-12,57,16
-11,59,17
-11,58,18
-12,57,17
-14,58,15
-16,60,16
-16,60,16
-15,59,17
-16,60,18
-17,60,18
-17,61,18
-17,62,18
-18,63,19
-17,64,22
-17,64,22
-18,63,19
-17,61,20
-16,60,20
-15,60,20
-14,60,19
-14,60,18
-15,60,16
-15,61,16
-15,61,15
-15,61,15
-15,62,15
-15,60,15
-14,59,15
-14,59,15
-14,59,15
-15,58,14
-14,58,14
-15,58,16
-14,59,16
-14,59,18
-13,59,19
-14,60,19
-15,60,20
-16,61,21
-15,62,21
-13,61,21
-13,61,19
-14,60,21
-15,62,24
-16,61,24
-17,62,22
-16,61,23
-15,60,23
-12,59,22
-12,56,18
-12,55,17
-12,55,16
-10,55,16
-11,57,15
-13,57,15
-13,58,15
-13,58,16
-12,58,17
-13,58,19
-13,57,20
-15,57,20
-16,59,21
-18,60,21
-21,62,22
-20,65,25
-20,64,26
-17,59,23
-16,57,22
-15,57,21
-14,57,21
-12,58,21
-13,59,21
-15,60,19
-14,61,20
-13,60,20
-13,59,19
-13,56,18
-13,56,17
-13,57,17
-14,57,16
-16,57,16
-16,58,16
-16,59,17
-16,60,18
-16,62,20
-16,62,20
-17,61,19
-18,59,19
-17,59,19
-17,60,20
-17,60,19
-17,60,19
-16,60,20
-16,60,20
-16,60,20
-16,60,20
-16,60,18
-16,59,18
-15,59,18
-15,59,18
-15,59,17
-15,59,17
-15,59,17
-15,59,17
-16,60,17
-15,60,17
-15,60,18
-16,59,18
-17,57,18
-17,57,18
-18,57,17
-17,58,18
-17,59,18
-17,61,17
-17,61,17
-16,61,17
-16,60,17
-15,60,18
-15,60,19
-15,60,19
-15,60,18
-15,60,18
-14,60,18
-15,60,18
-16,60,18
-16,60,18
-16,61,19
-16,60,18
-15,60,18
-14,60,19
-15,59,19
-14,59,19
-13,59,20
-13,60,20
-13,61,20
-13,61,19
-14,59,19
-13,58,18
-12,58,19
-12,58,18
-13,57,17
-13,58,17
-14,59,17
-14,60,17
-15,60,18
-14,59,19
-14,58,20
-13,58,21
-13,59,22
-13,60,23
-13,61,23
-13,61,22
-13,60,21
-13,59,21
-13,59,20
-13,58,20
-13,59,19
-13,61,18
-15,59,18
-14,58,19
-15,58,18
-14,59,19
-14,59,19
-15,60,19
-14,59,19
-14,59,19
-14,59,19
-14,59,20
-14,59,20
-14,59,20
-14,59,20
-14,59,20
-15,59,20
-15,59,19
-15,59,19
-15,59,19
-15,59,19
-15,59,18
-16,59,19
-16,59,19
-15,60,21
-13,60,22
-14,60,21
-14,60,22
-15,59,21
-20,58,17
-23,59,17
-25,60,14
-24,59,14
-22,59,15
-20,58,14
-19,57,14
-18,57,15
-17,57,15
-18,57,15
-19,58,15
-19,58,16
-20,59,16
-19,59,17
-19,59,17
-19,60,17
-19,60,17
-18,58,17
-18,58,17
-17,58,17
-18,58,18
-18,59,18
-18,60,19
-19,61,18
-18,62,18
-17,63,18
-18,62,17
-18,61,17
-17,60,17
-17,59,17
-17,58,17
-17,57,17
-15,57,20
-14,57,19
-19,58,18
-21,58,17
-21,59,17
-21,59,16
-22,59,16
-21,60,16
-21,59,15
-20,57,16
-19,57,15
-19,58,15
-19,59,16
-19,59,16
-18,59,17
-17,58,17
-17,58,17
-17,58,18
-17,58,18
-17,59,17
-18,60,18
-18,61,18
-18,60,18
-19,59,18
-20,59,18
-19,58,18
-20,58,16
-19,59,15
-19,59,16
-19,60,16
-20,60,16
-19,59,16
-19,58,15
-19,58,15
-19,57,15
-19,59,15
-19,59,16
-19,59,16
-19,59,17
-19,59,17
-19,59,18
-19,59,18
-19,59,18
-19,59,17
-19,61,16
-20,60,16
-19,59,17
-18,57,17
-18,57,17
-19,56,16
-21,57,16
-21,58,15
-21,60,15
-22,62,15
-22,63,16
-21,61,17
-20,59,17
-20,59,17
-19,58,17
-18,58,16
-18,59,16
-18,60,16
-18,61,17
-18,60,17
-17,58,17
-17,57,17
-17,58,17
-18,58,16
-19,57,17
-19,56,17
-20,57,17
-21,60,17
-21,61,16
-21,63,16
-20,61,16
-19,60,17
-18,59,17
-17,59,17
-17,59,17
-16,59,17
-15,58,18
-15,57,18
-16,57,17
-16,57,16
-17,57,15
-17,58,15
-17,60,15
-18,61,16
-19,60,17
-20,59,17
-20,58,18
-21,57,18
-21,57,18
-22,58,18
-22,61,18
-22,61,18
-22,61,17
-20,60,18
-20,60,17
-20,60,17
-19,59,17
-18,59,18
-17,59,18
-17,59,16
-17,59,16
-17,59,16
-17,58,16
-17,58,17
-16,59,17
-17,59,17
-17,59,17
-18,59,15
-18,59,15
-18,59,15
-18,58,16
-17,59,18
-18,59,18
-19,60,17
-18,61,17
-18,62,17
-21,61,16
-22,59,16
-22,60,16
-21,63,18
-20,63,19
-20,61,19
-20,56,18
-18,54,18
-17,54,18
-16,54,17
-17,56,16
-16,57,17
-18,58,17
-18,58,18
-18,58,18
-17,58,19
-16,58,19
-16,59,19
-16,60,18
-16,61,17
-16,61,17
-16,59,17
-15,59,18
-14,59,18
-15,60,19
-16,61,17
-16,60,17
-16,60,16
-17,60,17
-16,60,17
-16,59,17
-17,59,17
-17,59,17
-17,60,17
-18,60,17
-18,61,18
-17,60,18
-17,60,18
-17,59,17
-17,58,17
-17,58,17
-17,59,17
-17,59,17
-18,59,17
-18,59,18
-19,60,17
-19,59,17
-19,59,17
-19,58,16
-19,58,17
-19,58,16
-20,59,16
-20,59,16
-20,59,16
-20,58,16
-20,58,16
-20,59,16
-20,59,16
-20,59,17
-20,59,17
-19,59,18
-19,59,18
-20,58,18
-20,58,18
-20,59,18
-20,59,18
-20,59,18
-20,59,18
-20,59,18
-20,59,18
-20,59,18
-19,58,17
-19,58,17
-19,58,18
-18,59,18
-18,59,17
-18,59,18
-17,59,17
-16,59,17
-16,58,17
-16,58,17
-16,58,17
-16,58,17
-16,59,17
-17,58,17
-17,59,17
-18,59,17
-18,59,18
-18,59,18
-19,59,18
-20,60,18
-20,60,18
-19,59,18
-19,59,18
-19,59,18
-19,59,18
-18,59,18
-18,59,18
-18,59,17
-18,59,17
-18,59,17
-17,59,17
-18,59,17
-17,58,17
-18,59,17
-18,59,17
-18,59,16
-18,59,17
-18,59,17
-17,59,17
-17,59,18
-18,59,18
-18,60,18
-18,60,18
-18,59,18
-18,59,18
-17,59,18
-17,59,18
-17,59,18
-18,59,18
-17,59,17
-17,59,17
-17,59,18
-17,59,18
-18,60,18
-18,59,17
-17,59,17
-18,58,17
-18,59,17
-19,59,17
-19,58,17
-19,59,17
-19,59,17
-18,59,17
-18,58,16
-18,58,16
-18,58,17
-19,60,17
-19,60,18
-19,60,18
-20,60,18
-18,59,18
-18,59,19
-18,58,18
-18,58,18
-18,58,18
-18,59,18
-19,59,18
-18,59,18
-18,59,17
-18,59,17
-17,58,16
-17,57,16
-18,57,15
-18,58,16
-18,59,17
-18,59,17
-19,59,17
-19,59,18
-19,59,18
-20,59,18
-19,59,19
-20,59,18
-19,59,19
-19,59,18
-19,59,18
-19,59,18
-19,60,18
-18,60,18
-19,60,18
-18,60,18
-17,59,18
-17,57,18
-17,57,17
-17,57,17
-16,56,17
-15,56,17
-15,55,17
-16,57,17
-16,59,17
-17,62,16
-19,62,15
-18,62,15
-19,60,16
-19,59,16
-19,58,16
-19,58,17
-20,59,18
-20,59,17
-20,60,17
-21,59,16
-21,59,15
-19,60,17
-18,62,19
-17,62,19
-15,65,20
-13,60,21
-12,59,19
-10,59,19
-9,58,18
-12,58,17
-15,58,16
-16,60,16
-16,62,17
-18,62,16
-18,59,16
-17,58,16
-15,57,17
-14,56,18
-14,56,18
-13,59,20
-13,61,21
-14,61,21
-13,59,21
-12,57,19
-13,57,18
-15,59,18
-16,59,18
-17,60,17
-19,60,18
-18,61,19
-18,60,19
-18,61,20
-16,61,20
-16,61,20
-14,60,20
-14,60,20
-13,59,19
-13,58,18
-13,58,18
-13,58,18
-15,57,17
-16,57,17
-16,58,17
-17,60,16
-17,61,17
-17,61,19
-17,59,19
-17,58,18
-16,57,19
-16,59,19
-17,59,19
-17,58,18
-16,59,19
-15,59,19
-15,60,18
-15,59,18
-15,59,18
-15,60,18
-14,60,18
-15,59,17
-14,59,17
-15,57,17
-16,57,17
-16,58,17
-16,60,18
-16,61,19
-18,61,18
-19,60,18
-19,61,18
-19,60,18
-19,60,18
-19,60,18
-19,61,19
-18,61,20
-17,60,19
-18,59,17
-17,59,17
-17,58,17
-16,56,17
-16,56,17
-17,57,17
-17,59,17
-18,60,17
-18,60,17
-17,59,16
-16,58,17
-16,58,17
-16,59,17
-16,59,17
-17,59,17
-17,60,18
-16,60,18
-17,60,18
-17,59,19
-17,59,19
-17,59,19
-17,60,19
-17,60,19
-18,60,18
-17,59,18
-17,59,17
-17,57,17
-17,57,17
-17,57,17
-17,57,17
-18,58,17
-18,58,17
-20,59,17
-20,60,19
-19,60,19
-20,59,19
-20,59,19
-20,58,20
-20,58,19
-20,59,18
-19,59,18
-19,60,18
-18,60,19
-18,60,19
-17,60,19
-15,60,19
-16,59,19
-16,58,18
-16,58,17
-16,59,16
-17,60,16
-17,60,17
-17,60,18
-17,58,19
-17,56,18
-18,56,18
-16,58,19
-16,60,19
-16,59,19
-16,58,18
-16,57,16
-16,57,15
-15,59,16
-16,59,16
-16,60,16
-17,61,17
-16,62,18
-15,61,19
-15,59,19
-14,58,19
-15,58,19
-15,60,20
-15,61,20
-15,61,20
-15,60,19
-15,60,18
-14,60,17
-15,59,17
-15,59,16
-15,59,16
-15,59,16
-16,59,16
-16,60,17
-16,60,16
-17,60,16
-16,60,17
-17,59,17
-17,59,17
-17,59,19
-17,59,19
-16,59,19
-15,60,19
-13,59,19
-13,59,18
-14,60,18
-14,61,17
-16,60,17
-18,57,16
-19,57,15
-19,56,15
-21,59,15
-22,62,16
-22,63,15
-21,61,16
-18,59,17
-17,59,17
-14,59,15
-13,60,17
-12,59,18
-15,58,18
-19,58,17
-20,58,17
-19,57,17
-18,59,18
-18,60,17
-18,63,17
-17,64,17
-17,63,17
-16,60,15
-15,58,15
-16,58,15
-17,58,17
-17,56,18
-18,57,18
-18,60,20
-17,61,19
-17,60,19
-17,57,19
-17,60,17
-17,60,17
-18,60,18
-18,61,17
-18,61,17
-17,61,16
-17,60,16
-16,59,16
-16,58,15
-17,58,14
-16,59,15
-16,59,16
-17,58,16
-17,58,15
-17,58,15
-16,58,16
-17,59,16
-17,59,17
-17,60,18
-17,60,19
-18,60,18
-18,59,18
-17,58,18
-18,59,18
-18,59,18
-18,61,18
-19,60,18
-19,60,17
-19,60,17
-18,60,18
-18,60,17
-18,59,17
-17,59,17
-17,58,17
-17,59,17
-16,60,17
-16,59,17
-17,59,16
-16,59,17
-16,59,17
-16,59,17
-16,59,17
-16,59,17
-16,59,17
-16,59,17
-16,59,17
-16,59,18
-16,59,18
-16,59,18
-16,59,19
-16,59,19
-16,59,18
-16,59,19
-16,59,18
-17,59,18
-16,59,18
-17,59,17
-17,59,17
-17,58,17
-18,59,17
-18,60,17
-18,60,18
-18,61,17
-17,60,17
-15,60,17
-15,60,18
-16,60,18
-16,59,18
-17,59,18
-18,59,18
-17,59,18
-18,58,18
-18,57,17
-18,58,16
-18,58,15
-17,59,15
-17,59,15
-17,59,15
-17,59,16
-16,60,17
-17,60,16
-16,60,17
-16,60,17
-16,60,17
-17,60,18
-17,60,18
-18,61,18
-17,59,18
-18,59,16
-18,59,17
-18,59,18
-19,60,18
-19,60,17
-18,59,16
-17,57,15
-17,57,15
-18,59,15
-19,61,18
-19,61,18
-19,61,18
-17,61,18
-17,62,18
-18,62,17
-16,60,16
-16,59,16
-15,58,17
-12,58,18
-11,57,18
-12,57,17
-14,58,17
-15,58,17
-15,59,17
-14,60,19
-13,60,19
-13,60,17
-14,58,15
-15,59,15
-16,61,15
-16,59,15
-16,58,16
-17,58,17
-16,59,19
-17,60,19
-18,61,21
-18,61,21
-18,60,21
-18,61,21
-17,61,22
-17,60,21
-17,59,20
-16,59,20
-16,59,18
-16,60,17
-15,58,16
-15,57,15
-15,58,14
-15,58,14
-15,57,14
-16,58,15
-16,58,16
-15,59,18
-16,59,19
-17,59,19
-18,61,20
-18,61,21
-19,61,21
-18,59,22
-17,57,22
-17,57,21
-17,57,19
-17,59,18
-17,61,18
-16,63,18
-16,61,17
-15,60,16
-15,60,16
-14,58,16
-14,58,16
-13,57,17
-15,58,18
-15,59,18
-17,60,19
-17,59,19
-17,59,19
-17,58,19
-18,57,18
-19,57,18
-19,58,18
-19,59,18
-19,59,18
-19,59,18
-19,59,17
-18,59,17
-17,58,17
-17,58,17
-18,59,18
-18,60,17
-18,60,17
-18,60,17
-18,62,18
-17,63,20
-17,63,21
-15,64,23
-14,65,23
-12,66,24
-12,65,21
-16,59,17
-15,56,15
-13,52,13
-13,51,12
-15,51,12
-17,55,13
-19,57,14
-21,58,16
-23,58,17
-24,59,18
-23,59,20
-25,59,20
-26,58,19
-27,57,20
-25,55,21
-25,55,22
-26,55,22
-25,56,22
-24,55,21
-24,55,19
-23,56,17
-23,57,16
-22,56,16
-22,55,15
-23,55,15
-23,57,15
-22,58,16
-21,59,17
-18,61,19
-15,60,18
-16,61,17
-15,60,15
-13,55,14
-13,54,11
-11,62,13
-11,64,12
-14,66,11
-16,65,15
-18,63,19
-17,63,21
-13,64,24
-13,65,26
-16,65,25
-14,63,24
-14,62,21
-14,61,20
-14,59,18
-13,58,16
-15,58,15
-16,57,15
-16,57,14
-16,58,14
-16,57,14
-16,57,15
-16,58,15
-15,58,16
-15,58,17
-15,59,18
-14,59,19
-14,59,20
-14,58,20
-15,59,20
-16,59,19
-16,58,19
-17,59,19
-18,59,19
-18,59,18
-18,60,18
-19,60,19
-18,60,18
-18,59,18
-18,59,18
-18,59,18
-18,59,18
-19,60,18
-18,60,18
-19,60,19
-19,60,19
-17,60,18
-17,60,18
-17,59,18
-16,58,17
-17,57,17
-17,57,17
-18,58,17
-18,59,17
-18,59,17
-17,59,16
-16,59,16
-16,59,16
-16,59,17
-15,59,17
-15,59,17
-15,59,17
-15,58,18
-16,59,18
-16,59,18
-17,60,18
-17,59,18
-18,59,17
-18,60,18
-18,60,17
-19,60,17
-19,60,18
-19,60,18
-19,60,17
-19,60,17
-18,60,17
-19,60,16
-18,60,17
-17,60,16
-17,60,17
-16,59,17
-17,59,17
-17,59,17
-16,59,17
-16,59,17
-17,59,17
-17,59,16
-17,59,16
-17,59,16
-17,59,16
-17,59,16
-17,59,17
-18,59,17
-18,59,17
-18,59,17
-18,59,17
-17,59,17
-18,59,17
-18,59,17
-18,59,17
-18,60,17
-18,60,17
-19,60,18
-19,60,18
-18,60,18
-18,60,18
-18,59,19
-17,58,19
-17,59,18
-16,58,18
-16,58,18
-16,58,17
-16,58,16
-16,58,17
-16,58,17
-17,59,17
-17,59,17
-18,59,18
-17,59,18
-18,59,19
-18,59,19
-18,59,19
-18,59,19
-18,59,20
-18,59,20
-18,59,20
-18,59,19
-17,59,19
-17,59,19
-17,59,18
-17,59,18
-17,59,18
-17,59,17
-16,59,18
-17,59,18
-17,59,17
-16,59,18
-16,59,18
-16,59,18
-16,59,19
-16,59,19
-16,59,19
-16,59,19
-16,59,19
-16,59,19
-16,59,19
-17,59,19
-17,59,19
-17,59,19
-18,59,19
-18,59,19
-18,58,19
-18,58,18
-17,59,19
-17,59,19
-18,59,19
-17,59,19
-17,59,19
-17,59,20
-17,59,20
-17,59,20
-17,58,19
-17,59,19
-18,59,19
-18,58,19
-18,58,18
-18,58,18
-18,58,18
-18,58,18
-18,58,18
-18,58,18
-19,59,19
-19,59,19
-18,59,19
-18,58,19
-18,58,19
-18,59,19
-18,59,20
-18,59,19
-18,58,19
-18,59,19
-17,58,18
-17,58,18
-17,58,18
-17,58,18
-17,58,18
-17,59,17
-17,59,17
-17,59,18
-18,59,18
-18,59,18
-18,59,18
-19,59,19
-19,59,19
-19,59,19
-20,59,19
-20,60,18
-20,60,19
-20,62,19
-19,61,18
-18,57,17
-17,56,18
-17,57,17
-18,58,18
-19,58,17
-20,58,17
-18,59,18
-17,62,22
-17,61,22
-17,59,20
-17,58,19
-16,59,18
-17,59,18
-17,58,18
-19,58,18
-21,58,18
-20,58,19
-20,58,20
-18,58,20
-18,58,19
-19,57,19
-18,57,19
-18,57,19
-19,57,18
-19,57,19
-19,57,19
-20,57,19
-19,59,19
-19,59,20
-19,59,21
-20,58,21
-20,59,20
-18,58,21
-18,58,20
-18,57,20
-17,57,20
-17,56,19
-17,57,19
-17,59,18
-16,59,18
-15,59,18
-16,57,17
-16,59,18
-14,58,18
-14,57,19
-16,61,19
-15,61,19
-16,60,19
-17,60,17
-16,60,19
-15,60,18
-20,60,16
-19,59,15
-17,57,18
-17,58,19
-18,60,19
-19,60,21
-20,62,19
-21,63,19
-19,62,19
-18,59,18
-18,58,17
-17,57,17
-16,57,16
-17,58,15
-16,58,15
-17,58,14
-17,57,14
-17,54,13
-17,55,15
-16,56,16
-18,59,17
-19,59,16
-20,60,16
-21,58,14
-20,57,13
-20,58,13
-19,60,13
-19,60,14
-18,62,14
-19,63,13
-19,63,14
-18,66,15
-17,68,15
-18,69,14
-20,67,12
-17,65,13
-18,64,13
-19,61,14
-17,61,17
-17,61,18
-17,61,19
-19,64,18
-19,70,18
-15,62,21
-15,46,16
-16,45,18
-13,48,19
-8,50,21
-14,54,20
-17,52,19
-16,49,17
-15,49,17
-14,52,19
-13,56,19
-15,59,19
-16,66,21
-16,70,23
-16,67,19
-13,64,15
-12,65,15
-13,67,14
-15,63,10
-15,60,10
-15,59,10
-15,60,10
-15,62,10
-15,63,11
-17,63,10
-17,63,11
-16,63,11
-16,63,11
-15,63,13
-15,60,13
-14,54,14
-13,56,17
-12,61,20
-9,62,25
-10,61,25
-13,59,25
-12,60,26
-12,58,25
-13,57,25
-14,55,24
-15,55,24
-17,55,23
-18,56,21
-18,56,21
-18,57,20
-19,55,19
-19,53,18
-18,51,19
-20,54,19
-21,57,19
-20,67,22
-16,67,25
-17,64,23
-20,62,22
-16,63,22
-16,62,21
-16,60,20
-14,59,20
-13,59,19
-12,60,20
-12,60,19
-13,60,18
-13,58,17
-12,55,16
-12,55,17
-12,54,16
-14,55,17
-14,55,17
-15,55,18
-17,56,19
-18,57,19
-19,60,21
-20,63,22
-20,64,23
-22,63,22
-22,60,21
-21,59,21
-19,58,21
-19,58,21
-18,59,21
-18,60,21
-18,59,21
-18,59,21
-16,59,21
-16,59,21
-16,59,21
-16,60,21
-16,60,22
-16,61,23
-15,59,22
-14,58,21
-14,57,20
-13,56,19
-13,55,18
-14,54,18
-15,55,18
-16,56,17
-17,56,17
-19,57,17
-20,57,17
-21,57,19
-21,59,19
-22,59,20
-22,60,21
-22,60,22
-22,60,22
-21,59,22
-20,58,22
-19,58,21
-19,59,20
-17,60,20
-17,60,20
-17,59,19
-16,59,18
-16,59,18
-16,58,17
-16,58,18
-15,58,18
-15,58,19
-16,58,19
-17,57,19
-16,57,19
-17,56,18
-18,57,18
-17,58,19
-18,59,20
-18,60,20
-18,60,20
-19,60,19
-19,59,18
-18,58,18
-17,59,19
-18,60,19
-18,61,20
-17,61,20
-17,61,20
-16,60,19
-15,58,19
-15,58,19
-16,58,19
-17,59,18
-17,59,19
-17,59,18
-17,58,17
-17,58,17
-18,58,16
-19,58,16
-19,57,17
-20,58,18
-20,58,19
-21,58,20
-21,60,22
-20,59,21
-19,60,21
-18,59,20
-17,58,19
-17,57,18
-17,57,17
-17,56,17
-18,57,17
-18,57,17
-18,58,17
-18,58,17
-19,57,17
-19,57,17
-20,57,17
-21,58,18
-21,59,18
-21,60,19
-22,60,19
-21,60,20
-20,60,20
-20,60,20
-20,60,19
-19,59,19
-19,59,19
-19,59,19
-18,59,18
-18,59,18
-18,59,18
-17,59,17
-17,59,18
-17,58,18
-17,58,17
-17,58,18
-17,59,18
-17,59,18
-17,58,19
-18,58,19
-18,58,19
-18,57,19
-18,57,20
-18,58,20
-19,59,19
-19,59,19
-19,58,18
-18,57,18
-17,56,18
-18,57,18
-18,59,19
-19,60,18
-19,59,18
-20,58,18
-20,57,18
-19,57,19
-18,57,20
-18,58,20
-19,59,19
-18,59,20
-19,59,20
-19,59,21
-19,59,21
-18,59,23
-19,59,20
-19,60,19
-17,59,18
-15,56,17
-14,55,17
-15,57,17
-18,59,18
-19,60,18
-19,60,18
-19,60,17
-17,59,18
-16,58,17
-18,57,17
-18,57,18
-19,58,19
-19,60,20
-19,61,22
-19,61,22
-19,60,21
-19,59,20
-18,58,19
-18,59,18
-18,59,18
-18,60,17
-17,59,17
-17,59,17
-17,59,17
-17,59,17
-17,59,17
-15,59,18
-16,59,19
-16,59,20
-16,58,20
-16,58,19
-16,58,20
-17,58,20
-18,57,19
-19,57,19
-19,59,20
-19,60,22
-19,61,23
-19,60,22
-18,61,21
-17,59,21
-17,56,19
-16,56,17
-17,56,16
-19,56,14
-17,56,16
-17,57,17
-19,59,18
-19,61,20
-20,61,21
-21,61,21
-20,60,22
-18,59,22
-17,58,22
-17,59,21
-17,59,20
-17,58,19
-16,57,19
-16,57,18
-16,56,17
-16,56,17
-17,56,17
-18,57,17
-18,57,17
-18,58,18
-20,57,19
-21,58,18
-21,59,19
-21,59,19
-21,59,20
-20,59,19
-19,59,20
-18,59,20
-19,59,20
-18,59,20
-18,59,19
-19,58,19
-19,57,19
-19,58,19
-20,58,18
-20,58,18
-21,58,18
-21,58,18
-21,58,18
-21,58,18
-21,58,18
-21,58,18
-21,58,18
-21,58,18
-21,59,19
-21,58,19
-20,58,19
-18,57,18
-18,57,18
-17,58,17
-17,57,16
-17,57,16
-18,57,17
-20,59,18
-21,61,18
-21,61,19
-19,61,19
-19,59,18
-19,58,17
-18,58,17
-19,59,17
-19,59,17
-19,59,17
-18,59,17
-17,58,18
-17,58,18
-17,59,18
-17,58,18
-17,58,18
-16,59,18
-15,61,18
-16,61,18
-15,61,18
-16,60,16
-17,60,16
-17,59,16
-18,58,16
-18,57,17
-19,57,18
-20,57,19
-20,58,20
-21,58,20
-22,59,21
-22,59,21
-22,58,20
-22,58,19
-21,58,19
-21,59,19
-20,60,20
-20,59,19
-19,59,18
-17,58,17
-17,58,17
-15,57,17
-14,57,18
-15,57,18
-16,59,18
-17,59,19
-17,60,18
-18,60,19
-17,59,19
-18,59,19
-18,59,19
-18,59,19
-18,59,19
-19,59,19
-19,58,19
-20,58,18
-19,57,17
-19,57,17
-19,57,18
-20,57,18
-20,58,18
-20,57,18
-20,58,18
-20,58,18
-20,58,18
-21,59,17
-21,59,19
-21,59,18
-20,59,19
-19,59,19
-19,59,19
-18,59,19
-17,59,20
-17,59,20
-17,59,19
-16,58,19
-16,57,19
-17,57,18
-17,58,18
-17,58,17
-17,58,16
-17,57,17
-17,57,18
-18,58,18
-18,59,18
-18,59,19
-19,59,18
-19,59,18
-18,59,18
-17,58,18
-17,58,18
-17,59,18
-16,59,18
-16,59,18
-16,59,18
-16,60,18
-16,61,18
-15,62,19
-15,61,18
-15,62,18
-14,62,17
-14,60,17
-15,59,17
-14,59,18
-15,60,18
-16,60,19
-16,60,20
-18,60,20
-18,60,20
-17,60,20
-18,59,19
-18,59,19
-18,59,19
-19,59,19
-19,59,19
-19,58,19
-19,57,18
-18,57,18
-18,56,18
-18,56,18
-18,57,18
-18,57,18
-18,58,18
-18,58,18
-18,58,18
-18,58,18
-19,58,18
-19,59,18
-19,59,18
-19,59,18
-19,59,20
-20,58,20
-20,58,19
-20,58,21
-20,58,21
-20,58,21
-20,58,21
-20,58,20
-19,58,19
-18,57,18
-19,57,17
-19,57,17
-18,57,17
-19,58,17
-19,58,17
-19,57,17
-20,57,17
-20,57,18
-21,58,18
-21,58,19
-22,58,19
-21,58,20
-21,58,20
-21,58,19
-21,59,19
-21,59,19
-22,58,18
-20,59,19
-19,60,20
-18,59,20
-17,58,19
-17,58,18
-17,58,17
-16,57,17
-16,57,16
-18,57,16
-19,57,17
-18,58,18
-18,59,20
-20,60,21
-21,61,21
-21,60,21
-21,59,19
-20,58,19
-18,58,18
-17,58,17
-17,58,18
-16,60,18
-16,61,19
-16,60,18
-14,60,18
-14,61,18
-13,61,19
-13,60,19
-12,59,19
-12,59,20
-12,59,20
-13,60,21
-12,59,21
-13,58,20
-13,58,20
-13,57,20
-14,57,19
-16,57,20
-15,57,20
-18,57,18
-18,58,19
-18,57,18
-19,58,18
-18,58,19
-18,58,19
-19,58,19
-18,59,20
-18,59,20
-18,60,20
-18,60,20
-17,60,20
-16,57,19
-16,57,20
-15,59,21
-15,59,21
-15,60,21
-15,62,22
-15,60,19
-16,59,18
-16,60,17
-15,57,16
-16,57,17
-17,56,18
-17,58,19
-19,59,18
-20,62,19
-19,61,19
-18,60,18
-17,59,19
-16,59,21
-16,59,21
-16,60,21
-16,60,21
-17,60,21
-17,59,19
-17,57,17
-17,57,16
-16,57,18
-17,58,18
-18,59,18
-19,59,19
-20,58,19
-19,59,19
-19,59,19
-19,55,19
-19,54,20
-20,55,20
-21,57,21
-22,58,21
-21,61,21
-19,60,20
-18,61,20
-17,63,19
-14,62,19
-14,61,18
-13,60,18
-11,59,18
-10,59,19
-11,58,19
-11,57,19
-11,56,19
-12,57,19
-12,57,19
-13,57,19
-15,58,19
-16,59,19
-17,60,19
-19,61,20
-20,61,20
-21,62,20
-21,61,20
-21,60,20
-21,59,19
-21,59,19
-21,59,19
-21,59,18
-20,59,18
-19,59,18
-19,58,18
-18,57,18
-18,57,18
-17,57,18
-18,57,17
-18,57,17
-18,58,18
-18,58,18
-18,58,18
-19,58,18
-19,58,18
-19,58,19
-19,59,19
-19,59,19
-20,59,19
-20,59,19
-20,59,19
-19,59,19
-19,59,19
-18,59,18
-18,59,18
-18,59,18
-17,59,18
-17,59,18
-17,60,18
-16,61,19
-16,60,20
-16,58,19
-17,58,17
-18,57,16
-17,56,17
-18,57,17
-18,57,18
-19,59,19
-20,59,19
-20,59,19
-19,57,19
-19,57,18
-19,57,19
-20,58,19
-20,59,18
-20,58,18
-19,58,18
-19,57,18
-18,58,18
-18,58,19
-18,59,19
-19,59,19
-18,58,18
-18,58,18
-19,59,18
-19,59,18
-19,59,17
-20,58,17
-19,57,18
-20,58,18
-21,58,18
-21,58,18
-21,58,18
-21,59,18
-21,60,19
-22,61,19
-21,61,20
-21,60,20
-20,59,20
-18,59,21
-18,59,21
-18,59,20
-17,59,19
-16,59,18
-16,58,18
-16,57,17
-16,56,16
-17,56,16
-17,56,16
-18,56,17
-18,56,17
-18,57,18
-19,57,18
-19,57,18
-19,57,19
-20,57,18
-20,58,19
-21,57,18
-22,58,17
-22,59,18
-22,59,18
-23,61,18
-23,61,19
-23,61,19
-22,61,19
-21,61,19
-20,62,19
-18,62,19
-17,61,19
-17,61,18
-15,60,18
-15,59,18
-14,58,18
-13,56,18
-13,56,18
-14,56,17
-15,57,17
-16,58,17
-17,57,16
-18,57,17
-18,57,17
-19,58,17
-20,58,17
-21,59,18
-21,59,18
-22,60,18
-22,59,18
-21,59,19
-21,59,19
-21,60,20
-20,60,21
-20,60,20
-20,60,20
-19,59,19
-19,59,18
-19,58,17
-17,57,18
-16,57,18
-19,57,17
-19,58,17
-20,58,17
-21,58,17
-21,57,18
-20,58,18
-21,58,18
-21,59,18
-21,59,18
-20,58,18
-19,56,17
-19,55,17
-20,56,17
-18,58,18
-19,59,18
-21,60,18
-18,60,19
-18,60,19
-18,60,18
-17,59,19
-17,59,18
-17,58,18
-16,58,19
-17,58,19
-19,58,17
-21,59,17
-21,59,17
-21,59,18
-20,59,19
-19,59,18
-20,59,17
-19,59,17
-21,60,17
-21,59,17
-20,58,17
-20,58,17
-19,59,16
-20,59,17
-19,60,17
-20,60,18
-19,59,17
-18,59,17
-17,58,16
-17,58,15
-19,58,15
-18,58,15
-18,58,16
-18,59,15
-17,60,17
-16,60,17
-18,60,18
-17,61,18
-17,60,18
-16,60,17
-17,60,18
-16,60,17
-18,59,15
-17,59,16
-18,59,15
-18,60,17
-19,59,17
-19,59,17
-18,60,17
-16,59,17
-17,59,17
-17,57,15
-17,56,15
-17,55,15
-17,55,16
-19,57,17
-19,58,17
-20,59,18
-20,60,19
-20,60,19
-19,59,19
-19,61,19
-19,61,19
-18,61,19
-17,60,19
-17,61,19
-16,60,17
-16,61,16
-16,61,17
-17,59,15
-17,57,14
-17,56,15
-18,56,17
-19,59,17
-19,60,18
-17,62,20
-16,61,22
-14,61,21
-12,60,21
-12,59,19
-11,58,19
-13,57,17
-13,57,17
-14,57,17
-16,58,17
-16,58,17
-17,58,18
-17,58,19
-17,59,19
-17,60,20
-17,60,20
-17,60,20
-17,59,21
-17,59,19
-17,59,19
-17,59,18
-17,60,18
-17,59,18
-16,59,19
-15,59,20
-15,59,19
-15,58,18
-16,59,18
-16,59,19
-16,60,18
-17,61,19
-17,60,19
-17,59,18
-16,57,17
-17,57,17
-17,59,18
-17,60,19
-17,59,19
-17,60,19
-15,60,18
-15,60,17
-15,59,17
-14,59,18
-14,59,18
-14,59,18
-14,59,18
-15,59,18
-14,59,18
-15,59,18
-15,59,18
-16,59,19
-16,59,19
-16,59,19
-16,60,19
-16,60,20
-15,59,20
-17,59,19
-17,58,18
-17,58,17
-17,59,18
-17,60,19
-18,61,19
-17,60,20
-18,57,19
-17,57,19
-17,57,20
-16,57,17
-16,58,18
-17,58,18
-16,58,19
-16,58,20
-16,58,19
-16,58,20
-16,58,19
-17,58,19
-17,58,18
-18,58,18
-19,58,17
-20,58,17
-20,59,17
-20,60,17
-21,61,18
-21,62,20
-21,62,20
-21,61,21
-21,60,20
-19,59,19
-19,59,18
-18,59,17
-17,59,16
-16,59,16
-16,58,17
-16,58,17
-15,58,17
-15,58,17
-15,57,18
-15,57,18
-15,58,18
-16,58,19
-16,58,19
-17,59,20
-17,59,21
-17,59,21
-18,59,20
-18,59,20
-18,59,19
-18,58,19
-19,59,19
-19,59,18
-19,59,18
-18,59,17
-18,59,17
-18,59,17
-17,59,17
-17,59,17
-17,58,17
-17,59,18
-17,58,18
-17,57,19
-17,57,20
-17,58,20
-16,60,22
-16,60,22
-16,60,21
-16,59,20
-15,60,19
-14,60,19
-14,59,18
-14,58,17
-15,58,18
-15,58,18
-15,59,19
-15,59,19
-16,60,20
-16,60,20
-16,60,21
-16,59,20
-16,59,21
-16,59,21
-17,59,20
-17,59,20
-16,59,19
-17,59,19
-17,58,19
-17,58,19
-18,57,18
-18,57,18
-19,57,18
-19,58,18
-19,59,18
-19,59,18
-19,59,19
-19,60,19
-18,59,19
-17,58,19
-16,59,20
-16,59,20
-16,58,19
-15,58,20
-15,59,21
-14,59,22
-14,59,22
-13,61,23
-15,60,20
-16,59,19
-15,55,20
-16,56,20
-17,58,20
-21,61,19
-22,60,19
-21,58,19
-21,56,18
-19,55,19
-19,55,19
-21,56,19
-22,57,19
-22,58,19
-21,60,21
-21,60,20
-21,60,20
-18,59,20
-17,59,20
-16,58,20
-15,58,19
-14,58,19
-14,59,20
-15,59,20
-16,58,19
-16,58,19
-16,58,20
-16,58,20
-17,59,19
-17,58,20
-17,58,20
-17,57,20
-18,57,20
-18,57,20
-20,58,20
-21,59,20
-21,59,20
-21,59,19
-20,58,19
-20,58,18
-21,58,18
-20,57,18
-21,57,17
-21,58,18
-21,58,17
-21,59,17
-20,59,18
-19,59,18
-19,59,18
-18,59,19
-17,59,19
-17,58,19
-18,59,20
-18,59,19
-18,59,19
-17,59,19
-19,58,19
-19,58,19
-19,58,19
-20,59,19
-21,59,19
-20,58,18
-20,58,18
-19,58,18
-20,58,18
-20,59,18
-20,59,18
-19,59,18
-18,58,18
-18,59,18
-18,58,19
-18,58,19
-17,58,19
-17,59,19
-17,58,19
-17,58,20
-17,58,19
-17,58,19
-17,57,19
-17,57,19
-18,58,18
-18,58,18
-18,58,18
-18,58,18
-18,58,18
-19,57,18
-18,57,18
-19,57,18
-19,57,18
-19,57,18
-20,58,19
-19,58,19
-20,58,19
-19,59,19
-20,59,18
-20,60,18
-19,60,18
-19,60,18
-18,61,18
-18,60,18
-17,60,18
-17,60,19
-17,60,18
-17,60,18
-17,60,18
-17,59,18
-17,59,18
-17,59,18
-18,59,18
-18,59,19
-18,59,19
-19,59,18
-18,58,18
-18,58,18
-18,58,18
-17,58,18
-18,58,17
-18,58,17
-18,59,17
-18,59,18
-19,58,18
-19,58,18
-19,59,18
-21,59,18
-20,59,18
-20,59,19
-19,59,19
-19,58,19
-18,58,19
-17,57,18
-17,56,17
-16,57,18
-14,58,18
-15,59,17
-15,59,17
-16,59,15
-16,59,13
-16,59,13
-16,58,14
-17,58,15
-17,59,16
-18,60,18
-21,61,19
-22,61,19
-22,61,20
-22,61,20
-22,61,21
-22,60,19
-23,61,19
-21,60,19
-22,59,19
-22,59,18
-21,58,17
-21,57,16
-20,57,15
-19,59,16
-19,60,16
-19,61,16
-18,59,16
-17,58,16
-16,57,17
-15,57,18
-14,58,18
-15,57,18
-16,57,19
-16,57,18
-17,57,18
-17,57,18
-18,57,18
-19,57,18
-20,58,18
-21,59,18
-21,59,18
-22,59,17
-20,58,17
-18,58,17
-19,59,16
-20,60,16
-19,61,16
-18,60,16
-19,60,16
-18,61,17
-19,61,17
-20,60,18
-21,58,17
-21,57,17
-22,57,18
-22,57,18
-20,59,20
-22,60,20
-22,61,20
-20,62,20
-18,61,18
-20,60,17
-19,57,16
-17,59,16
-17,61,16
-15,63,17
-15,61,17
-15,59,17
-14,55,17
-12,55,17
-12,55,18
-15,53,18
-18,52,19
-18,55,21
-20,61,24
-21,61,24
-25,61,24
-26,60,22
-22,58,21
-21,57,20
-22,56,19
-22,58,19
-21,59,18
-20,61,19
-19,60,18
-18,59,18
-17,59,18
-16,58,18
-15,57,18
-15,55,18
-15,55,18
-16,54,19
-17,55,18
-17,55,17
-17,59,18
-18,57,19
-19,58,19
-18,57,20
-19,59,21
-22,57,20
-22,60,19
-22,62,22
-21,61,21
-21,59,20
-20,59,20
-21,60,19
-22,60,17
-20,60,18
-19,60,18
-20,60,18
-20,60,18
-21,59,17
-21,58,15
-20,59,17
-22,58,18
-23,59,21
-18,64,24
-18,65,23
-23,63,20
-19,60,19
-16,59,19
-16,57,18
-15,57,18
-14,59,18
-17,57,18
-16,57,19
-14,58,20
-13,58,20
-16,57,19
-16,56,18
-14,55,18
-13,56,18
-12,57,19
-12,58,19
-12,57,21
-10,57,21
-9,57,23
-11,56,23
-13,54,24
-14,56,24
-16,57,24
-17,58,23
-19,60,22
-20,60,22
-22,57,21
-18,57,22
-16,64,20
-21,63,18
-20,63,18
-17,60,17
-19,58,16
-13,57,19
-11,54,20
-15,50,18
-17,54,18
-15,56,20
-18,57,20
-24,59,18
-23,62,17
-21,63,18
-14,63,20
-17,61,18
-19,58,19
-20,57,20
-22,57,21
-23,60,23
-21,62,26
-21,62,25
-21,63,24
-20,63,23
-19,62,22
-17,61,20
-15,60,19
-13,60,19
-13,59,18
-14,60,16
-13,60,16
-12,58,16
-12,57,16
-12,57,16
-12,57,16
-14,56,15
-14,56,16
-14,57,17
-15,58,18
-15,58,19
-16,58,20
-16,59,22
-16,59,21
-17,59,22
-15,59,23
-14,59,22
-16,60,20
-18,60,18
-19,58,18
-18,59,18
-17,61,20
-17,62,21
-20,60,20
-20,60,19
-19,59,19
-18,58,18
-18,58,18
-18,59,17
-18,59,17
-17,59,18
-17,59,18
-17,59,18
-16,58,19
-18,58,18
-17,58,19
-16,58,19
-17,58,18
-17,58,18
-16,58,18
-16,57,19
-17,56,18
-17,57,19
-17,59,19
-18,60,19
-19,60,18
-19,60,18
-18,60,17
-18,60,16
-17,59,16
-16,57,16
-17,57,16
-18,57,17
-20,58,18
-21,59,18
-21,59,19
-22,59,20
-22,59,19
-22,59,20
-24,59,19
-24,59,19
-24,59,18
-24,59,18
-23,59,18
-23,59,17
-23,59,17
-22,59,17
-21,59,17
-20,60,17
-20,60,17
-18,59,17
-17,58,18
-16,58,18
-15,59,18
-15,59,18
-16,59,17
-16,57,17
-15,58,18
-14,58,19
-14,59,19
-14,60,20
-15,60,21
-16,59,20
-17,59,19
-16,58,18
-16,56,17
-17,56,17
-18,56,17
-18,56,17
-19,56,17
-20,58,18
-20,60,19
-21,61,19
-23,61,18
-23,61,19
-22,61,19
-21,60,18
-21,59,18
-21,59,17
-19,58,18
-21,57,18
-20,58,18
-16,58,18
-20,60,19
-18,60,19
-16,59,19
-16,57,18
-16,55,17
-17,55,16
-16,59,16
-16,60,16
-19,62,15
-19,60,15
-19,59,16
-17,57,18
-17,58,19
-17,62,20
-14,64,22
-16,64,21
-15,64,20
-14,61,18
-15,59,16
-15,58,16
-16,57,15
-16,56,15
-16,56,16
-17,57,17
-18,58,18
-19,59,18
-20,60,18
-21,58,18
-21,58,18
-23,58,17
-23,57,18
-23,57,17
-23,59,18
-23,58,18
-23,59,18
-21,58,19
-21,59,18
-20,59,18
-19,59,17
-19,60,17
-19,58,16
-19,58,17
-20,57,16
-21,57,17
-21,56,17
-21,56,17
-22,56,16
-22,57,16
-21,57,16
-23,59,15
-23,59,16
-23,60,17
-23,59,17
-22,59,19
-22,59,19
-21,59,18
-20,59,18
-19,59,18
-18,59,18
-17,59,19
-17,59,18
-17,59,17
-18,58,17
-17,57,17
-18,57,17
-18,58,18
-19,58,17
-18,60,17
-17,59,18
-19,59,17
-19,58,18
-20,59,17
-22,60,17
-21,60,17
-22,59,16
-22,59,17
-22,58,17
-22,59,18
-22,59,18
-22,59,18
-22,59,18
-23,59,18
-20,59,18
-20,59,18
-20,59,18
-19,59,18
-18,59,18
-17,59,18
-17,58,17
-17,58,18
-17,58,17
-17,57,18
-16,55,17
-16,55,18
-17,55,17
-19,55,17
-19,56,17
-20,57,17
-20,58,17
-21,60,19
-22,59,18
-22,59,17
-22,59,16
-21,57,17
-21,57,17
-21,59,18
-20,61,18
-19,63,17
-19,64,18
-18,62,16
-18,61,16
-18,59,15
-17,57,15
-17,57,16
-18,57,16
-17,59,18
-17,60,18
-18,61,19
-18,59,20
-17,59,19
-18,60,18
-19,61,19
-20,61,18
-21,58,16
-19,56,16
-19,57,16
-19,58,16
-20,59,16
-20,59,17
-19,59,16
-18,58,16
-18,58,16
-17,58,17
-17,58,18
-17,58,18
-17,58,19
-17,58,18
-17,59,18
-16,59,18
-17,58,18
-18,58,18
-18,58,17
-18,58,17
-20,59,17
-21,60,17
-20,61,19
-21,61,18
-21,61,18
-20,60,18
-19,60,17
-19,59,17
-18,58,16
-18,58,15
-17,59,17
-17,60,17
-17,62,19
-18,60,18
-17,59,18
-16,56,18
-16,54,18
-17,55,17
-18,57,17
-20,60,17
-20,60,18
-21,60,17
-21,59,17
-21,58,17
-21,58,17
-22,58,17
-21,59,17
-21,60,17
-21,59,17
-20,59,17
-20,59,16
-19,60,16
-19,60,17
-19,60,18
-18,62,20
-16,62,21
-15,60,22
-15,60,20
-14,59,20
-14,56,17
-14,55,16
-15,55,17
-17,55,16
-18,57,17
-17,58,19
-18,59,19
-20,59,18
-20,59,19
-20,59,18
-21,59,17
-21,58,17
-21,58,17
-21,59,18
-21,59,17
-22,58,17
-22,58,18
-22,59,17
-21,60,18
-20,62,20
-19,63,20
-18,62,21
-17,60,21
-16,60,20
-16,60,19
-14,59,17
-15,59,16
-15,56,15
-16,56,15
-16,56,15
-17,57,16
-18,58,17
-18,58,18
-20,59,18
-20,58,18
-20,58,18
-21,59,19
-20,60,19
-20,60,19
-20,59,19
-19,59,19
-19,57,18
-18,59,17
-18,59,17
-19,60,18
-19,60,19
-19,60,18
-19,59,18
-18,59,18
-17,59,18
-17,58,18
-18,58,17
-18,58,17
-17,58,17
-17,58,18
-17,59,19
-17,58,19
-18,59,18
-17,59,18
-17,60,18
-18,59,19
-19,58,19
-19,59,19
-19,61,18
-20,60,18
-18,59,16
-18,58,16
-19,58,16
-21,58,17
-21,57,18
-21,57,18
-21,57,18
-19,59,19
-20,61,19
-19,62,19
-18,60,18
-17,60,17
-16,58,16
-15,58,15
-15,59,15
-15,58,16
-15,58,18
-15,58,18
-15,59,19
-16,61,21
-17,61,21
-18,60,21
-16,59,21
-16,58,20
-15,57,19
-15,57,19
-17,58,17
-18,59,16
-18,59,15
-19,58,15
-18,58,16
-18,59,16
-20,58,16
-19,60,17
-18,60,17
-19,61,18
-19,62,19
-19,61,20
-18,59,21
-16,59,22
-16,59,22
-15,61,22
-16,60,19
-16,58,18
-15,56,18
-16,56,17
-17,57,17
-17,57,16
-18,59,15
-19,59,15
-18,59,15
-17,60,16
-17,61,18
-17,62,19
-15,63,21
-14,62,22
-14,60,21
-15,58,20
-14,58,20
-14,56,19
-15,55,18
-15,55,18
-17,56,18
-18,57,17
-19,58,17
-21,60,17
-21,61,17
-21,62,18
-21,60,18
-20,58,18
-19,59,18
-18,61,20
-18,61,19
-18,62,19
-16,61,20
-16,60,20
-16,59,21
-17,59,22
-16,59,23
-17,58,22
-17,57,21
-17,56,19
-17,56,17
-17,56,16
-18,57,16
-19,58,16
-20,57,16
-19,57,16
-19,57,16
-20,58,17
-20,58,17
-21,57,17
-21,59,19
-20,58,20
-18,58,20
-9,60,25
-5,61,24
-21,59,18
-24,59,16
-21,59,17
-23,59,17
-23,58,17
-23,58,17
-21,57,17
-21,57,17
-21,57,16
-22,57,16
-23,57,16
-23,58,17
-25,60,17
-25,60,16
-26,60,16
-23,60,17
-25,59,17
-24,59,18
-23,59,18
-24,58,17
-23,58,18
-21,58,18
-20,59,18
-19,59,18
-17,58,18
-16,57,18
-16,57,18
-15,57,17
-15,57,17
-15,56,17
-16,57,18
-16,57,18
-17,58,17
-17,57,17
-17,58,17
-19,59,17
-21,60,18
-22,59,18
-22,59,18
-22,59,19
-22,59,19
-21,59,19
-22,60,19
-21,61,19
-20,60,19
-19,59,19
-19,59,19
-17,60,20
-18,60,18
-18,59,16
-18,59,15
-17,55,13
-17,53,12
-17,54,14
-19,57,15
-21,59,15
-21,62,18
-23,62,19
-23,62,21
-21,62,26
-18,60,23
-18,60,22
-18,58,23
-16,59,20
-16,59,19
-17,57,17
-16,57,16
-15,57,16
-15,58,15
-15,58,15
-16,58,14
-15,57,15
-15,56,15
-15,55,16
-15,57,18
-15,58,19
-17,59,19
-19,60,20
-21,61,21
-21,60,21
-23,60,21
-23,59,20
-23,59,20
-23,59,19
-23,59,18
-23,59,17
-22,60,17
-23,59,16
-22,60,16
-21,61,17
-22,61,17
-22,60,17
-19,57,16
-18,56,16
-17,57,16
-18,58,16
-17,59,17
-17,59,18
-17,59,19
-14,59,20
-14,59,20
-12,60,21
-13,59,20
-18,57,17
-18,55,17
-20,54,16
-20,54,16
-21,57,16
-23,58,16
-23,59,16
-25,58,15
-26,58,15
-24,57,14
-21,59,16
-23,60,15
-25,60,15
-22,59,15
-22,58,15
-22,58,16
-19,59,17
-20,60,17
-20,60,17
-19,60,17
-19,60,17
-19,59,17
-18,59,18
-18,59,17
-18,59,18
-18,59,17
-17,60,17
-17,60,17
-18,59,16
-18,59,16
-18,59,16
-19,59,16
-18,59,16
-19,59,16
-20,59,17
-20,59,17
-21,59,17
-22,59,17
-22,59,17
-20,59,17
-20,59,17
-21,59,17
-20,59,17
-19,58,17
-19,58,18
-20,58,17
-20,59,18
-20,59,18
-21,59,17
-20,57,17
-20,57,17
-21,58,18
-21,59,18
-21,58,18
-22,57,18
-22,56,16
-21,56,17
-18,58,17
-18,58,18
-17,59,19
-17,57,19
-17,57,19
-17,57,19
-19,56,17
-20,57,18
-21,58,18
-24,60,18
-24,60,18
-24,60,19
-24,58,19
-23,58,19
-22,57,20
-23,58,18
-22,58,19
-21,58,18
-20,57,18
-19,58,18
-18,58,18
-18,57,17
-17,57,16
-17,56,16
-17,57,15
-17,57,15
-18,59,16
-20,60,17
-19,61,19
-19,61,21
-20,61,21
-20,60,22
-18,58,21
-18,57,20
-19,56,19
-21,55,17
-21,56,17
-21,57,17
-22,59,17
-22,59,17
-23,58,16
-23,58,15
-22,59,15
-20,60,16
-22,63,16
-21,62,18
-20,62,19
-20,60,18
-18,59,19
-17,58,20
-17,57,20
-17,56,20
-16,56,20
-17,55,18
-16,55,17
-17,55,16
-19,55,16
-20,57,16
-20,58,16
-21,59,17
-21,60,18
-21,60,19
-21,61,20
-21,60,20
-20,59,20
-19,60,19
-18,59,19
-18,58,18
-18,58,17
-17,57,17
-17,58,17
-18,59,17
-19,60,17
-19,59,17
-20,59,16
-20,59,16
-19,59,18
-21,59,18
-21,59,18
-20,59,19
-21,60,19
-22,59,18
-21,59,18
-21,56,18
-20,56,19
-18,56,18
-19,59,16
-20,60,16
-20,60,15
-20,59,14
-20,59,15
-20,57,15
-18,59,16
-18,58,16
-21,57,15
-18,56,17
-18,56,17
-20,58,16
-20,59,18
-20,58,18
-22,58,17
-20,60,19
-21,60,18
-23,59,18
-22,60,17
-22,60,16
-21,61,15
-19,61,15
-20,59,15
-19,59,15
-17,60,16
-17,61,15
-17,60,15
-18,59,16
-19,59,16
-19,59,16
-18,59,17
-18,59,17
-18,59,17
-17,59,16
-18,57,15
-19,57,15
-20,58,15
-20,58,15
-24,59,13
-25,60,12
-22,59,14
-21,59,16
-21,59,16
-21,60,15
-21,59,15
-20,59,15
-19,59,15
-19,59,15
-18,59,15
-18,59,15
-18,59,15
-17,59,15
-17,60,15
-20,60,16
-19,59,15
-18,59,16
-19,59,15
-19,59,15
-19,59,16
-22,59,15
-21,58,15
-18,58,14
-18,58,14
-20,59,15
-18,59,15
-19,58,14
-19,58,14
-19,59,15
-21,60,15
-21,60,15
-20,60,16
-21,60,16
-20,59,16
-21,59,15
-21,60,14
-21,60,14
-21,60,15
-19,60,14
-19,60,14
-18,60,14
-17,60,14
-18,60,14
-17,60,13
-17,60,14
-16,59,13
-16,60,13
-18,60,14
-17,60,14
-18,60,15
-19,60,15
-19,61,15
-21,60,16
-17,58,18
-16,58,17
-21,58,13
-22,59,13
-20,61,14
-20,61,13
-20,62,15
-17,62,16
-19,58,15
-18,59,16
-16,59,17
-18,58,15
-18,58,14
-18,59,14
-19,58,13
-16,58,14
-17,59,14
-18,60,14
-17,60,14
-18,60,14
-16,60,15
-15,60,16
-16,60,16
-17,61,15
-17,60,15
-17,59,15
-16,58,15
-16,56,14
-17,59,13
-18,62,14
-19,62,15
-19,62,14
-19,61,14
-19,61,15
-19,61,15
-19,60,15
-18,60,16
-16,60,15
-17,60,14
-15,60,14
-14,60,12
-15,60,12
-14,60,13
-16,61,14
-16,60,16
-16,60,16
-17,60,15
-18,60,14
-19,61,14
-19,61,14
-17,60,15
-17,59,15
-17,59,14
-18,60,13
-18,60,13
-17,60,14
-17,61,15
-17,61,15
-16,61,16
-17,61,15
-16,60,15
-15,60,15
-15,60,15
-16,59,15
-16,59,14
-16,59,15
-16,60,14
-17,60,15
-17,60,15
-18,60,15
-17,60,15
-17,60,15
-18,60,15
-17,60,15
-17,60,15
-17,60,15
-16,60,15
-16,60,15
-17,60,15
-17,59,15
-18,59,15
-18,60,15
-18,60,15
-17,60,15
-17,61,15
-17,59,16
-18,59,15
-17,59,15
-18,60,14
-18,60,15
-17,60,15
-18,61,16
-18,61,16
-16,60,15
-17,59,15
-17,59,15
-18,59,14
-18,61,14
-18,61,15
-17,60,15
-16,60,16
-15,59,16
-16,59,15
-16,59,15
-16,59,15
-17,60,14
-16,60,15
-17,60,15
-17,61,17
-17,60,17
-18,60,17
-17,60,17
-17,59,16
-17,59,16
-19,59,15
-18,60,14
-18,60,14
-18,59,14
-18,59,16
-17,59,16
-18,58,16
-17,59,16
-18,59,16
-18,59,16
-18,60,15
-18,59,15
-18,59,15
-17,60,15
-17,60,15
-18,59,14
-18,59,14
-16,59,15
-17,60,15
-17,61,15
-17,60,16
-17,60,17
-16,61,17
-16,61,17
-17,60,16
-17,60,16
-17,59,15
-17,59,15
-18,59,15
-18,60,14
-19,59,14
-19,59,14
-18,59,15
-19,60,15
-19,60,15
-18,60,16
-18,60,16
-17,60,16
-17,60,17
-16,60,16
-16,60,17
-15,60,17
-16,59,16
-17,59,16
-17,59,16
-18,59,16
-19,59,16
-18,60,17
-18,59,15
-18,60,15
-16,59,14
-16,59,14
-16,59,15
-16,59,16
-16,58,17
-17,58,17
-17,59,18
-17,60,18
-18,61,18
-17,62,18
-16,61,17
-15,61,16
-14,60,16
-15,59,16
-16,59,16
-16,58,16
-17,58,16
-16,59,16
-16,59,15
-17,59,15
-16,59,16
-17,59,16
-17,60,17
-17,60,17
-17,59,16
-17,59,16
-17,59,16
-18,59,16
-17,59,16
-19,60,17
-19,61,18
-18,61,18
-18,60,18
-17,60,18
-16,60,18
-17,60,18
-16,60,17
-15,60,17
-15,59,16
-16,58,15
-16,57,15
-16,57,14
-17,58,15
-17,59,15
-19,60,16
-19,60,17
-19,60,17
-19,60,19
-19,60,19
-19,60,18
-18,61,18
-17,61,18
-16,61,18
-17,60,17
-16,58,17
-16,58,17
-16,58,16
-17,58,15
-17,58,15
-17,58,16
-18,59,16
-18,59,16
-19,59,16
-19,60,16
-19,60,17
-19,60,17
-18,60,17
-18,59,17
-17,60,17
-17,60,17
-17,60,17
-15,60,17
-15,60,17
-14,60,17
-14,60,17
-14,59,17
-14,59,17
-14,59,17
-14,59,17
-16,59,17
-16,59,17
-17,59,17
-19,60,17
-19,60,18
-19,60,18
-19,59,17
-19,60,17
-18,60,17
-17,59,17
-17,59,16
-17,58,16
-17,58,16
-17,58,16
-17,59,17
-18,59,17
-18,58,17
-19,59,18
-21,59,17
-19,59,18
-20,59,18
-20,59,19
-20,59,18
-20,58,18
-19,58,16
-18,59,16
-17,60,17
-17,60,17
-18,60,17
-18,60,17
-16,59,16
-16,59,16
-16,59,15
-16,60,16
-17,59,16
-17,60,16
-17,60,18
-18,61,18
-18,62,19
-18,61,19
-17,60,19
-17,59,18
-16,57,18
-16,58,17
-17,58,16
-16,58,15
-15,59,15
-15,58,15
-16,58,15
-16,59,16
-16,59,16
-18,59,16
-18,59,16
-18,59,16
-18,60,17
-18,59,17
-19,58,17
-20,59,17
-20,59,18
-21,60,18
-21,60,18
-21,60,17
-20,60,17
-20,61,18
-19,61,18
-19,62,18
-20,59,17
-19,58,17
-16,58,17
-17,59,15
-16,58,15
-15,59,15
-18,60,15
-17,61,16
-15,61,18
-19,60,16
-18,60,16
-17,58,18
-19,56,16
-20,56,16
-17,57,17
-20,58,17
-21,58,17
-20,59,16
-21,60,15
-22,60,15
-21,60,15
-20,59,16
-21,59,16
-21,59,15
-20,58,16
-20,59,16
-18,59,16
-19,59,16
-18,60,16
-18,60,17
-18,61,17
-18,61,18
-17,58,18
-16,59,17
-16,59,17
-16,60,15
-15,61,16
-16,61,16
-18,60,16
-18,60,17
-18,60,17
-17,60,17
-17,59,16
-18,59,16
-17,58,16
-17,58,15
-18,58,15
-17,59,15
-17,60,16
-16,60,16
-16,61,16
-15,61,16
-14,59,17
-15,59,18
-16,58,18
-16,58,18
-19,58,18
-19,59,18
-18,59,18
-20,59,17
-20,58,17
-19,58,16
-20,59,16
-19,60,16
-19,61,16
-17,60,16
-17,60,16
-15,60,17
-15,59,17
-15,59,17
-16,58,17
-17,58,17
-17,57,16
-17,58,17
-17,59,16
-17,60,16
-16,61,16
-15,60,16
-15,60,16
-18,59,15
-17,59,15
-17,59,16
-18,59,15
-18,60,15
-18,60,14
-17,61,14
-17,61,15
-16,61,15
-16,61,15
-16,61,15
-16,61,15
-16,60,15
-16,61,15
-17,61,14
-18,61,14
-18,61,15
-18,61,15
-19,61,15
-19,61,15
-18,61,15
-18,61,15
-19,61,16
-19,61,16
-19,60,16
-19,60,17
-17,58,16
-16,58,14
-16,58,13
-15,58,13
-15,57,12
-15,58,13
-13,61,15
-13,62,17
-15,61,15
-15,59,16
-12,57,17
-13,57,17
-15,59,16
-15,61,17
-17,61,16
-20,61,15
-19,60,15
-19,60,15
-19,59,15
-20,59,15
-20,59,15
-20,60,15
-21,60,16
-20,59,17
-20,60,17
-20,62,17
-19,62,17
-18,62,17
-18,61,17
-17,62,17
-15,61,16
-15,59,14
-13,59,14
-11,57,15
-14,58,16
-14,57,16
-16,58,16
-16,58,17
-16,59,17
-16,60,18
-17,60,18
-17,60,17
-17,60,18
-17,60,18
-17,60,18
-17,61,18
-17,60,17
-17,60,17
-15,59,17
-15,59,16
-15,59,16
-16,59,16
-17,59,16
-17,59,17
-18,58,17
-18,59,17
-19,59,18
-18,59,18
-19,60,18
-19,60,18
-17,60,19
-17,60,19
-17,60,19
-15,60,19
-15,60,20
-15,60,20
-15,59,20
-14,59,20
-15,58,20
-16,58,19
-15,57,20
-16,57,18
-17,58,18
-16,59,18
-17,59,18
-17,58,17
-17,57,18
-17,57,18
-17,58,19
-17,58,19
-18,58,19
-18,59,19
-18,59,20
-18,59,20
-18,59,20
-18,59,20
-17,59,20
-17,60,21
-16,60,21
-16,60,20
-15,60,20
-15,59,20
-15,59,19
-14,58,19
-15,59,19
-14,58,19
-15,59,19
-15,59,19
-14,59,19
-15,59,19
-14,58,20
-14,59,20
-14,59,20
-14,58,20
-14,58,20
-15,58,21
-14,58,21
-15,58,21
-16,58,20
-16,58,20
-16,58,20
-17,59,20
-17,59,20
-17,58,20
-17,59,20
-17,59,20
-17,58,20
-16,58,20
-16,58,20
-17,59,20
-17,59,21
-17,59,21
-17,60,21
-17,59,21
-17,60,21
-17,59,21
-17,59,21
-16,59,21
-15,59,20
-16,59,20
-15,58,19
-14,58,19
-15,58,18
-14,58,18
-15,57,18
-15,57,18
-15,58,18
-15,59,19
-15,59,19
-16,59,20
-15,59,21
-16,59,21
-17,58,21
-17,59,21
-17,59,21
-18,59,21
-18,59,20
-19,59,20
-19,59,20
-19,59,20
-19,58,19
-19,59,19
-18,59,19
-18,59,19
-18,59,19
-17,59,19
-17,59,19
-17,59,19
-17,59,19
-16,59,19
-16,59,19
-16,58,19
-16,58,19
-16,58,19
-17,58,19
-16,58,18
-17,59,19
-18,59,19
-18,59,19
-18,59,19
-18,59,18
-18,59,19
-17,59,19
-17,59,20
-17,59,20
-16,59,20
-16,59,20
-16,59,20
-17,59,20
-16,59,20
-16,59,19
-15,59,18
-15,59,17
-15,58,17
-14,58,18
-14,56,19
-14,55,18
-16,57,19
-17,58,19
-18,59,19
-17,60,20
-17,60,19
-16,59,20
-17,59,20
-18,59,20
-19,59,20
-19,58,19
-19,59,19
-18,59,19
-19,60,18
-19,60,19
-18,59,18
-18,59,18
-17,59,18
-16,59,19
-17,58,19
-16,58,19
-17,59,19
-17,59,18
-17,59,18
-17,60,18
-16,60,18
-15,60,18
-15,60,19
-14,60,19
-14,60,19
-13,59,19
-13,59,19
-14,59,18
-14,59,19
-14,59,19
-14,59,19
-15,59,18
-16,59,18
-16,59,18
-17,59,18
-17,59,19
-17,59,19
-18,60,19
-18,59,19
-18,59,19
-17,59,19
-17,59,20
-17,59,20
-16,60,19
-16,60,19
-15,59,19
-15,59,19
-15,58,19
-15,58,19
-15,58,19
-16,59,19
-16,59,19
-16,59,19
-16,59,19
-16,58,19
-17,59,19
-17,59,19
-17,59,19
-17,59,20
-17,59,19
-17,59,20
-17,59,19
-17,59,19
-16,58,19
-16,59,19
-16,59,19
-17,59,19
-17,59,19
-17,58,19
-18,58,19
-17,59,19
-17,59,19
-17,60,20
-16,59,20
-17,59,20
-16,59,19
-16,59,19
-16,59,18
-16,58,19
-16,58,19
-16,58,19
-16,58,19
-17,58,18
-17,59,18
-17,59,18
-17,59,17
-17,59,17
-17,59,18
-17,59,19
-17,59,19
-18,59,19
-19,59,19
-19,59,20
-19,59,20
-19,59,19
-19,59,18
-19,59,18
-19,58,17
-19,59,17
-19,60,17
-19,59,17
-18,59,17
-17,59,17
-16,59,17
-16,59,17
-16,59,17
-16,59,17
-16,59,17
-16,59,17
-16,59,17
-16,59,18
-18,59,18
-18,60,18
-18,60,19
-18,60,19
-18,59,18
-18,59,18
-17,59,18
-17,59,18
-17,59,17
-16,59,17
-16,58,17
-17,58,17
-17,58,17
-17,59,17
-18,60,17
-19,60,18
-19,60,18
-20,60,19
-19,60,18
-19,60,18
-18,59,17
-17,59,17
-17,59,17
-17,58,17
-17,59,17
-17,58,17
-17,58,17
-17,59,17
-17,59,18
-18,59,18
-18,58,19
-18,58,19
-18,59,19
-19,59,18
-19,59,18
-19,59,18
-18,58,17
-18,58,17
-18,58,17
-18,59,16
-18,59,16
-17,59,16
-17,59,17
-17,60,17
-17,61,18
-16,60,18
-17,60,19
-16,60,19
-17,60,19
-18,60,18
-18,60,17
-18,60,17
-17,60,16
-17,59,16
-17,59,15
-17,59,15
-17,59,15
-16,58,15
-16,58,15
-16,58,15
-16,58,15
-17,59,16
-17,59,16
-17,59,17
-18,59,17
-19,59,18
-19,59,18
-19,60,18
-19,60,18
-18,60,18
-18,59,17
-17,59,17
-17,59,16
-19,59,15
-18,59,15
-18,60,15
-18,60,16
-17,60,17
-16,60,17
-17,59,16
-16,59,17
-15,58,16
-17,59,16
-17,60,16
-17,60,15
-18,59,15
-17,59,15
-18,59,15
-18,59,14
-19,60,15
-19,60,15
-19,60,15
-18,60,16
-18,60,16
-18,61,16
-18,61,17
-18,61,17
-18,62,18
-17,62,18
-16,61,18
-15,61,18
-15,60,18
-15,60,17
-15,59,17
-16,58,17
-16,58,17
-17,57,16
-18,58,16
-18,58,16
-19,58,15
-19,58,16
-19,59,16
-19,59,17
-19,59,18
-19,59,19
-18,60,19
-17,59,20
-17,59,20
-16,59,20
-16,58,20
-16,59,19
-16,59,19
-16,59,19
-16,59,19
-17,59,18
-17,59,19
-17,59,18
-17,59,18
-17,59,18
-17,59,18
-16,59,18
-16,59,18
-16,59,19
-16,59,19
-15,59,20
-16,59,19
-16,59,19
-16,59,19
-16,59,19
-16,59,19
-17,59,19
-17,59,19
-17,59,19
-17,59,19
-17,59,19
-17,59,19
-17,59,19
-17,59,20
-17,59,20
-16,59,20
-16,59,20
-16,59,19
-16,59,19
-15,59,20
-16,59,19
-16,59,19
-15,59,19
-15,59,19
-15,59,19
-16,59,19
-16,59,19
-16,59,19
-16,59,19
-16,59,19
-16,59,19
-16,59,19
-16,59,19
-16,59,20
-16,59,19
-16,59,20
-15,59,19
-16,59,19
-16,59,20
-16,59,19
-15,60,21
-17,57,17
-19,58,16
-15,57,20
-17,57,18
-17,57,18
-15,59,19
-18,61,17
-18,61,18
-17,61,18
-18,61,18
-19,61,19
-18,60,20
-18,60,20
-18,61,21
-17,60,20
-16,59,20
-14,58,19
-13,57,19
-13,57,18
-13,56,18
-14,57,17
-16,58,16
-17,59,15
-17,58,15
-17,58,15
-17,59,16
-18,58,16
-19,58,16
-19,59,17
-18,58,18
-17,57,18
-19,57,17
-19,58,18
-20,57,18
-21,59,18
-18,65,18
-18,65,19
-19,62,18
-17,60,19
-15,60,20
-17,60,20
-17,61,18
-17,61,18
-18,58,17
-16,57,17
-16,57,18
-18,59,17
-19,59,16
-18,60,17
-18,59,16
-17,58,15
-16,58,15
-17,58,15
-17,58,16
-17,59,17
-17,59,17
-16,58,17
-16,59,18
-17,59,19
-18,59,20
-18,59,20
-19,59,19
-18,59,19
-18,59,19
-19,60,19
-19,60,18
-19,59,18
-19,59,17
-19,59,17
-19,58,16
-19,59,15
-18,59,16
-18,60,16
-18,61,17
-18,61,17
-17,59,17
-16,58,17
-16,59,18
-16,59,19
-15,59,19
-15,59,18
-15,59,18
-15,59,18
-15,60,17
-16,60,17
-15,61,19
-15,64,20
-16,60,20
-17,57,20
-16,56,20
-16,57,20
-18,58,19
-19,58,18
-19,60,17
-19,58,17
-19,58,16
-17,58,16
-17,58,16
-16,58,15
-17,60,16
-17,59,17
-16,59,17
-16,58,18
-15,58,18
-15,58,19
-15,59,20
-16,60,21
-16,59,21
-17,60,21
-17,60,21
-17,59,21
-16,59,20
-15,59,19
-15,59,18
-16,60,17
-17,60,17
-17,60,18
-18,60,18
-18,59,18
-18,59,18
-18,58,17
-18,57,16
-18,58,15
-17,59,17
-17,60,17
-16,60,18
-15,60,19
-14,59,20
-14,58,20
-12,58,21
-11,58,22
-13,58,21
-15,57,20
-15,57,19
-16,59,18
-17,60,17
-17,60,17
-16,60,17
-17,60,17
-17,60,17
-18,59,17
-17,59,17
-16,59,17
-16,59,17
-17,59,17
-17,59,18
-17,59,18
-17,59,19
-17,59,19
-17,59,19
-18,59,18
-19,59,18
-18,59,18
-18,59,18
-19,59,18
-18,59,18
-17,60,18
-18,59,18
-18,60,18
-18,62,19
-18,61,20
-17,60,21
-16,60,22
-16,59,21
-14,57,20
-14,57,18
-15,57,17
-14,57,17
-14,57,17
-15,57,17
-15,57,17
-15,56,17
-16,56,17
-17,57,18
-18,58,19
-19,58,20
-19,60,22
-21,60,22
-21,60,23
-21,60,23
-21,59,21
-21,59,21
-20,60,20
-20,60,20
-18,60,20
-17,59,20
-14,59,21
-13,58,21
-12,58,21
-11,58,21
-11,58,21
-12,57,19
-12,56,19
-12,56,18
-14,55,16
-17,56,16
-17,58,16
-20,60,17
-20,61,17
-20,61,19
-20,62,20
-19,63,22
-19,61,23
-19,59,23
-18,60,23
-16,61,23
-16,60,21
-16,59,20
-15,58,18
-14,56,17
-14,56,18
-15,57,18
-16,59,19
-17,60,19
-17,62,20
-16,61,20
-16,60,20
-15,59,20
-14,59,20
-14,59,20
-13,58,20
-13,58,21
-12,58,21
-13,57,21
-14,57,20
-13,57,20
-14,57,19
-14,58,19
-14,58,19
-16,58,19
-15,58,21
-14,58,22
-18,59,21
-19,59,22
-19,59,21
-20,60,21
-17,59,21
-17,59,21
-16,57,21
-15,57,21
-17,57,21
-19,59,20
-18,59,18
-17,59,18
-17,58,19
-15,57,20
-17,59,20
-16,61,22
-15,61,22
-15,57,20
-15,56,19
-15,56,20
-15,56,19
-18,58,18
-18,59,17
-18,59,16
-17,58,15
-17,59,16
-19,60,16
-21,61,17
-21,61,18
-22,62,20
-21,62,21
-21,62,21
-22,60,21
-21,59,20
-20,59,19
-18,59,19
-18,59,18
-17,59,18
-16,59,17
-15,58,17
-15,58,17
-14,58,16
-14,57,16
-14,57,16
-13,57,16
-14,58,17
-14,58,18
-15,59,19
-16,59,19
-15,59,19
-16,58,20
-17,59,19
-17,59,20
-17,59,19
-18,59,19
-18,60,19
-19,60,19
-19,60,18
-19,60,18
-19,60,18
-18,60,18
-18,60,18
-18,60,19
-17,59,19
-17,59,19
-17,59,19
-17,59,18
-17,59,19
-16,59,19
-16,59,18
-16,59,18
-17,59,18
-17,59,17
-17,59,17
-17,59,17
-17,58,17
-17,59,17
-17,58,17
-17,58,17
-17,58,18
-17,59,18
-17,58,19
-17,59,19
-17,59,19
-17,59,19
-17,59,19
-17,59,18
-17,59,18
-17,59,17
-17,59,17
-17,60,17
-16,59,18
-18,58,15
-18,58,16
-17,59,16
-19,60,15
-18,60,15
-17,59,15
-19,61,15
-17,61,16
-18,60,18
-18,58,18
-18,59,19
-17,59,19
-18,59,18
-20,60,17
-20,60,18
-18,59,18
-20,59,17
-19,60,18
-20,60,17
-20,60,17
-20,60,16
-20,59,15
-19,59,15
-19,59,15
-19,59,14
-19,59,15
-19,59,16
-19,58,16
-18,59,17
-17,59,17
-17,58,17
-17,58,16
-18,58,17
-17,57,18
-17,58,18
-19,59,18
-20,60,17
-21,61,15
-20,58,15
-18,57,15
-18,58,15
-18,59,16
-19,59,17
-21,60,16
-21,59,15
-20,59,15
-18,58,17
-18,59,17
-19,60,17
-20,60,18
-20,61,16
-20,61,16
-19,59,16
-18,59,17
-17,60,17
-17,60,18
-18,61,16
-18,61,16
-17,59,16
-17,59,15
-17,59,15
-18,58,16
-17,58,16
-17,58,17
-17,58,16
-18,57,15
-18,56,14
-18,55,16
-22,59,15
-22,61,16
-20,61,16
-24,62,16
-23,61,16
-20,61,18
-21,61,18
-20,61,17
-18,60,17
-18,60,15
-19,60,15
-18,59,15
-17,59,15
-18,59,15
-16,58,15
-17,58,16
-18,58,15
-18,59,16
-20,60,17
-20,60,17
-19,61,17
-18,62,17
-18,61,17
-21,57,18
-17,58,21
-14,59,22
-16,57,17
-18,57,16
-18,58,14
-19,58,14
-17,56,15
-17,56,15
-19,57,15
-19,59,15
-19,60,16
-21,62,15
-22,62,16
-21,59,17
-19,58,18
-19,59,19
-17,58,21
-18,59,19
-19,60,18
-18,58,20
-18,57,19
-17,58,20
-16,59,19
-18,58,18
-17,58,16
-21,61,13
-20,56,13
-19,55,15
-13,58,18
-17,58,16
-19,57,15
-19,62,13
-23,63,12
-22,60,14
-18,57,17
-17,59,17
-17,60,18
-18,60,19
-19,62,16
-19,63,16
-18,61,16
-20,58,16
-18,58,16
-15,59,18
-15,59,17
-17,60,16
-18,60,16
-18,60,14
-20,60,14
-16,58,16
-16,58,17
-17,59,17
-18,60,15
-18,59,16
-18,60,16
-19,61,17
-18,61,16
-19,61,16
-19,59,16
-19,58,17
-17,58,17
-17,57,17
-18,58,16
-18,58,16
-18,58,15
-18,60,16
-18,60,17
-21,61,16
-21,61,16
-19,61,17
-18,60,18
-17,59,18
-17,58,19
-18,58,18
-18,58,18
-16,57,18
-17,57,17
-16,58,17
-17,58,17
-18,60,18
-18,61,19
-19,60,18
-18,59,18
-17,57,17
-17,56,16
-16,57,16
-16,58,16
-17,59,17
-17,59,18
-17,59,18
-17,59,20
-17,59,19
-19,59,18
-20,59,19
-18,61,21
-18,61,22
-18,60,20
-19,59,19
-20,60,19
-18,60,19
-19,60,19
-18,60,20
-18,60,18
-18,60,16
-17,59,16
-15,57,16
-15,57,15
-15,58,14
-16,59,15
-16,58,15
-17,59,15
-18,59,17
-18,59,17
-18,59,18
-17,59,20
-18,60,20
-18,60,20
-18,61,20
-19,60,20
-19,59,19
-18,58,18
-17,58,19
-17,59,18
-18,60,18
-17,59,17
-17,59,17
-16,58,17
-15,59,17
-15,59,17
-16,59,17
-16,60,17
-17,59,17
-18,58,16
-18,57,17
-18,57,17
-19,58,18
-19,58,18
-18,58,19
-19,59,17
-20,59,16
-20,57,18
-19,59,19
-20,59,19
-20,61,19
-20,60,18
-21,59,17
-20,58,18
-18,59,19
-18,59,19
-17,59,20
-19,58,19
-19,58,19
-18,58,17
-19,59,15
-19,59,15
-18,59,16
-18,59,15
-18,60,16
-18,59,15
-18,60,16
-17,59,16
-18,60,15
-19,59,17
-17,58,18
-17,57,18
-17,57,20
-16,57,20
-19,58,19
-19,58,19
-19,59,19
-19,60,18
-20,61,16
-21,60,17
-18,59,17
-19,59,18
-19,59,17
-20,60,17
-20,59,16
-20,59,15
-18,58,16
-18,59,17
-18,59,17
-19,59,17
-18,60,18
-17,60,19
-18,59,17
-17,58,17
-18,59,16
-18,59,18
-18,57,18
-18,57,18
-17,57,19
-18,57,19
-18,59,19
-19,59,19
-19,59,20
-19,59,20
-21,59,19
-21,60,19
-20,59,19
-19,58,18
-18,58,18
-18,57,17
-17,58,17
-17,57,16
-18,58,17
-17,58,18
-17,58,18
-19,59,19
-19,59,19
-19,59,19
-19,58,20
-19,57,19
-18,57,18
-20,57,17
-19,59,17
-20,60,18
-20,60,16
-20,58,17
-19,58,16
-19,56,16
-18,58,17
-19,59,16
-19,61,17
-20,61,18
-22,61,20
-25,62,21
-24,62,20
-25,61,20
-24,58,19
-20,56,17
-19,56,15
-17,57,15
-17,57,14
-17,56,14
-16,57,14
-16,57,14
-17,57,14
-17,57,14
-17,58,15
-18,57,16
-19,58,16
-21,60,17
-22,60,18
-24,60,19
-25,61,20
-25,61,20
-23,59,20
-23,58,19
-22,58,18
-19,59,18
-18,58,18
-17,58,17
-17,58,17
-16,58,16
-17,58,16
-18,58,16
-17,59,17
-18,59,17
-20,59,17
-20,59,17
-18,59,18
-20,58,17
-20,58,17
-18,59,18
-20,58,18
-20,58,18
-19,59,18
-21,60,18
-20,60,19
-20,58,20
-20,58,19
-19,58,19
-18,58,17
-18,59,17
-17,58,17
-18,58,18
-18,58,18
-18,59,19
-17,59,19
-18,60,18
-18,59,18
-17,58,18
-17,57,18
-17,57,18
-17,58,19
-18,58,19
-18,59,19
-18,59,19
-18,59,18
-18,58,18
-18,58,18
-18,58,19
-17,58,19
-18,58,19
-21,56,18
-21,57,18
-20,58,20
-20,58,19
-20,59,19
-21,60,20
-18,61,19
-19,61,19
-20,60,18
-17,61,17
-19,62,16
-18,60,15
-15,59,15
-15,58,15
-15,55,15
-15,55,17
-16,55,17
-19,57,17
-19,58,17
-20,59,19
-22,60,19
-22,59,20
-21,58,19
-21,59,19
-21,60,18
-21,60,18
-20,59,17
-20,59,16
-19,59,16
-18,60,16
-18,59,16
-18,59,16
-17,59,17
-17,59,17
-17,59,17
-17,59,17
-16,59,17
-17,59,17
-17,59,17
-18,59,18
-18,59,17
-19,59,17
-19,59,17
-19,59,17
-20,59,17
-20,59,17
-19,59,17
-19,59,16
-19,59,17
-19,59,17
-18,60,17
-18,60,17
-18,59,16
-17,58,16
-17,58,16
-17,59,15
-17,57,16
-17,58,16
-18,59,16
-18,59,16
-18,60,16
-19,59,16
-19,59,17
-19,59,17
-19,59,17
-20,59,17
-19,60,17
-20,60,17
-19,59,17
-19,59,16
-19,59,16
-19,59,17
-18,59,16
-18,60,16
-17,59,16
-18,60,16
-18,59,16
-17,58,15
-17,58,15
-18,58,15
-18,59,15
-18,60,15
-18,59,15
-18,59,15
-19,60,17
-19,59,16
-19,58,16
-19,59,17
-19,60,17
-19,60,18
-20,58,17
-20,57,16
-18,57,16
-18,59,15
-19,62,15
-19,62,15
-20,63,16
-19,61,15
-19,61,15
-19,58,14
-17,58,16
-17,59,17
-18,59,16
-18,60,17
-19,60,16
-19,58,15
-18,58,17
-18,59,17
-19,60,17
-20,60,17
-20,60,17
-20,59,16
-20,58,15
-19,58,16
-18,58,16
-19,59,16
-19,59,16
-19,59,16
-20,59,15
-19,58,15
-18,58,16
-19,59,16
-19,59,17
-19,59,18
-20,59,17
-20,59,16
-20,58,17
-20,59,16
-21,59,17
-19,59,17
-19,59,16
-20,59,16
-19,60,16
-20,60,17
-21,59,18
-17,59,20
-16,58,19
-19,57,18
-17,57,18
-18,58,18
-19,58,17
-19,59,16
-19,59,16
-19,59,16
-19,59,16
-20,58,17
-19,60,18
-18,60,18
-18,60,18
-18,62,19
-16,60,19
-16,59,19
-16,53,19
-16,54,19
-18,56,19
-21,59,17
-16,61,19
-15,61,19
-17,63,17
-17,60,16
-15,58,17
-17,58,17
-18,59,17
-17,58,17
-18,58,16
-18,57,15
-17,58,16
-17,60,17
-18,62,18
-18,62,19
-19,59,20
-18,60,20
-17,60,21
-18,58,20
-21,57,18
-21,57,19
-19,58,19
-20,60,18
-21,60,18
-20,60,17
-19,59,15
-19,59,15
-18,58,15
-17,58,16
-18,59,16
-17,59,18
-20,59,17
-21,59,18
-19,56,19
-17,55,20
-17,57,20
-18,59,20
-18,61,19
-19,61,19
-17,60,19
-16,60,18
-14,58,17
-14,59,17
-14,59,17
-15,60,17
-16,59,17
-17,59,17
-18,59,17
-17,59,18
-17,59,18
-17,58,18
-18,58,18
-18,58,19
-18,58,19
-20,60,19
-21,60,19
-21,59,19
-20,59,18
-19,59,18
-18,59,18
-18,59,18
-18,58,18
-18,58,18
-18,58,17
-19,58,16
-18,60,16
-19,59,16
-20,58,16
-17,58,17
-18,58,17
-18,59,17
-17,59,17
-18,59,17
-17,58,17
-17,59,17
-17,59,17
-17,59,17
-18,59,18
-17,59,18
-17,59,19
-18,60,18
-17,60,18
-17,60,19
-17,59,19
-17,59,18
-17,59,18
-18,59,17
-18,59,17
-18,60,17
-18,59,16
-19,58,15
-19,58,15
-20,58,15
-21,59,15
-21,60,16
-20,60,18
-21,60,18
-20,60,19
-19,59,19
-19,59,19
-16,60,20
-16,61,19
-17,62,18
-18,60,16
-14,56,16
-14,54,15
-14,54,16
-15,56,17
-16,58,16
-19,61,16
-20,61,15
-21,60,15
-19,59,15
-19,58,15
-19,57,16
-19,58,18
-20,61,20
-20,62,20
-20,61,19
-19,59,18
-19,59,18
-19,58,19
-19,59,20
-18,60,20
-19,61,18
-19,60,16
-19,59,16
-19,58,15
-17,59,16
-16,60,17
-16,60,16
-16,60,15
-15,59,15
-14,58,16
-14,58,16
-14,58,15
-14,57,17
-16,58,17
-17,59,18
-17,60,18
-17,59,18
-18,59,19
-18,58,18
-17,60,19
-18,60,19
-19,61,19
-19,61,19
-19,61,18
-18,60,18
-17,59,17
-17,58,17
-17,58,16
-16,59,15
-16,58,16
-17,58,16
-17,59,17
-17,59,17
-18,60,18
-18,60,18
-18,59,19
-18,59,18
-18,59,18
-17,59,18
-18,59,18
-18,60,18
-17,60,19
-17,60,18
-17,59,18
-17,59,17
-17,58,17
-17,59,17
-17,59,17
-19,59,17
-18,59,18
-19,59,18
-18,58,18
-18,58,18
-18,58,18
-17,58,18
-17,58,18
-17,59,18
-17,59,18
-17,59,18
-17,59,17
-16,58,17
-16,58,17
-17,58,17
-17,58,17
-17,59,17
-17,59,17
-18,59,16
-18,60,17
-17,60,17
-18,61,17
-17,61,18
-17,61,19
-18,61,19
-17,60,19
-18,58,18
-17,58,17
-17,58,17
-18,59,17
-18,59,17
-19,59,17
-19,59,16
-19,59,16
-19,59,16
-20,59,16
-20,58,16
-20,58,17
-20,59,17
-20,60,18
-20,59,17
-19,59,17
-19,59,16
-18,59,17
-18,59,17
-19,59,17
-19,59,17
-19,60,17
-18,59,17
-18,59,17
-18,59,17
-18,59,17
-18,59,17
-18,59,17
-18,59,18
-18,59,17
-18,59,18
-18,59,18
-18,59,18
-19,60,18
-19,59,18
-19,59,17
-19,57,16
-19,58,17
-19,59,18
-19,59,18
-19,59,17
-17,59,16
-16,58,15
-16,57,15
-15,57,16
-16,57,16
-16,58,16
-16,60,17
-17,61,17
-17,61,18
-16,62,20
-18,61,19
-19,60,19
-18,60,19
-19,60,20
-19,59,20
-20,60,20
-19,59,19
-19,58,18
-18,56,17
-17,57,16
-17,58,16
-18,59,16
-18,58,15
-17,57,15
-16,56,15
-16,55,16
-16,56,16
-16,60,17
-17,63,17
-17,62,17
-16,62,18
-15,61,19
-15,60,19
-15,59,19
-14,59,20
-14,59,21
-15,59,20
-16,58,19
-17,58,18
-17,57,18
-19,57,17
-20,57,16
-22,57,15
-22,57,15
-21,58,16
-21,61,14
-22,62,13
-21,62,14
-21,61,13
-21,61,14
-20,61,16
-21,60,16
-20,59,17
-19,60,20
-18,61,23
-17,60,22
-17,59,22
-17,58,20
-18,58,20
-18,59,18
-19,59,18
-19,59,17
-19,57,16
-18,57,16
-18,58,15
-17,59,16
-17,59,16
-16,59,17
-15,58,18
-15,56,17
-15,56,17
-16,59,17
-16,59,18
-16,59,18
-18,58,19
-17,59,19
-19,60,18
-18,59,18
-15,57,18
-16,56,18
-17,57,17
-17,60,19
-18,60,18
-18,61,19
-17,60,19
-16,59,19
-16,60,19
-15,60,19
-16,60,18
-16,60,18
-14,60,18
-13,60,19
-18,60,16
-18,60,19
-15,58,19
-17,58,17
-18,59,18
-19,60,18
-22,59,17
-21,60,18
-20,59,17
-19,60,15
-19,59,16
-18,58,16
-17,58,16
-17,58,17
-17,59,17
-17,59,17
-18,60,17
-17,59,17
-16,59,17
-17,59,17
-16,58,18
-17,57,18
-16,58,19
-16,59,18
-18,60,17
-18,60,17
-18,60,17
-18,60,18
-17,60,18
-16,59,19
-18,58,18
-18,58,18
-17,58,17
-18,60,16
-18,60,17
-17,60,17
-17,59,17
-18,59,17
-18,58,17
-20,60,16
-20,60,16
-17,60,17
-17,60,19
-17,60,19
-17,59,19
-18,61,17
-18,60,17
-18,58,17
-17,59,18
-15,60,19
-17,60,17
-17,60,15
-16,60,15
-16,56,15
-13,56,16
-13,57,16
-13,58,17
-16,58,16
-17,58,17
-18,61,16
-20,60,16
-17,60,18
-16,61,18
-16,61,18
-16,62,19
-17,63,18
-16,61,17
-16,60,17
-15,58,16
-14,57,17
-13,59,16
-15,61,15
-15,61,16
-14,59,15
-15,60,15
-15,60,16
-14,60,17
-15,61,17
-15,61,18
-15,60,17
-14,60,16
-15,60,17
-15,60,16
-16,60,16
-16,60,16
-16,61,16
-16,61,16
-17,60,17
-16,60,17
-17,60,16
-17,60,16
-16,59,16
-16,59,16
-16,59,16
-15,59,17
-15,59,16
-15,59,17
-15,59,17
-16,60,18
-16,59,18
-16,60,18
-18,60,17
-18,60,18
-18,60,17
-18,60,17
-18,60,17
-17,60,18
-17,61,18
-17,60,17
-16,59,17
-15,58,18
-15,57,17
-17,57,17
-18,58,17
-18,59,17
-18,61,17
-18,60,16
-17,59,16
-16,58,16
-14,57,16
-14,58,16
-18,58,17
-17,59,18
-17,60,18
-18,60,19
-17,60,20
-17,60,20
-18,59,19
-18,59,19
-18,58,18
-19,58,18
-19,58,17
-19,58,17
-20,60,16
-20,61,15
-19,60,17
-19,57,18
-19,57,18
-17,56,20
-17,55,17
-20,56,15
-18,57,17
-19,57,14
-20,58,14
-20,61,15
-20,61,15
-21,61,15
-20,63,15
-19,62,18
-19,61,18
-20,60,18
-19,59,19
-19,58,20
-19,58,20
-19,60,20
-19,60,19
-18,59,18
-17,58,17
-17,58,17
-18,58,16
-19,58,15
-19,59,15
-20,60,15
-18,58,15
-19,58,16
-18,59,17
-18,60,17
-18,60,17
-19,58,15
-18,58,16
-18,58,17
-19,58,17
-20,58,18
-21,59,17
-20,59,16
-15,60,19
-15,59,19
-19,61,16
-17,59,17
-15,60,19
-17,61,18
-17,60,17
-16,60,17
-16,59,17
-16,59,17
-17,58,18
-16,59,19
-16,59,19
-18,57,17
-17,58,17
-15,59,16
-16,64,12
-18,58,17
-17,56,16
-19,59,17
-17,60,19
-17,60,19
-18,59,17
-16,62,17
-17,61,15
-17,58,15
-15,58,15
-16,59,15
-17,60,15
-15,59,17
-16,60,16
-17,60,16
-15,60,17
-16,60,17
-16,60,17
-15,60,18
-15,60,17
-17,61,17
-17,60,17
-17,60,16
-16,59,18
-16,59,19
-16,58,19
-18,60,17
-21,62,17
-22,62,16
-21,61,17
-20,61,17
-19,60,18
-18,59,17
-17,57,17
-16,57,18
-16,59,18
-17,59,17
-16,58,17
-15,57,17
-14,56,16
-14,56,16
-12,57,16
-13,59,15
-13,60,16
-15,60,15
-16,58,16
-15,57,17
-15,57,18
-15,58,19
-16,59,19
-18,61,19
-19,62,19
-19,62,20
-18,61,20
-17,61,19
-17,60,19
-21,57,17
-20,57,18
-18,58,19
-21,58,18
-21,58,18
-19,58,17
-18,61,15
-19,61,16
-17,59,17
-16,59,19
-16,60,19
-17,59,19
-17,59,18
-17,59,18
-17,61,16
-17,59,17
-16,59,17
-17,59,18
-17,59,18
-18,59,17
-18,59,17
-18,60,16
-17,59,16
-17,58,17
-17,59,18
-17,60,18
-17,61,18
-18,61,18
-19,63,17
-19,61,19
-16,57,20
-16,57,19
-17,59,18
-18,59,16
-19,59,15
-19,59,16
-18,58,17
-18,58,18
-18,57,18
-18,58,17
-19,58,17
-17,57,16
-18,57,14
-18,55,14
-17,56,15
-18,61,17
-17,63,18
-18,63,20
-19,63,20
-19,63,21
-20,60,21
-19,58,21
-18,59,21
-18,59,20
-18,59,19
-18,57,17
-18,57,15
-17,59,15
-17,59,15
-18,59,16
-17,58,17
-19,58,17
-19,59,19
-19,59,19
-20,59,18
-18,59,18
-17,58,19
-15,57,20
-15,59,20
-16,59,20
-16,60,20
-16,59,20
-15,59,19
-16,57,19
-17,57,19
-17,57,19
-17,57,19
-19,57,18
-19,57,18
-21,56,18
-22,57,18
-22,57,19
-22,58,18
-22,58,19
-23,58,19
-23,60,20
-22,59,21
-22,59,21
-21,59,21
-20,58,20
-19,58,20
-19,57,19
-19,57,18
-19,58,18
-19,59,18
-18,60,17
-19,60,16
-17,58,16
-17,56,15
-16,56,15
-16,57,17
-16,58,17
-17,59,18
-18,60,19
-17,62,19
-18,61,19
-18,60,19
-16,59,19
-16,60,20
-15,61,19
-15,61,19
-15,61,18
-15,61,18
-15,58,18
-15,57,18
-16,59,18
-17,59,19
-18,57,20
-17,56,21
-16,57,21
-16,61,21
-14,62,22
-14,60,20
-15,59,18
-14,57,17
-13,57,17
-13,59,18
-13,60,18
-13,60,18
-14,60,19
-14,59,20
-14,59,20
-14,59,20
-15,58,20
-15,59,20
-15,59,20
-16,59,21
-15,59,21
-17,59,20
-17,60,20
-17,60,20
-18,60,20
-18,60,20
-17,60,20
-17,59,20
-15,59,20
-15,59,20
-15,58,19
-15,57,18
-14,58,18
-14,58,18
-14,57,18
-14,57,19
-14,58,19
-15,58,20
-15,58,20
-16,58,20
-16,58,21
-16,58,21
-17,59,21
-17,59,21
-17,59,21
-18,59,21
-18,59,21
-17,59,20
-17,59,20
-16,59,20
-16,59,20
-16,59,20
-16,59,20
-16,59,20
-15,59,20
-15,59,20
-15,59,20
-15,58,19
-15,59,19
-15,59,19
-16,59,19
-16,58,18
-17,58,18
-17,59,18
-18,59,18
-18,59,18
-19,60,18
-19,60,18
-19,60,19
-18,60,18
-18,60,18
-17,61,18
-17,60,18
-14,59,18
-14,59,19
-14,60,19
-13,60,19
-14,59,18
-14,58,18
-14,58,19
-16,57,18
-16,58,19
-16,59,19
-17,61,18
-19,60,18
-19,60,18
-19,59,19
-17,58,20
-18,59,20
-18,60,19
-18,60,18
-18,59,17
-16,58,18
-14,58,19
-14,59,19
-13,60,21
-20,58,19
-21,56,19
-19,55,18
-20,54,17
-21,55,16
-20,58,16
-21,59,15
-21,60,15
-19,61,16
-19,63,17
-20,62,16
-19,62,16
-17,61,18
-16,61,19
-16,60,19
-16,58,19
-17,58,19
-17,59,19
-17,60,19
-16,63,21
-12,63,24
-12,62,25
-14,60,25
-13,58,24
-14,59,23
-17,59,21
-17,57,18
-18,55,16
-19,54,14
-18,55,14
-18,56,14
-19,56,14
-19,56,15
-19,56,15
-17,56,17
-19,56,18
-18,57,19
-18,59,20
-18,60,21
-18,60,22
-18,60,21
-18,60,21
-18,61,21
-17,59,21
-19,59,21
-18,60,21
-18,61,20
-18,61,20
-18,60,20
-18,61,19
-18,60,17
-18,59,17
-18,58,16
-18,58,16
-18,58,16
-18,59,17
-18,59,18
-18,59,19
-18,57,19
-18,56,19
-18,56,20
-18,56,20
-18,57,19
-19,58,19
-19,60,18
-19,60,17
-19,59,17
-20,58,15
-20,58,16
-19,59,17
-19,59,18
-19,59,18
-18,58,19
-17,58,19
-17,59,20
-18,59,21
-18,59,21
-19,59,21
-19,59,21
-19,59,20
-18,59,19
-18,59,19
-18,58,18
-17,58,18
-17,59,18
-16,59,18
-16,58,17
-15,58,18
-15,58,18
-15,58,18
-15,57,19
-16,57,19
-17,58,19
-17,59,20
-18,59,20
-18,59,19
-18,59,20
-18,60,20
-19,60,19
-18,59,19
-18,59,18
-18,59,18
-18,59,19
-18,59,19
-18,59,19
-17,59,19
-17,59,19
-17,59,20
-17,59,19
-17,58,19
-17,58,19
-17,59,18
-17,58,18
-17,58,18
-17,58,18
-17,59,18
-17,59,18
-16,59,18
-16,59,18
-16,59,18
-15,59,18
-16,59,19
-16,58,19
-16,58,19
-17,58,18
-17,59,18
-17,59,18
-17,58,17
-18,58,17
-17,57,17
-17,59,17
-18,60,17
-18,62,16
-19,63,16
-19,62,16
-19,60,15
-19,59,15
-17,58,16
-19,60,18
-19,60,18
-19,61,19
-20,61,19
-20,60,19
-20,59,19
-19,58,20
-19,58,20
-18,57,21
-19,60,20
-16,61,21
-16,59,17
-19,56,14
-19,55,14
-17,55,14
-17,57,14
-17,58,14
-18,58,13
-18,57,14
-18,56,14
-17,57,17
-16,59,19
-18,59,21
-19,59,21
-19,59,22
-20,59,22
-20,60,21
-20,61,21
-21,60,20
-20,58,20
-21,60,19
-23,59,19
-23,58,18
-22,60,18
-22,62,18
-22,62,19
-20,59,17
-22,58,16
-23,56,16
-18,57,19
-14,60,22
-18,62,20
-17,59,19
-12,57,21
-10,56,19
-16,55,18
-13,55,18
-13,57,19
-16,59,18
-16,59,18
-15,59,19
-16,59,19
-16,59,19
-16,60,20
-17,60,20
-18,60,19
-19,58,19
-18,57,19
-18,57,19
-17,57,20
-17,57,20
-19,58,20
-18,58,20
-16,59,21
-15,59,22
-15,60,22
-16,60,22
-16,59,20
-16,58,19
-16,58,18
-17,60,17
-16,58,18
-14,59,20
-13,61,20
-13,63,20
-13,63,19
-15,62,16
-14,61,16
-12,59,16
-11,57,17
-11,57,18
-12,58,19
-13,59,19
-14,59,20
-15,59,20
-15,59,21
-16,60,22
-17,60,21
-19,60,20
-20,60,19
-19,60,19
-18,59,18
-18,58,18
-18,58,18
-17,58,18
-17,59,18
-16,59,18
-16,59,18
-15,58,19
-15,57,19
-16,57,19
-16,57,19
-17,57,19
-19,57,18
-17,56,16
-16,56,16
-15,60,18
-17,62,19
-19,63,18
-19,63,20
-17,61,20
-14,62,23
-7,64,22
-21,59,18
-23,57,15
-20,56,14
-19,57,15
-12,60,19
-14,58,16
-16,57,17
-10,57,17
-14,59,17
-14,61,17
-16,60,17
-17,58,17
-17,58,18
-18,58,18
-16,58,18
-17,59,18
-19,59,17
-17,60,18
-16,60,18
-20,58,15
-18,58,19
-16,59,20
-16,59,19
-17,58,17
-18,59,16
-18,59,15
-16,59,15
-16,58,15
-16,58,15
-18,59,15
-18,59,15
-18,60,15
-19,61,16
-18,61,16
-20,62,15
-19,62,15
-20,62,15
-18,60,16
-18,62,17
-19,65,17
-17,68,17
-19,65,17
-19,62,17
-20,57,16
-18,56,17
-18,56,18
-19,58,18
-16,60,20
-17,60,20
-18,60,20
-16,60,20
-15,58,19
-16,56,17
-15,55,16
-15,55,15
-14,53,15
-16,54,16
-16,54,16
-17,56,17
-19,58,18
-20,58,18
-19,59,20
-19,60,21
-18,61,22
-17,64,24
-17,65,25
-19,63,24
-19,60,22
-17,59,21
-15,57,18
-16,57,17
-12,56,17
-12,57,16
-15,58,15
-15,60,15
-14,64,17
-15,65,18
-14,66,20
-12,62,21
-13,60,20
-13,59,19
-12,59,18
-12,61,18
-12,60,19
-12,59,20
-12,56,22
-12,54,21
-11,54,21
-14,56,19
-13,57,21
-14,60,21
-16,61,21
-16,61,22
-15,63,24
-17,59,23
-18,59,22
-18,60,20
-16,60,20
-15,62,19
-13,65,21
-11,62,21
-11,60,21
-10,54,20
-11,50,18
-11,50,17
-10,52,18
-13,55,17
-14,57,18
-17,61,21
-19,66,25
-18,66,27
-19,63,28
-21,59,26
-20,58,25
-17,57,24
-15,57,23
-15,57,22
-16,55,20
-17,56,19
-19,57,19
-17,59,20
-15,60,21
-15,60,20
-15,59,21
-13,57,23
-13,56,22
-14,56,25
-17,57,21
-17,58,22
-13,57,23
-13,56,20
-17,57,17
-17,55,17
-17,54,16
-19,53,15
-21,55,16
-21,56,16
-21,59,17
-22,61,16
-22,61,16
-22,63,15
-21,64,15
-19,66,15
-18,65,15
-19,63,14
-18,62,14
-16,62,14
-16,62,13
-16,61,12
-15,61,12
-16,61,11
-16,62,12
-17,61,13
-19,58,15
-17,58,16
-13,59,18
-17,60,16
-16,59,17
-15,60,16
-22,61,13
-22,62,12
-20,62,14
-21,60,14
-20,60,14
-18,59,16
-15,58,18
-14,57,19
-15,56,20
-16,55,22
-17,55,23
-17,55,26
-14,55,30
-14,56,31
-15,55,30
-14,55,30
-15,55,29
-17,55,25
-17,54,23
-17,54,22
-18,54,21
-17,55,22
-18,57,20
-17,64,22
-15,64,22
-15,58,20
-17,56,17
-13,59,19
-11,60,20
-13,62,19
-18,62,17
-17,61,18
-16,59,19
-17,58,19
-17,58,19
-15,59,20
-17,59,19
-17,59,19
-16,59,19
-17,59,18
-17,57,18
-17,57,18
-18,58,18
-18,58,18
-18,57,18
-17,58,18
-17,59,18
-17,60,18
-17,61,18
-18,61,18
-17,63,20
-17,63,20
-19,59,19
-18,57,20
-17,57,20
-17,57,21
-16,58,21
-17,58,20
-18,58,18
-16,58,18
-15,58,18
-14,58,17
-15,58,16
-14,57,17
-16,57,17
-17,58,18
-17,58,19
-18,60,19
-19,60,19
-19,61,20
-19,61,19
-19,60,19
-19,60,19
-20,60,19
-18,59,19
-19,59,18
-18,59,18
-17,58,18
-18,58,17
-17,58,17
-17,59,17
-18,59,17
-17,59,17
-17,59,17
-17,58,17
-17,57,16
-17,58,15
-18,59,15
-17,61,16
-16,60,16
-15,59,16
-15,57,15
-15,57,15
-14,60,16
-15,62,15
-16,63,16
-17,62,15
-18,60,16
-17,59,16
-18,60,16
-18,60,16
-18,61,16
-21,63,15
-20,62,15
-20,61,14
-17,57,14
-16,56,15
-16,57,15
-17,58,13
-16,60,14
-16,61,14
-17,61,14
-18,62,15
-18,61,16
-19,60,15
-19,59,16
-18,60,17
-17,63,15
-18,60,14
-17,59,13
-15,56,13
-17,59,13
-17,60,12
-16,62,13
-17,60,12
-17,58,13
-16,58,14
-16,60,16
-16,61,16
-17,63,17
-20,63,17
-19,62,18
-16,61,19
-18,71,22
-16,65,24
-19,63,20
-21,58,18
-18,54,17
-14,53,15
-16,54,14
-14,54,13
-14,59,12
-16,59,11
-18,59,10
-17,57,12
-18,56,13
-18,56,14
-19,58,17
-19,58,18
-19,59,18
-20,60,19
-19,60,19
-19,61,19
-20,59,19
-19,59,19
-19,61,19
-19,60,18
-18,60,19
-16,60,19
-16,59,17
-16,58,17
-16,59,16
-17,59,15
-16,59,15
-15,60,15
-19,60,15
-19,60,16
-18,58,19
-21,61,19
-21,61,19
-17,60,19
-17,59,18
-16,59,19
-15,57,18
-18,56,17
-18,57,17
-19,58,16
-18,60,17
-18,60,17
-19,60,16
-18,59,17
-18,59,16
-18,58,16
-18,57,17
-18,57,17
-20,59,18
-18,58,18
-18,59,18
-19,60,18
-19,59,18
-19,60,18
-19,59,18
-18,59,18
-19,58,18
-18,58,17
-18,59,17
-18,59,17
-17,59,17
-18,59,17
-18,59,17
-17,62,16
-20,60,18
-20,58,18
-18,58,21
-17,58,21
-17,59,20
-19,59,18
-18,60,17
-18,60,16
-18,58,15
-18,57,15
-18,57,15
-18,59,15
-19,60,15
-19,61,17
-20,61,18
-20,60,18
-19,59,19
-17,57,19
-17,57,19
-15,57,19
-16,58,19
-17,59,19
-17,60,19
-18,59,18
-18,59,18
-18,58,18
-20,57,18
-21,55,17
-21,59,18
-19,60,19
-19,59,17
-21,59,17
-20,60,16
-20,60,15
-19,58,16
-18,59,17
-18,59,17
-17,58,18
-18,58,18
-18,59,18
-18,59,18
-18,60,18
-18,60,18
-18,58,18
-18,59,18
-18,59,18
-19,59,18
-19,57,18
-19,58,18
-20,60,19
-18,59,18
-19,58,18
-17,59,17
-16,58,16
-17,57,16
-17,58,17
-17,58,17
-18,58,17
-19,59,16
-18,59,17
-18,59,17
-19,57,17
-19,57,18
-18,57,17
-18,60,18
-19,60,18
-19,60,16
-19,60,15
-19,59,16
-18,58,15
-18,59,17
-17,59,17
-19,61,16
-18,60,18
-17,59,18
-18,59,17
-18,60,18
-18,60,18
-18,60,16
-18,59,16
-18,59,16
-18,59,16
-18,59,16
-18,59,16
-18,59,17
-17,60,17
-18,60,17
-17,59,17
-17,58,16
-18,58,16
-17,59,16
-17,59,15
-17,59,15
-17,60,15
-19,62,14
-18,62,14
-16,60,14
-16,59,15
-15,59,15
-16,60,16
-17,60,16
-18,60,16
-17,60,17
-17,60,16
-16,61,16
-16,61,16
-17,61,15
-17,61,15
-15,61,16
-15,61,16
-15,60,16
-15,60,16
-15,59,16
-15,59,15
-15,59,15
-15,60,15
-15,60,15
-15,59,15
-15,59,15
-15,59,15
-16,59,15
-17,59,15
-18,60,15
-18,60,15
-18,60,15
-17,60,16
-17,60,16
-17,59,16
-17,59,16
-17,59,16
-17,60,16
-18,60,16
-18,61,16
-18,60,16
-17,60,16
-17,60,16
-17,60,16
-17,61,16
-16,60,15
-16,60,16
-15,59,16
-16,58,15
-16,59,15
-16,59,15
-16,59,15
-16,60,15
-17,61,15
-16,60,15
-16,60,15
-17,61,15
-15,59,16
-16,58,16
-17,58,16
-16,59,16
-17,59,16
-18,60,17
-19,61,17
-19,61,17
-18,60,18
-19,60,18
-19,59,17
-18,58,17
-19,59,16
-19,59,16
-19,59,15
-20,61,14
-20,60,15
-17,59,14
-15,59,15
-14,58,16
-16,59,17
-17,61,17
-17,61,18
-17,60,18
-17,59,18
-16,59,18
-17,59,18
-17,58,18
-17,58,17
-16,59,17
-16,59,16
-16,59,16
-17,59,17
-17,58,16
-17,58,16
-17,59,16
-17,59,16
-17,59,17
-17,58,17
-18,58,17
-18,59,17
-19,60,17
-19,61,17
-19,61,17
-19,60,17
-20,60,17
-20,60,17
-19,60,16
-19,59,15
-19,60,15
-18,60,15
-17,60,15
-17,60,15
-16,59,15
-16,59,15
-16,59,15
-15,59,15
-15,59,15
-16,60,15
-15,59,15
-15,60,15
-16,59,16
-15,59,16
-16,60,16
-16,59,16
-15,60,18
-16,60,17
-18,61,17
-17,59,15
-17,59,15
-16,59,16
-17,59,17
-17,58,17
-16,58,16
-17,59,15
-17,59,15
-18,61,14
-19,61,13
-19,60,13
-17,59,15
-17,57,16
-16,58,16
-16,60,17
-15,62,17
-16,63,16
-16,64,16
-16,63,14
-17,61,15
-16,59,15
-15,58,15
-16,58,16
-17,59,16
-19,61,16
-19,61,16
-18,60,15
-19,60,15
-17,59,16
-18,60,14
-19,60,14
-17,61,14
-17,59,13
-17,59,14
-16,60,14
-17,61,13
-17,61,13
-17,62,14
-16,60,14
-16,59,15
-15,59,15
-14,62,15
-15,63,14
-15,63,14
-16,60,13
-16,59,12
-15,59,14
-15,58,14
-16,58,14
-17,60,14
-16,61,15
-17,60,14
-16,60,15
-14,61,15
-15,61,14
-16,60,15
-14,60,16
-15,61,15
-16,61,14
-16,60,13
-16,59,13
-17,59,14
-16,59,14
-17,60,14
-17,60,14
-17,60,15
-17,60,15
-17,60,14
-17,60,15
-17,60,14
-17,61,15
-17,60,15
-17,60,15
-16,59,15
-17,59,15
-17,60,15
-16,60,15
-17,59,15
-17,59,15
-17,59,15
-18,60,15
-18,60,15
-18,60,15
-18,60,15
-18,61,14
-18,61,14
-18,60,14
-17,60,14
-17,59,15
-17,59,15
-16,60,15
-17,60,15
-17,60,15
-17,60,15
-17,59,15
-17,59,15
-17,59,15
-18,60,15
-18,60,15
-17,60,14
-17,60,14
-17,59,14
-18,59,14
-18,60,15
-17,61,15
-18,61,15
-17,60,16
-17,60,16
-17,60,16
-16,60,16
-16,60,16
-16,60,16
-17,60,15
-17,60,15
-18,60,15
-17,60,14
-17,60,14
-17,59,14
-17,59,14
-17,60,14
-17,60,14
-17,60,14
-17,60,14
-16,60,15
-16,60,15
-17,60,15
-16,60,15
-17,60,15
-17,60,15
-16,61,16
-17,61,16
-17,60,16
-16,60,15
-16,60,16
-16,60,16
-17,60,15
-17,60,15
-17,60,15
-17,60,15
-17,60,15
-17,60,15
-17,59,15
-17,59,14
-17,59,14
-16,59,15
-16,60,15
-16,60,15
-16,60,16
-16,60,16
-16,59,17
-16,59,17
-16,59,17
-17,59,16
-17,60,15
-17,61,15
-17,61,15
-17,61,15
-16,61,15
-16,60,15
-15,59,15
-15,59,15
-15,59,15
-16,59,15
-16,60,16
-17,60,16
-17,61,15
-18,60,16
-17,60,16
-17,60,16
-17,60,16
-17,60,16
-17,60,16
-17,60,16
-17,60,16
-16,59,15
-16,60,15
-17,60,15
-17,59,16
-17,60,17
-17,60,17
-17,60,16
-17,60,17
-18,60,17
-18,59,17
-18,59,17
-18,59,17
-18,59,16
-18,60,16
-17,60,17
-18,60,16
-17,60,16
-16,59,16
-17,60,16
-16,60,16
-17,60,15
-17,59,16
-16,59,16
-17,59,15
-16,58,16
-16,58,16
-17,59,16
-17,58,17
-17,58,16
-18,58,17
-18,59,17
-18,59,18
-18,60,18
-18,59,18
-18,59,19
-19,60,18
-18,60,19
-18,60,19
-18,59,18
-18,59,18
-18,60,18
-18,61,18
-17,60,19
-18,60,18
-17,59,17
-17,59,16
-17,58,16
-16,58,16
-16,58,16
-16,58,16
-16,58,16
-15,58,17
-16,58,17
-16,59,18
-17,59,18
-18,59,19
-18,59,18
-19,59,19
-20,59,19
-20,59,18
-19,59,19
-19,58,18
-18,59,17
-17,59,17
-17,59,16
-17,59,16
-16,59,17
-17,60,17
-18,61,18
-17,61,18
-16,60,18
-16,59,17
-15,60,18
-15,61,18
-16,61,17
-16,60,17
-15,59,19
-16,58,19
-17,58,19
-17,58,19
-18,59,17
-18,60,16
-17,58,14
-15,58,14
-15,58,14
-16,59,16
-16,59,16
-16,59,17
-15,60,18
-14,59,17
-14,61,17
-14,61,18
-14,61,19
-16,61,20
-18,61,20
-18,61,21
-17,61,21
-17,61,18
-16,61,18
-14,60,17
-15,60,15
-15,60,15
-14,59,15
-14,59,15
-14,58,15
-14,58,15
-14,58,15
-14,59,15
-14,59,15
-15,60,17
-15,60,18
-16,60,20
-17,60,20
-17,60,21
-17,60,21
-17,60,19
-19,60,19
-17,60,19
-16,60,18
-16,60,18
-16,59,18
-15,59,18
-15,59,18
-15,59,19
-16,59,18
-15,59,17
-14,59,18
-14,59,18
-15,59,17
-15,59,19
-14,59,19
-16,59,19
-15,59,19
-16,59,19
-16,60,19
-15,59,19
-17,60,19
-17,60,18
-18,61,18
-17,60,19
-17,59,19
-16,59,19
-16,60,19
-16,60,19
-16,59,19
-15,59,19
-16,59,19
-16,59,20
-16,59,19
-16,58,18
-14,57,17
-14,58,17
-14,59,17
-15,59,17
-15,59,17
-14,59,18
-15,60,18
-16,59,18
-15,58,18
-16,58,18
-16,58,18
-17,58,18
-18,59,17
-18,59,18
-18,59,18
-19,59,17
-19,59,17
-18,60,18
-18,60,17
-18,60,18
-17,60,18
-16,60,18
-16,60,18
-16,60,18
-15,60,18
-15,61,17
-15,61,16
-14,60,16
-14,60,15
-15,59,15
-15,59,15
-15,59,16
-16,59,17
-17,60,17
-17,60,18
-17,60,19
-18,60,18
-18,60,18
-17,59,18
-17,60,17
-16,59,17
-15,59,16
-17,59,13
-16,58,13
-14,57,13
-16,59,14
-17,60,14
-17,60,17
-17,61,19
-17,61,19
-16,61,20
-15,60,21
-14,60,20
-15,61,19
-15,61,19
-15,60,17
-16,59,16
-15,58,15
-15,58,15
-16,58,16
-17,59,16
-17,59,17
-17,59,17
-17,59,17
-17,59,17
-16,58,18
-16,58,17
-16,59,17
-16,59,18
-16,60,18
-17,60,19
-17,60,19
-18,59,19
-18,60,19
-18,59,20
-19,59,20
-20,59,20
-18,58,20
-18,58,19
-18,58,17
-17,59,16
-17,59,16
-17,60,18
-16,59,18
-16,59,18
-16,57,17
-15,56,17
-16,57,18
-16,57,17
-20,58,16
-20,58,18
-22,58,19
-22,61,21
-21,61,22
-19,61,22
-18,60,22
-15,60,22
-12,59,22
-15,58,20
-15,57,20
-13,57,19
-14,57,18
-15,58,18
-15,59,17
-16,58,17
-17,58,17
-17,58,18
-17,58,18
-18,58,18
-18,59,19
-19,59,18
-21,59,18
-21,58,21
-20,58,21
-23,58,19
-21,59,18
-22,59,18
-17,59,20
-18,60,20
-19,60,20
-15,59,21
-14,59,19
-15,58,19
-15,58,18
-16,59,18
-16,59,18
-17,59,18
-17,59,17
-17,59,17
-17,58,17
-18,59,17
-18,59,18
-18,59,18
-18,59,18
-17,59,18
-17,59,18
-17,59,19
-17,59,19
-17,59,19
-17,59,19
-17,59,19
-17,59,19
-17,59,19
-17,59,19
-17,59,19
-18,59,19
-18,59,19
-18,59,18
-18,58,18
-18,59,17
-17,59,17
-17,60,18
-17,59,18
-17,58,18
-17,58,18
-17,59,18
-17,59,18
-17,59,18
-17,59,18
-17,59,18
-17,59,19
-17,59,19
-17,59,19
-17,59,19
-17,59,19
-18,59,19
-18,59,19
-18,59,19
-17,59,18
-17,58,18
-17,58,18
-17,58,17
-16,59,17
-17,59,17
-16,59,17
-16,59,18
-16,59,18
-16,59,19
-16,59,19
-16,59,19
-16,59,20
-16,59,20
-17,59,19
-17,59,19
-17,59,18
-17,59,18
-17,59,17
-17,59,18
-18,59,17
-18,58,18
-19,58,18
-18,59,19
-19,59,18
-18,59,18
-15,59,19
-18,63,20
-19,61,22
-17,59,19
-8,54,18
-12,55,18
-21,61,16
-13,62,16
-14,61,15
-14,59,17
-14,57,19
-17,57,19
-22,60,17
-20,60,18
-19,60,18
-17,60,18
-17,59,18
-17,59,18
-15,58,18
-15,59,18
-14,58,19
-12,58,18
-14,59,18
-17,60,18
-18,62,18
-18,62,19
-17,61,18
-16,60,19
-18,59,18
-18,59,17
-17,56,17
-17,57,17
-17,57,17
-18,58,17
-17,60,18
-17,60,18
-18,61,19
-17,59,20
-17,58,20
-17,57,20
-17,58,19
-17,59,19
-17,60,18
-17,59,18
-18,59,18
-18,59,18
-17,59,18
-17,59,18
-17,58,18
-17,58,18
-17,59,18
-18,58,18
-17,58,18
-17,58,18
-17,58,18
-17,58,18
-17,58,19
-17,59,19
-17,59,19
-16,59,20
-18,58,18
-18,59,19
-16,59,19
-17,59,18
-17,60,19
-16,59,19
-17,60,19
-17,60,19
-16,59,19
-16,59,19
-16,59,20
-16,59,19
-16,59,19
-16,59,19
-16,59,18
-16,59,18
-16,59,18
-16,59,18
-16,58,18
-16,58,18
-16,59,18
-16,59,18
-17,59,19
-16,59,19
-16,59,19
-17,60,20
-17,59,19
-17,59,19
-16,59,19
-17,59,19
-17,59,19
-17,59,18
-17,59,18
-17,59,18
-17,59,18
-16,59,18
-16,59,18
-16,59,18
-16,58,18
-16,59,18
-16,59,19
-16,59,19
-15,59,19
-16,59,19
-16,59,19
-16,59,19
-16,60,18
-16,59,18
-16,59,18
-17,59,18
-16,59,19
-17,59,19
-17,59,19
-16,59,19
-16,59,19
-17,59,19
-17,59,19
-17,59,19
-16,59,18
-16,59,18
-17,59,18
-17,59,18
-16,59,18
-16,59,18
-16,59,18
-17,59,18
-17,59,18
-16,59,19
-16,59,19
-16,59,19
-16,59,19
-16,59,18
-16,59,19
-17,59,19
-17,59,19
-17,59,19
-17,59,19
-18,58,19
-18,59,19
-17,59,19
-17,58,19
-17,58,19
-17,59,18
-16,59,17
-16,59,17
-16,58,17
-14,58,19
-14,59,19
-16,61,21
-16,59,19
-15,58,19
-16,58,19
-15,57,18
-16,58,19
-17,60,19
-17,61,20
-16,61,20
-17,59,19
-17,58,19
-16,59,19
-17,59,19
-17,60,19
-17,59,19
-17,59,18
-17,59,18
-17,59,18
-17,59,18
-17,59,18
-17,59,18
-17,59,18
-17,58,18
-16,58,18
-16,57,17
-15,57,16
-15,59,17
-16,62,17
-16,63,17
-16,62,18
-16,61,19
-15,60,19
-15,59,20
-16,58,18
-17,58,18
-16,59,18
-17,59,17
-17,60,17
-17,60,17
-17,60,17
-18,60,16
-17,60,16
-17,60,16
-17,60,16
-16,59,16
-15,59,17
-15,59,16
-15,59,16
-15,60,17
-15,60,16
-14,60,17
-15,60,18
-15,60,18
-15,59,18
-15,59,18
-15,60,18
-15,59,17
-16,59,17
-16,59,17
-16,59,17
-16,59,18
-16,59,18
-17,59,18
-17,59,18
-18,59,18
-18,59,18
-17,59,18
-18,59,18
-18,59,18
-17,59,18
-17,59,18
-17,59,18
-16,59,18
-17,59,18
-16,59,18
-16,59,18
-17,60,18
-17,60,19
-17,59,18
-17,59,19
-17,59,18
-17,59,18
-17,59,18
-17,59,18
-17,59,18
-18,59,18
-18,58,18
-18,59,18
-17,59,18
-17,59,18
-17,59,18
-17,59,18
-17,59,18
-17,59,19
-16,59,19
-16,59,18
-16,59,18
-16,58,17
-16,59,18
-16,59,17
-17,60,17
-17,60,18
-17,60,19
-18,59,20
-18,58,19
-17,59,19
-17,58,18
-16,59,17
-16,59,17
-16,60,17
-16,60,17
-16,60,17
-15,59,17
-15,59,17
-15,59,17
-16,60,17
-16,60,18
-16,60,18
-16,59,18
-17,59,18
-17,60,18
-17,60,18
-17,59,18
-17,59,17
-17,59,17
-17,60,16
-17,60,17
-16,59,17
-17,59,17
-16,59,17
-16,59,17
-16,59,17
-16,59,17
-17,59,17
-16,59,17
-17,60,17
-17,60,17
-17,60,17
-17,60,18
-17,59,18
-17,60,18
-17,60,17
-17,60,17
-17,60,18
-17,59,17
-16,59,17
-17,60,17
-17,59,17
-17,60,17
-17,60,17
-17,59,17
-17,59,17
-17,59,17
-17,59,17
-17,59,17
-16,59,17
-16,59,17
-16,59,17
-16,59,17
-16,59,17
-16,59,17
-15,59,17
-16,59,17
-16,59,17
-16,59,17
-17,59,17
-16,59,17
-17,59,17
-17,59,17
-17,59,17
-17,59,17
-17,60,18
-17,59,17
-17,59,17
-18,59,17
-17,59,17
-17,59,17
-18,59,17
-17,59,17
-17,59,17
-17,59,17
-17,59,17
-17,60,17
-17,59,17
-16,59,17
-16,59,17
-16,59,18
-17,59,17
-17,59,17
-17,59,17
-17,59,17
-17,59,17
-17,59,17
-17,59,17
-18,59,17
-17,59,17
-17,59,17
-17,59,17
-17,59,17
-17,60,17
-16,59,17
-17,59,17
-17,59,17
-16,59,17
-16,59,17
-16,59,17
-16,59,17
-16,59,17
-17,59,17
-17,59,17
-17,59,17
-17,59,17
-17,59,17
-17,59,17
-18,59,17
-17,59,17
-17,59,17
-17,59,18
-17,59,17
-17,60,17
-17,59,17
-17,59,17
-17,59,17
-17,59,17
-17,59,17
-17,59,17
-17,59,17
-17,59,17
-17,59,17
-17,59,17
-17,59,17
-17,59,17
-17,59,17
-17,59,17
-17,59,17
-18,59,18
-18,60,18
-18,60,18
-17,60,19
-17,59,18
-17,59,18
-17,59,18
-17,59,18
-17,59,18
-17,58,17
-16,59,18
-16,59,17
-17,58,17
-16,59,17
-17,59,18
-17,59,18
-17,59,18
-17,59,18
-17,59,19
-18,59,19
-18,59,19
-18,59,19
-18,59,19
-18,59,19
-17,59,19
-18,59,18
-18,59,18
-18,59,18
-17,59,18
-17,58,18
-17,58,18
-17,59,18
-17,59,18
-17,59,19
-18,59,19
-18,60,19
-18,59,19
-17,58,18
-17,58,18
-17,59,18
-18,59,17
-18,59,17
-18,59,17
-18,60,17
-18,60,18
-18,59,17
-18,59,17
-17,59,17
-17,59,17
-17,59,19
-18,59,19
-17,59,20
-18,59,20
-18,59,19
-17,59,18
-17,59,17
-17,59,17
-17,59,16
-17,59,17
-17,59,17
-17,59,18
-16,59,19
-16,58,19
-16,59,19
-16,59,19
-16,58,19
-16,58,18
-17,59,18
-17,60,18
-17,61,18
-18,60,17
-17,59,17
-17,58,18
