1562806878.000000, 1562806878.000000, 1562806878.000000
32.000000, 32.000000, 32.000000
1,62,16
2,62,15
1,62,15
1,62,15
2,62,15
2,61,15
1,61,15
2,61,15
2,62,15
2,62,15
1,63,15
1,63,15
2,62,15
1,61,15
1,62,15
1,62,15
1,62,15
1,62,15
1,62,15
1,62,15
1,62,15
1,62,15
1,62,15
1,62,15
1,62,15
1,61,15
1,61,15
1,62,15
1,62,15
1,63,15
1,62,15
1,62,14
1,62,15
1,62,15
1,62,15
1,62,15
2,62,15
1,62,15
1,62,15
1,62,15
1,62,14
1,62,14
1,62,14
2,62,14
2,62,15
1,62,14
1,62,14
2,62,14
2,62,14
1,62,14
1,62,15
1,62,14
1,62,14
2,62,14
1,62,15
1,62,15
1,62,14
1,62,15
1,62,14
1,61,14
2,61,15
1,62,14
1,62,14
1,62,15
1,62,15
1,62,15
1,62,15
1,62,15
1,62,15
1,62,15
1,62,15
1,62,15
1,62,14
2,62,14
2,62,14
2,62,14
2,62,14
1,62,14
1,62,14
1,62,14
1,62,14
1,62,14
1,62,13
1,63,13
0,63,13
1,62,13
2,62,14
2,62,14
1,62,14
1,62,15
0,63,14
0,63,14
0,62,14
-1,62,14
-1,62,15
-1,62,15
-2,62,15
-2,62,14
-2,62,14
-2,62,14
-2,63,14
-1,62,14
-1,63,13
-1,62,13
-1,62,13
-1,62,13
-1,62,13
-1,63,14
0,63,13
-1,63,13
-1,62,13
-1,62,13
-1,62,13
-2,62,13
-2,62,13
-2,62,13
-1,63,14
-1,63,13
-1,62,13
-1,62,13
-1,62,13
-1,63,13
-1,62,13
-1,62,13
-1,62,13
-2,62,13
-2,62,13
-1,63,14
-1,63,14
-1,62,13
-1,62,13
-1,62,13
-1,62,13
-1,62,13
-1,62,13
-1,62,13
-2,63,13
-1,63,13
-1,63,14
-1,62,14
-1,62,13
-1,62,13
-2,63,13
-1,63,13
-1,63,13
-2,62,13
-2,62,13
-1,62,13
-1,63,14
-1,63,14
-1,63,13
-1,62,13
-1,62,13
-1,62,13
-1,62,13
-1,63,13
-1,62,13
-1,62,13
-1,62,14
-1,62,13
-1,63,14
-2,62,14
-2,62,14
-1,62,13
-1,62,13
-2,62,13
-1,63,13
-1,62,14
-1,62,13
-1,62,14
-1,62,13
-1,62,14
-2,62,14
-2,62,13
-1,62,13
-1,63,13
-1,62,13
-1,62,13
-1,62,13
-2,62,13
-2,62,14
-1,62,14
-1,62,14
-1,63,13
-1,62,13
-2,62,13
-1,62,13
-2,62,12
-1,62,13
-1,62,13
-2,63,13
-1,63,14
-1,63,13
-1,62,13
-1,62,13
-2,63,13
-2,62,13
-2,63,13
-2,62,13
-2,62,13
-1,62,13
-1,62,13
-1,63,13
-1,62,13
-1,62,13
-1,63,14
-1,63,14
-2,63,13
-2,63,13
-2,62,13
-2,62,13
-2,62,13
-1,62,13
-2,62,13
-2,63,13
-1,63,13
-1,63,13
-1,62,13
-1,62,13
-1,62,13
-2,63,13
-1,62,13
-2,62,13
-2,62,13
-2,62,13
-2,62,13
-1,63,13
-1,63,13
-1,62,13
-1,62,13
-1,63,13
-1,62,13
-1,63,13
-2,62,14
-2,62,13
-2,63,13
-2,63,13
-1,62,13
-1,63,13
-1,62,13
-1,63,13
-1,63,13
-1,63,13
-2,63,14
-2,62,14
-2,62,14
-2,62,15
-2,62,15
-3,62,14
-3,62,14
-3,62,14
-2,62,14
-2,63,13
-2,63,13
-1,63,12
-1,63,12
-1,62,12
-1,62,12
-1,63,13
-1,63,13
-1,63,13
-1,63,13
-1,63,13
0,62,12
0,62,12
-1,62,12
-1,62,12
-1,63,12
0,63,12
1,63,13
1,63,13
1,63,13
0,62,13
-1,63,13
-1,63,13
0,62,13
0,62,14
0,62,14
0,62,14
-1,62,14
-1,62,15
-1,62,14
-1,61,14
-1,62,14
0,63,14
0,63,15
0,63,15
-1,62,15
-1,62,14
-1,62,13
0,62,14
-1,63,13
-1,63,13
0,63,15
-1,62,15
-1,62,16
-2,62,16
-2,62,15
-2,61,15
-2,61,15
-2,62,15
-2,62,15
-2,62,15
-1,63,15
-1,62,15
-1,61,15
-1,61,14
-2,62,14
-2,61,15
-2,62,15
-1,62,15
-2,62,14
-2,62,15
-2,63,16
-2,62,17
-2,61,16
-2,61,15
-2,63,13
-1,62,12
-1,61,11
1,62,13
1,62,14
0,63,15
0,63,14
0,62,14
0,62,14
-2,63,15
-2,62,15
-1,61,15
-1,62,15
-1,62,15
-1,63,15
-1,63,15
0,62,14
-1,61,14
-2,61,15
-3,62,16
-3,62,17
-3,63,18
-4,62,18
-3,60,17
0,60,18
0,61,18
0,61,16
-2,59,14
-2,60,14
-2,62,14
-4,61,14
-5,62,14
-6,61,15
-5,62,16
-5,62,17
-7,64,16
-5,63,14
-4,64,13
0,64,12
-4,65,10
-6,64,9
-4,59,11
-4,61,15
-6,63,17
-11,60,17
-12,59,16
-16,62,17
-14,63,21
-13,61,22
-14,56,22
-14,60,25
-12,60,25
-11,59,19
-15,56,20
-14,60,20
-13,58,21
-11,58,24
-9,56,23
-13,56,23
-16,60,23
-13,60,22
-10,65,21
-13,60,20
-18,58,18
-13,58,21
-24,58,26
-16,59,26
-9,58,15
-5,54,17
-6,61,21
-29,63,19
-11,58,34
-8,61,27
-2,55,11
-2,60,20
-7,62,24
-28,58,28
-15,59,24
-13,53,14
-9,60,20
-10,55,24
-9,56,27
-13,58,27
-19,52,23
-16,59,23
-12,60,23
-7,58,23
-5,57,22
-13,56,21
-19,57,21
-19,58,21
-17,57,20
-13,56,23
-11,56,24
-13,58,22
-17,59,21
-16,58,21
-12,57,21
-13,56,20
-18,58,19
-18,59,20
-16,60,20
-15,61,21
-18,62,22
-18,62,22
-16,61,22
-14,60,21
-14,60,20
-12,58,18
-11,59,17
-11,59,17
-12,59,16
-11,60,17
-11,60,18
-13,60,17
-14,60,16
-15,60,16
-15,61,18
-16,61,17
-15,61,17
-17,61,17
-17,60,16
-16,61,17
-15,60,17
-14,60,16
-14,60,16
-14,60,16
-13,60,15
-13,60,15
-14,60,15
-14,61,15
-14,61,15
-13,61,15
-13,60,15
-13,60,15
-14,61,15
-15,63,16
-15,62,16
-14,60,17
-11,59,18
-11,58,18
-12,58,17
-13,60,18
-14,61,17
-15,61,16
-14,60,16
-14,60,16
-15,60,16
-15,60,17
-15,60,16
-14,60,15
-13,60,15
-13,60,15
-13,60,15
-14,60,15
-15,60,15
-15,61,15
-14,60,15
-14,60,15
-15,60,15
-15,60,15
-14,61,15
-15,61,15
-15,61,14
-15,61,14
-15,61,14
-15,60,14
-15,60,15
-15,60,15
-16,61,14
-16,60,14
-16,61,14
-16,60,14
-15,60,14
-15,61,15
-15,61,15
-15,61,14
-15,61,14
-15,61,14
-14,61,14
-14,61,14
-15,61,14
-16,60,14
-15,61,15
-15,60,14
-15,60,14
-15,60,14
-15,60,14
-15,61,14
-15,61,14
-15,61,14
-15,61,14
-15,60,14
-15,60,14
-15,60,14
-15,61,14
-15,61,14
-15,60,14
-15,61,14
-14,61,14
-15,60,14
-14,61,14
-14,61,14
-14,61,14
-15,60,14
-14,61,14
-14,61,14
-15,61,14
-15,61,14
-15,61,14
-14,60,14
-14,60,14
-14,61,14
-14,61,13
-14,61,13
-15,61,13
-14,61,14
-14,61,14
-14,61,14
-14,61,13
-14,61,13
-14,61,14
-14,61,14
-14,61,13
-14,61,13
-13,61,13
-13,61,14
-13,61,14
-13,61,13
-13,61,14
-12,61,13
-13,61,13
-13,61,13
-12,61,13
-12,61,13
-12,61,13
-12,61,13
-12,61,14
-13,63,13
-13,62,13
-13,62,13
-13,62,13
-12,61,13
-12,61,13
-12,61,14
-12,61,13
-12,62,13
-13,62,13
-12,62,13
-11,61,14
-11,61,14
-11,61,13
-11,61,13
-12,62,14
-12,61,13
-12,61,13
-12,62,13
-11,61,13
-12,61,13
-12,61,13
-12,61,12
-11,61,13
-11,61,13
-12,61,13
-12,61,13
-12,61,13
-12,61,13
-12,61,13
-11,61,13
-12,62,14
-12,61,13
-12,62,13
-11,61,13
-11,61,13
-11,61,13
-12,61,13
-11,62,13
-11,61,13
-11,62,13
-11,62,12
-10,62,13
-10,61,13
-11,61,12
-11,61,12
-10,62,12
-10,63,11
-11,62,11
-10,61,11
-10,61,11
-11,61,12
-11,61,12
-11,62,11
-12,62,11
-12,61,11
-12,61,12
-12,61,12
-12,61,12
-12,62,12
-12,62,12
-12,63,12
-12,63,12
-12,62,12
-12,62,11
-12,62,12
-12,61,12
-12,60,12
-12,62,11
-12,63,11
-12,64,10
-12,63,10
-12,62,9
-12,61,10
-11,60,10
-11,60,10
-11,60,10
-12,63,9
-14,64,10
-14,64,10
-13,64,11
-13,62,12
-12,61,12
-12,60,12
-12,61,11
-11,61,11
-12,63,11
-12,64,10
-13,64,10
-12,64,10
-13,62,9
-13,62,9
-11,61,10
-11,60,10
-12,60,11
-11,61,11
-11,62,11
-11,63,11
-13,63,10
-14,63,10
-13,62,10
-13,61,11
-12,61,11
-10,63,11
-10,63,11
-11,63,11
-12,62,10
-11,62,10
-11,62,11
-11,61,11
-11,62,11
-10,62,11
-10,61,10
-10,61,11
-11,60,11
-11,61,11
-11,62,11
-12,63,11
-12,63,11
-12,62,11
-11,62,12
-8,62,13
-11,62,12
-12,62,12
-12,63,13
-11,63,15
-10,64,15
-10,63,15
-11,62,13
-12,61,13
-11,59,13
-9,59,14
-8,60,14
-9,60,14
-11,62,13
-11,63,13
-11,63,13
-10,63,13
-10,63,13
-10,62,13
-11,61,11
-11,61,12
-11,61,11
-12,61,12
-11,61,12
-11,60,12
-12,60,12
-12,61,12
-12,63,12
-12,64,11
-13,65,12
-11,63,11
-11,61,12
-11,61,11
-10,60,11
-10,60,11
-12,61,12
-13,62,12
-13,62,12
-12,63,14
-12,62,14
-11,63,14
-11,62,14
-12,61,13
-12,61,13
-13,61,12
-12,62,13
-12,63,12
-11,62,12
-11,62,13
-11,62,12
-11,61,12
-11,61,12
-11,61,12
-11,61,12
-12,61,12
-12,61,12
-11,61,13
-13,61,13
-13,61,13
-12,61,14
-10,62,15
-10,63,15
-10,62,15
-11,61,14
-12,61,13
-12,61,13
-11,62,13
-11,63,13
-11,62,13
-10,62,13
-10,62,12
-11,61,12
-11,61,12
-10,61,12
-10,62,13
-10,62,13
-11,62,12
-12,62,12
-11,61,12
-11,61,13
-11,61,13
-11,61,13
-11,61,13
-12,62,13
-11,62,13
-11,62,13
-10,61,13
-11,62,13
-11,62,13
-11,62,13
-10,62,13
-10,62,13
-10,62,13
-10,61,13
-10,61,12
-11,61,12
-11,61,12
-11,61,12
-11,61,13
-11,61,13
-11,62,13
-12,62,13
-11,62,13
-11,62,13
-11,60,13
-11,61,14
-11,61,14
-12,62,14
-12,62,14
-11,62,14
-12,62,14
-11,62,14
-11,62,13
-12,61,12
-12,62,12
-12,62,12
-11,62,12
-10,62,12
-10,62,12
-10,61,12
-10,60,12
-11,60,12
-12,61,12
-11,61,13
-11,62,13
-12,62,13
-12,62,13
-11,62,13
-12,62,13
-11,62,13
-10,62,13
-11,61,13
-11,61,13
-11,61,13
-11,61,12
-11,62,12
-11,62,12
-11,62,13
-11,62,12
-10,62,13
-10,62,12
-11,61,12
-11,61,12
-11,61,12
-11,61,12
-11,62,13
-11,61,13
-11,61,13
-12,61,13
-11,62,12
-11,61,13
-11,62,13
-11,62,13
-12,62,12
-11,61,12
-11,61,12
-11,61,12
-11,62,12
-11,62,12
-11,62,12
-11,61,12
-11,61,13
-11,61,13
-11,62,13
-11,62,13
-12,62,12
-11,62,12
-11,62,12
-11,62,13
-11,62,13
-11,62,13
-11,62,13
-11,61,13
-11,62,13
-11,63,13
-11,63,12
-12,63,12
-12,61,12
-9,60,12
-9,61,13
-9,61,12
-8,60,12
-8,60,13
-9,61,13
-10,61,12
-10,61,13
-11,62,13
-11,62,13
-11,62,13
-11,62,13
-11,62,14
-11,63,14
-10,62,13
-10,62,13
-10,62,13
-10,62,12
-10,61,12
-9,61,12
-10,62,12
-10,62,11
-10,62,11
-11,62,11
-11,62,11
-10,61,11
-11,62,12
-10,62,13
-11,62,13
-11,62,13
-11,62,13
-11,62,13
-12,62,12
-11,61,12
-11,62,12
-11,62,12
-11,62,11
-11,62,11
-11,62,12
-10,61,12
-10,62,12
-11,62,12
-11,62,12
-11,62,12
-12,62,12
-11,62,12
-11,61,12
-11,62,12
-11,62,12
-11,62,12
-10,62,11
-10,62,11
-11,61,11
-11,62,11
-11,62,11
-11,61,11
-12,62,11
-11,61,11
-11,61,11
-12,61,12
-12,62,12
-11,62,12
-12,62,11
-12,62,12
-12,61,11
-12,62,11
-12,62,11
-12,63,11
-12,64,11
-12,64,11
-12,63,11
-12,61,10
-12,61,10
-11,60,10
-11,60,10
-12,60,10
-12,62,10
-12,63,10
-12,63,11
-13,63,10
-12,62,11
-12,62,11
-12,62,12
-12,62,11
-12,61,12
-13,62,11
-13,62,11
-14,62,11
-13,62,12
-13,62,11
-13,62,11
-13,61,11
-13,62,10
-14,61,10
-14,62,10
-14,62,10
-13,62,11
-13,62,11
-13,62,11
-13,62,11
-13,62,11
-13,62,10
-12,62,10
-13,61,10
-13,61,10
-13,62,11
-13,63,11
-12,62,11
-12,62,10
-13,62,10
-12,63,10
-12,62,10
-12,62,10
-12,62,10
-12,61,10
-12,62,10
-12,62,11
-12,62,11
-13,62,11
-13,62,11
-13,62,11
-12,61,11
-12,61,11
-12,61,11
-12,62,11
-12,62,11
-12,62,11
-12,62,11
-12,62,11
-12,63,12
-12,63,11
-12,62,11
-12,62,10
-12,62,10
-12,62,9
-12,62,9
-11,62,10
-11,62,10
-11,61,10
-11,61,11
-11,61,11
-12,63,11
-12,62,11
-11,62,11
-12,62,11
-11,62,11
-11,62,11
-12,62,11
-11,62,11
-11,62,11
-12,62,10
-12,61,10
-11,61,11
-12,61,11
-12,62,11
-11,63,12
-12,63,12
-12,62,12
-12,62,12
-11,61,12
-11,61,11
-12,62,11
-12,62,11
-12,62,11
-12,62,11
-12,61,12
-11,61,12
-12,61,12
-12,61,12
-12,62,12
-13,61,12
-13,62,11
-13,62,12
-12,62,12
-12,62,11
-12,62,12
-12,62,12
-12,62,11
-12,62,12
-11,61,12
-12,62,12
-12,62,12
-12,62,12
-12,62,12
-12,62,12
-12,62,12
-12,61,12
-12,62,12
-12,62,12
-12,62,12
-12,61,12
-12,62,12
-12,62,12
-12,62,12
-12,61,11
-13,61,12
-12,62,12
-12,62,12
-12,62,12
-12,62,12
-12,62,12
-12,62,12
-12,62,12
-12,62,12
-12,62,12
-11,62,12
-11,62,12
-12,61,12
-12,62,12
-12,62,12
-12,62,12
-12,62,12
-12,62,12
-12,61,12
-12,61,12
-12,62,12
-12,61,12
-12,61,12
-12,62,12
-12,62,12
-12,62,12
-12,62,12
-12,62,12
-12,62,12
-12,61,12
-12,62,12
-11,61,12
-11,62,12
-11,62,12
-11,62,12
-11,62,12
-11,62,12
-11,62,12
-12,61,12
-12,61,12
-11,62,12
-12,62,12
-12,62,12
-11,62,12
-11,61,12
-11,61,12
-11,62,12
-11,62,12
-11,62,12
-11,61,12
-11,61,12
-11,62,12
-11,62,12
-11,62,12
-11,62,12
-10,61,11
-10,62,11
-10,62,11
-11,62,11
-11,62,10
-11,62,10
-11,62,11
-12,61,11
-12,61,11
-10,62,11
-11,62,11
-11,62,11
-11,62,11
-11,62,11
-11,61,11
-11,62,11
-11,63,10
-10,62,10
-11,63,10
-11,63,9
-10,62,9
-11,62,9
-11,61,9
-11,61,9
-10,60,8
-11,61,9
-12,62,9
-12,62,9
-13,63,9
-13,64,9
-13,64,9
-14,64,9
-14,65,9
-14,63,9
-14,62,9
-12,61,10
-11,61,9
-12,61,9
-13,62,8
-14,63,7
-14,64,7
-14,64,8
-13,62,8
-13,61,8
-12,61,8
-12,62,8
-12,62,8
-13,63,8
-13,63,8
-13,63,8
-13,63,9
-13,62,9
-12,61,9
-13,62,9
-13,64,8
-13,64,8
-14,62,8
-13,61,9
-13,60,9
-12,62,10
-13,63,10
-14,63,10
-14,62,10
-12,61,10
-12,60,11
-11,60,10
-12,63,10
-12,64,10
-13,63,10
-12,61,10
-12,61,11
-10,61,11
-10,61,11
-12,62,10
-14,62,11
-12,62,11
-11,62,11
-12,62,11
-12,62,11
-12,62,11
-12,63,12
-12,62,12
-12,62,12
-12,62,12
-11,61,12
-11,61,12
-11,62,12
-11,63,12
-10,63,13
-9,62,14
-10,61,14
-10,62,14
-9,61,13
-8,62,13
-11,62,12
-10,61,12
-9,61,12
-11,60,11
-11,59,12
-11,61,12
-10,64,13
-10,63,13
-11,61,13
-11,60,13
-11,61,13
-11,62,13
-12,64,14
-11,64,13
-10,63,14
-10,61,14
-9,60,13
-9,61,13
-10,61,12
-10,62,13
-10,62,13
-11,61,12
-11,61,12
-11,61,12
-11,62,13
-11,62,12
-11,62,12
-11,62,12
-10,62,12
-11,62,12
-11,61,12
-10,61,14
-8,61,14
-10,62,13
-12,62,13
-11,62,13
-10,61,13
-10,61,13
-11,62,13
-11,62,13
-11,62,13
-11,61,13
-11,60,12
-11,61,12
-11,61,12
-11,61,12
-11,62,12
-11,63,13
-11,63,13
-11,63,13
-11,63,13
-10,62,13
-10,62,13
-11,62,13
-11,61,12
-11,62,12
-12,62,12
-12,61,11
-12,61,11
-12,61,11
-12,61,11
-12,61,12
-12,62,12
-12,62,12
-12,62,12
-11,62,12
-12,62,12
-11,61,12
-11,61,13
-11,62,13
-11,62,13
-12,62,13
-11,62,13
-11,62,12
-12,61,12
-12,61,12
-12,61,12
-12,62,12
-12,61,12
-12,61,12
-12,61,12
-11,61,12
-12,62,12
-12,61,12
-12,61,12
-12,61,12
-12,62,12
-12,62,12
-12,62,12
-11,62,13
-11,62,12
-11,62,12
-11,61,12
-11,62,12
-11,62,12
-11,61,12
-12,61,12
-12,62,11
-12,61,11
-12,61,12
-12,62,12
-12,62,12
-12,62,12
-12,62,12
-11,62,13
-11,62,13
-12,61,12
-13,61,12
-13,61,12
-12,62,12
-12,62,12
-11,62,12
-11,62,12
-11,61,11
-11,61,11
-11,61,11
-11,62,11
-11,62,11
-12,62,11
-12,61,11
-12,62,12
-11,61,12
-11,62,13
-12,62,13
-12,62,13
-12,62,13
-13,62,12
-13,62,12
-13,62,12
-12,62,13
-12,62,12
-13,62,12
-13,61,12
-12,61,12
-12,61,12
-12,61,12
-13,61,11
-12,61,12
-12,61,12
-12,62,12
-12,61,12
-12,62,12
-12,61,12
-11,61,12
-12,62,12
-11,62,12
-12,62,12
-12,62,12
-12,62,12
-12,61,12
-12,62,12
-12,62,12
-13,62,12
-12,62,12
-12,62,12
-11,62,12
-11,61,12
-12,61,12
-12,62,12
-12,62,12
-12,62,12
-12,62,12
-12,61,12
-12,61,12
-12,62,13
-12,61,12
-12,61,12
-12,61,12
-12,62,12
-12,61,12
-11,61,12
-12,61,12
-12,62,12
-12,62,12
-12,62,12
-12,61,12
-11,61,12
-11,62,12
-12,61,12
-12,62,12
-12,61,12
-12,61,12
-12,61,11
-12,61,12
-12,61,12
-12,62,13
-12,62,13
-12,61,12
-12,61,13
-13,63,13
-12,61,12
-12,62,12
-12,62,13
-10,61,13
-10,62,12
-11,62,11
-11,62,11
-11,61,11
-11,61,11
-11,61,12
-11,62,12
-12,63,13
-12,62,12
-12,62,13
-12,61,12
-12,62,13
-12,62,13
-12,62,12
-11,62,12
-12,61,12
-11,61,12
-11,61,11
-11,61,11
-11,62,12
-11,62,12
-11,61,12
-11,62,12
-10,62,13
-11,62,12
-12,62,12
-12,62,12
-11,62,12
-11,62,12
-12,62,12
-12,62,12
-12,62,12
-11,62,12
-11,62,12
-11,61,11
-11,62,11
-11,61,11
-11,61,11
-11,61,11
-11,62,12
-11,62,12
-11,62,12
-11,62,12
-12,63,12
-12,63,12
-12,62,12
-11,62,12
-11,62,12
-11,61,11
-11,63,11
-11,62,11
-11,61,10
-11,62,11
-11,61,11
-10,61,11
-11,62,11
-11,62,11
-11,61,11
-11,62,12
-11,62,12
-12,63,12
-11,62,12
-11,62,12
-11,62,12
-11,62,11
-11,62,11
-11,62,11
-12,62,11
-12,62,11
-11,62,12
-11,62,12
-11,62,12
-12,62,12
-11,62,12
-11,62,12
-11,62,12
-11,62,12
-11,62,12
-11,62,12
-11,62,12
-11,62,11
-11,62,11
-11,62,11
-11,61,11
-11,62,11
-11,62,12
-12,62,11
-11,62,11
-11,62,11
-11,62,11
-11,62,12
-11,62,12
-12,62,12
-11,62,12
-11,62,11
-11,62,12
-11,62,11
-11,61,11
-11,62,12
-11,62,12
-11,62,12
-11,62,12
-11,62,12
-11,62,12
-11,62,12
-11,62,12
-12,62,12
-12,62,12
-12,62,12
-12,62,12
-12,62,12
-12,62,12
-12,62,12
-11,62,12
-11,61,12
-11,61,12
-11,62,12
-11,62,12
-12,62,12
-11,62,13
-11,61,12
-11,62,12
-12,61,12
-12,62,12
-12,62,12
-12,62,12
-11,61,12
-12,62,12
-12,61,12
-11,62,12
-11,62,12
-11,62,12
-11,62,12
-11,61,12
-11,62,12
-11,62,12
-12,62,12
-12,61,12
-11,61,12
-11,62,12
-12,62,12
-11,62,12
-11,62,11
-11,62,12
-11,62,12
-11,62,12
-12,62,12
-12,62,12
-12,61,12
-12,62,12
-12,62,12
-12,62,12
-12,62,12
-12,62,12
-12,62,12
-11,62,12
-11,62,12
-12,61,12
-11,62,12
-11,62,12
-12,62,12
-12,62,12
-12,62,12
-11,62,13
-12,62,12
-11,62,12
-11,61,12
-11,62,12
-11,62,12
-12,62,12
-11,61,12
-11,61,12
-12,61,12
-12,62,12
-12,62,12
-12,62,12
-11,61,12
-12,61,12
-12,62,12
-11,62,12
-12,62,12
-11,61,12
-11,62,12
-12,62,12
-12,62,12
-12,62,12
-12,61,12
-12,62,12
-12,62,12
-12,62,12
-12,62,12
-12,61,11
-12,62,12
-12,62,12
-12,61,12
-11,62,12
-12,62,12
-12,62,12
-12,62,12
-12,62,12
-12,62,12
-12,62,12
-12,62,12
-11,62,12
-12,61,12
-12,62,12
-12,61,12
-12,62,12
-12,62,12
-12,62,12
-12,61,12
-12,61,12
-12,61,12
-12,61,12
-12,62,12
-12,61,12
-12,61,12
-12,61,12
-12,61,12
-12,61,12
-12,61,12
-12,62,12
-12,62,12
-12,62,12
-12,62,12
-11,61,12
-11,61,12
-12,61,12
-12,62,12
-12,62,12
-12,62,12
-12,62,12
-11,62,12
-11,62,12
-11,62,11
-11,62,11
-11,62,11
-11,61,11
-11,62,11
-11,62,11
-12,62,11
-12,62,11
-12,61,11
-12,62,12
-12,62,12
-12,62,12
-11,62,12
-12,62,12
-12,62,11
-11,62,11
-11,62,11
-11,62,11
-11,61,11
-11,62,11
-11,62,11
-11,62,11
-11,62,11
-12,62,11
-12,62,11
-12,62,11
-11,62,12
-11,62,11
-11,62,12
-11,62,11
-11,62,11
-11,62,11
-11,62,11
-11,62,11
-11,62,11
-11,62,11
-11,62,11
-11,62,11
-11,62,11
-11,61,11
-11,62,11
-11,62,11
-12,62,11
-12,62,11
-12,62,11
-11,62,11
-12,62,11
-11,62,11
-11,62,11
-11,62,11
-11,62,11
-11,62,11
-11,62,11
-11,62,12
-11,62,11
-11,62,11
-11,62,11
-11,62,11
-11,62,11
-11,62,11
-11,62,11
-11,62,11
-11,62,11
-11,62,11
-11,62,11
-11,62,11
-11,62,12
-11,62,11
-11,62,12
-12,62,12
-12,62,12
-12,62,12
-12,62,12
-12,62,12
-11,62,12
-11,62,12
-11,61,11
-11,62,12
-11,62,12
-11,62,11
-11,61,11
-11,62,11
-11,61,11
-11,62,12
-11,62,11
-11,62,11
-11,62,12
-11,62,12
-11,62,12
-11,62,12
-11,62,12
-12,62,12
-12,62,12
-12,62,12
-11,62,11
-11,62,11
-11,62,11
-11,62,11
-11,62,11
-11,62,11
-11,62,12
-11,62,12
-11,62,11
-11,62,12
-11,62,11
-11,62,11
-12,62,12
-11,62,11
-11,62,12
-11,62,12
-10,62,11
-11,61,11
-11,62,11
-11,62,11
-11,62,11
-11,62,11
-11,61,11
-11,62,11
-11,62,12
-12,62,12
-12,62,12
-11,62,12
-11,62,12
-11,62,12
-11,62,11
-11,62,11
-11,62,11
-11,62,11
-11,62,11
-11,62,11
-11,62,11
-11,62,12
-11,62,12
-11,62,12
-11,62,11
-11,62,11
-11,62,12
-11,62,12
-11,61,12
-11,62,12
-11,62,12
-11,62,12
-11,62,12
-11,62,12
-11,62,12
-11,62,12
-11,62,12
-11,62,12
-11,61,12
-10,62,12
-11,62,11
-11,62,11
-11,62,11
-11,62,12
-11,62,12
-11,62,12
-11,62,12
-11,62,12
-11,62,12
-11,62,12
-11,62,12
-11,62,12
-11,62,12
-11,62,12
-11,62,12
-11,62,12
-11,62,12
-11,62,12
-11,62,12
-11,62,12
-11,62,12
-10,62,12
-11,62,12
-11,62,12
-11,62,11
-11,62,11
-11,62,12
-11,62,12
-11,62,12
-11,62,12
-11,62,12
-11,62,12
-11,62,12
-10,62,12
-11,62,12
-12,61,12
-11,62,12
-11,62,12
-11,62,12
-12,62,12
-11,62,12
-11,62,12
-11,62,12
-11,62,12
-11,62,12
-11,62,12
-11,62,12
-11,62,11
-11,62,12
-11,62,12
-11,62,12
-11,61,11
-11,62,11
-11,62,11
-12,62,11
-12,62,11
-12,62,12
-11,62,12
-11,62,12
-10,62,12
-11,62,12
-11,62,12
-12,62,11
-11,62,11
-11,62,11
-12,62,11
-12,62,11
-12,62,11
-12,62,11
-11,62,11
-11,61,11
-11,62,12
-11,62,12
-11,62,12
-11,62,11
-11,62,11
-12,63,11
-12,62,12
-11,62,13
-11,62,13
-11,62,12
-12,62,12
-11,62,12
-11,62,11
-11,61,11
-11,61,11
-11,61,11
-11,62,11
-11,62,12
-11,61,12
-12,61,12
-12,61,12
-12,62,12
-12,62,12
-12,62,13
-11,62,12
-11,62,12
-11,62,12
-11,62,12
-10,62,12
-11,62,12
-11,62,12
-11,62,11
-11,62,11
-11,62,11
-11,62,11
-12,62,12
-12,62,12
-12,62,12
-12,62,12
-11,62,12
-11,61,12
-11,62,12
-11,62,12
-11,61,11
-11,62,12
-11,62,12
-11,61,11
-11,62,12
-11,61,11
-11,61,12
-11,62,12
-12,62,12
-12,62,12
-12,62,12
-11,61,12
-12,62,12
-11,62,12
-12,62,12
-11,62,12
-11,62,12
-11,62,12
-11,62,12
-11,62,12
-11,62,12
-11,61,12
-11,62,12
-11,62,12
-11,62,12
-11,62,12
-12,62,12
-11,62,11
-11,62,12
-11,62,12
-11,62,12
-11,62,12
-11,62,11
-11,62,11
-11,62,12
-11,62,11
-11,62,12
-11,62,12
-11,62,11
-11,62,12
-11,62,12
-11,62,11
-11,62,12
-11,62,12
-11,62,11
-11,62,12
-11,62,12
-11,62,11
-11,62,11
-11,62,11
-11,62,11
-11,62,11
-11,62,11
-11,62,12
-11,62,12
-11,62,12
-11,62,12
-11,62,12
-11,62,11
-11,62,12
-11,62,11
-11,62,11
-11,62,12
-12,62,11
-11,62,12
-11,62,12
-11,62,11
-11,62,11
-11,62,11
-11,62,11
-11,62,11
-11,62,11
-11,62,11
-12,62,11
-12,62,12
-12,62,12
-12,62,12
-12,62,12
-11,62,12
-11,62,11
-11,62,11
-11,61,11
-11,62,11
-11,62,11
-11,62,11
-11,62,11
-11,62,11
-11,62,12
-12,62,12
-11,62,12
-12,62,12
-12,62,12
-12,62,11
-12,62,11
-12,62,12
-11,62,12
-11,62,12
-12,62,11
-12,62,11
-12,62,12
-12,62,11
-12,62,12
-12,62,11
-12,62,11
-12,62,11
-11,62,11
-11,62,11
-11,62,11
-12,62,12
-12,62,12
-12,62,12
-12,62,12
-11,62,12
-12,62,12
-12,62,12
-12,62,12
-12,62,12
-12,62,12
-12,62,12
-12,62,12
-12,62,11
-12,61,12
-11,62,12
-11,62,12
-11,62,12
-11,61,12
-11,62,11
-11,62,12
-12,62,12
-12,62,12
-12,62,11
-12,62,12
-12,62,12
-12,62,12
-12,62,12
-12,62,12
-12,61,12
-12,62,12
-12,62,12
-12,62,12
-12,62,11
-12,62,11
-12,61,11
-12,61,12
-11,62,11
-11,62,11
-11,62,11
-11,62,12
-11,62,11
-11,61,12
-11,62,12
-12,62,12
-12,62,12
-12,62,12
-12,62,12
-12,62,12
-12,62,12
-12,62,11
-11,62,12
-11,62,12
-12,62,11
-12,62,12
-12,62,11
-11,61,12
-11,62,11
-11,62,11
-11,62,11
-12,62,11
-11,61,11
-11,62,12
-12,62,12
-12,62,12
-12,62,12
-12,62,12
-12,62,12
-12,62,12
-12,62,12
-12,62,12
-11,61,11
-11,61,11
-11,62,11
-11,62,11
-11,62,12
-12,62,12
-12,62,12
-12,62,12
-12,62,12
-12,62,12
-12,62,12
-12,62,12
-12,62,11
-12,62,11
-11,62,12
-12,62,11
-11,62,12
-11,62,12
-11,62,12
-11,62,12
-11,61,12
-11,62,12
-12,62,12
-12,62,12
-12,62,12
-11,62,12
-11,61,12
-12,62,12
-11,62,12
-11,62,12
-11,62,12
-11,61,12
-11,62,12
-11,62,12
-12,62,12
-11,62,12
-11,62,12
-12,62,12
-11,62,12
-11,62,12
-11,62,12
-11,62,11
-12,62,12
-11,62,12
-11,62,11
-11,62,12
-11,61,12
-12,62,12
-12,62,12
-12,62,12
-12,62,12
-12,62,12
-12,62,12
-12,62,12
-12,62,12
-12,62,12
-12,62,12
-11,62,12
-12,62,12
-12,62,12
-11,62,12
-11,62,12
-11,62,12
-12,62,12
-12,62,12
-12,62,12
-12,62,12
-12,62,12
-12,62,12
-12,62,12
-12,62,12
-12,62,12
-11,62,12
-11,62,12
-12,61,12
-12,62,12
-12,62,11
-12,62,12
-11,62,12
-11,62,12
-12,62,12
-12,62,12
-12,62,12
-12,62,12
-12,62,12
-12,62,12
-11,62,12
-12,62,12
-12,62,12
-12,62,12
-11,62,12
-11,62,12
-11,62,12
-11,62,12
-11,62,12
-11,62,12
-12,62,12
-11,62,12
-11,62,12
-11,62,12
-12,61,12
-12,62,12
-12,62,12
-11,62,12
-12,62,12
-12,62,12
-11,62,12
-11,62,12
-11,62,12
-11,62,12
-11,62,12
-11,62,12
-11,62,12
-11,62,12
-11,62,12
-12,62,12
-11,62,12
-11,62,12
-11,62,12
-11,62,12
-11,62,12
-11,62,12
-11,62,12
-11,62,12
-11,62,12
-11,62,12
-11,62,11
-11,61,12
-11,62,11
-11,62,12
-11,61,12
-11,61,12
-11,62,12
-11,62,12
-11,62,12
-11,62,12
-12,62,12
-12,62,12
-12,62,12
-12,62,12
-12,62,12
-12,61,12
-12,62,12
-11,62,12
-11,61,12
-11,62,12
-11,62,12
-11,62,11
-11,62,12
-11,62,11
-11,62,12
-11,62,12
-11,62,12
-11,62,12
-12,62,12
-11,62,12
-11,62,12
-11,62,12
-11,62,12
-11,62,12
-11,62,12
-11,61,12
-11,62,12
-11,62,12
-12,62,12
-11,62,12
-12,61,12
-11,61,12
-12,62,12
-11,62,12
-11,62,12
-11,62,11
-11,62,12
-11,62,12
-11,62,12
-11,62,12
-11,62,12
-11,62,12
-11,62,12
-12,62,12
-12,62,12
-11,62,12
-12,62,12
-11,62,12
-11,62,11
-11,62,11
-11,62,11
-11,62,11
-11,62,11
-11,62,11
-11,62,12
-11,62,12
-11,62,12
-12,62,12
-11,62,12
-11,62,11
-12,62,12
-11,62,11
-11,62,11
-11,62,11
-11,62,12
-11,62,12
-11,62,12
-11,62,12
-11,62,12
-11,62,12
-11,62,12
-11,62,11
-11,62,11
-11,62,11
-11,62,11
-11,62,11
-11,62,11
-11,62,12
-11,62,12
-11,62,12
-11,62,12
-11,62,12
-11,62,12
-12,62,12
-12,62,12
-11,62,11
-11,62,11
-11,62,12
-11,62,11
-11,62,12
-11,62,12
-11,62,11
-11,62,12
-11,62,12
-11,62,12
-11,62,12
-11,62,12
-11,62,11
-11,62,11
-11,62,11
-11,61,12
-11,61,11
-11,61,12
-11,62,12
-11,62,11
-11,62,12
-11,61,12
-11,61,12
-11,62,12
-11,62,12
-11,62,12
-11,62,12
-11,61,11
-11,62,11
-11,62,11
-12,62,11
-11,62,11
-11,61,12
-12,62,12
-12,62,12
-11,62,12
-11,62,12
-11,62,12
-11,61,12
-11,62,12
-11,62,11
-11,62,11
-11,62,11
-11,62,11
-11,62,11
-11,62,12
-11,62,12
-11,62,12
-11,62,12
-11,62,12
-11,62,12
-11,62,12
-11,62,12
-11,62,12
-11,62,12
-12,62,12
-12,62,12
-11,62,12
-12,62,12
-12,62,12
-12,62,12
-12,62,12
-12,62,12
-12,62,12
-12,62,12
-12,62,12
-12,62,12
-11,62,12
-11,62,11
-11,62,11
-11,62,11
-11,62,11
-11,62,12
-11,62,12
-11,62,11
-12,62,12
-11,62,12
-12,62,12
-12,62,12
-12,61,12
-12,61,12
-12,62,12
-12,62,12
-12,62,12
-12,62,12
-12,62,13
-12,62,13
-12,61,13
-12,62,12
-12,62,13
-12,61,12
-12,61,12
-11,61,12
-12,62,12
-12,62,12
-11,61,12
-12,62,12
-11,62,12
-12,62,12
-12,62,12
-12,61,12
-11,61,12
-12,61,12
-12,62,12
-11,62,12
-12,62,13
-12,61,13
-11,61,13
-12,61,13
-12,61,12
-12,62,12
-12,62,12
-12,61,12
-12,61,12
-12,62,13
-12,62,12
-12,62,12
-12,62,13
-11,62,13
-11,62,12
-11,62,12
-11,62,12
-12,61,12
-12,61,12
-12,61,12
-12,62,12
-11,62,12
-12,62,12
-11,62,12
-11,62,12
-11,62,12
-11,62,12
-11,62,12
-12,62,12
-12,62,12
-12,62,12
-12,62,12
-12,61,12
-12,61,12
-12,62,12
-12,62,12
-12,62,12
-12,61,12
-12,62,12
-12,62,12
-11,62,12
-11,61,12
-11,62,12
-12,62,12
-12,62,12
-12,62,12
-12,62,12
-12,62,12
-12,62,12
-12,62,12
-12,62,12
-12,62,12
-12,61,12
-11,61,12
-12,61,12
-12,61,12
-12,62,12
-12,61,12
-12,61,12
-12,62,13
-12,62,13
-12,62,13
-12,62,13
-12,62,13
-12,62,13
-12,62,13
-12,61,12
-12,61,12
-11,61,12
-11,62,12
-12,61,12
-12,62,12
-12,61,12
-11,61,13
-11,62,13
-11,62,13
-11,62,12
-12,62,12
-11,61,13
-11,61,13
-12,61,13
-11,61,12
-12,62,12
-12,61,12
-12,61,12
-12,62,12
-12,62,13
-12,62,12
-12,62,11
-12,61,12
-11,61,12
-11,62,12
-11,62,12
-11,62,12
-12,62,12
-12,62,13
-12,62,13
-12,62,12
-12,62,12
-12,62,13
-12,62,12
-12,61,12
-12,61,12
-11,61,12
-12,61,12
-11,62,12
-12,62,12
-12,61,12
-11,61,12
-12,62,12
-12,62,12
-12,62,13
-12,62,12
-12,61,12
-12,62,12
-12,62,12
-11,62,12
-11,61,12
-11,61,12
-11,61,12
-12,61,12
-12,61,13
-12,61,13
-13,61,13
-13,61,13
-12,61,13
-13,62,12
-12,62,13
-11,62,13
-12,62,12
-11,62,13
-11,62,12
-11,62,12
-11,61,12
-11,61,12
-12,62,12
-12,62,12
-12,62,12
-12,62,12
-12,61,12
-12,61,12
-12,62,13
-12,62,13
-12,62,12
-12,62,13
-11,61,12
-11,62,13
-11,62,13
-11,62,12
-11,61,12
-11,61,12
-11,61,12
-11,61,12
-12,61,12
-12,62,12
-11,62,12
-12,62,12
-12,62,12
-12,62,12
-12,62,12
-12,62,13
-11,62,12
-11,62,12
-11,62,12
-11,62,12
-11,61,12
-11,62,11
-11,62,12
-11,62,11
-11,61,12
-11,62,12
-11,62,12
-11,62,12
-11,62,12
-11,62,12
-11,62,12
-11,62,12
-11,62,12
-11,62,12
-11,62,12
-11,62,12
-11,62,12
-11,62,12
-12,62,12
-12,62,12
-11,62,12
-11,62,12
-11,62,12
-11,62,12
-11,62,12
-11,62,12
-11,62,12
-11,62,12
-11,62,12
-11,62,12
-11,62,12
-11,61,12
-12,61,12
-11,62,12
-11,62,12
-11,61,12
-11,62,12
-11,62,12
-11,62,12
-11,62,12
-11,62,12
-11,61,12
-11,61,12
-11,62,12
-11,62,12
-11,62,12
-11,61,12
-11,61,13
-11,62,12
-12,61,13
-12,62,12
-12,62,13
-12,62,13
-12,62,12
-11,62,13
-11,62,12
-11,62,12
-11,62,12
-11,62,12
-11,62,12
-11,62,12
-11,62,12
-11,62,12
-11,61,12
-11,62,12
-11,62,12
-11,62,12
-11,62,12
-11,61,12
-11,62,12
-11,62,12
-12,62,12
-12,62,12
-11,61,13
-11,61,12
-12,61,12
-11,62,12
-12,62,12
-11,62,12
-11,62,12
-11,61,12
-12,62,12
-11,62,11
-11,61,12
-11,61,12
-11,61,12
-11,62,12
-11,61,12
-12,62,13
-12,62,13
-12,62,13
-12,62,13
-12,62,13
-12,61,12
-12,62,12
-11,62,12
-11,62,12
-11,62,12
-11,61,12
-11,62,12
-11,62,12
-11,62,12
-12,62,12
-12,62,12
-12,62,12
-12,62,12
-12,61,12
-12,61,12
-11,61,12
-12,62,12
-12,62,12
-12,62,13
-11,62,13
-12,62,13
-12,62,12
-12,61,12
-12,62,12
-11,62,12
-11,61,11
-11,61,11
-11,62,12
-11,62,12
-11,62,12
-11,62,13
-11,61,13
-11,61,13
-12,61,12
-12,61,12
-12,61,12
-12,62,12
-12,62,13
-11,62,13
-11,61,12
-12,62,12
-12,62,12
-11,62,12
-11,62,12
-11,62,12
-11,61,12
-11,61,12
-11,62,12
-11,62,12
-11,62,12
-12,61,12
-11,61,12
-11,61,13
-12,62,12
-12,62,12
-12,62,12
-11,62,12
-12,61,12
-12,62,12
-11,62,12
-12,61,12
-11,62,12
-11,62,12
-11,62,12
-11,62,12
-11,62,12
-11,62,12
-11,62,12
-12,62,12
-12,61,12
-12,62,12
-12,61,12
-12,62,12
-11,62,11
-11,62,12
-12,62,12
-11,61,12
-11,61,12
-11,61,12
-11,62,12
-12,62,12
-12,62,12
-11,61,12
-12,62,12
-12,61,12
-12,62,12
-12,62,12
-12,62,12
-12,62,13
-11,63,13
-10,62,13
-11,62,12
-11,62,12
-11,62,11
-11,62,11
-11,61,11
-11,62,11
-12,61,11
-12,62,11
-12,62,11
-12,62,11
-11,61,12
-12,62,12
-11,62,12
-11,61,12
-11,62,12
-11,63,12
-11,62,12
-11,62,12
-11,62,12
-12,62,12
-12,62,12
-12,62,11
-12,62,11
-12,61,12
-12,62,12
-12,62,12
-12,62,11
-11,62,12
-11,62,12
-11,62,12
-11,62,12
-11,62,12
-11,62,12
-12,62,12
-12,62,12
-12,62,12
-12,62,12
-12,62,12
-12,62,12
-12,62,11
-12,62,12
-11,62,12
-11,61,12
-11,62,12
-12,62,12
-11,62,12
-11,62,12
-11,62,12
-12,62,12
-12,62,12
-12,62,12
-12,62,12
-12,62,12
-12,61,12
-12,62,12
-12,62,11
-11,62,11
-11,61,11
-11,62,11
-11,62,11
-11,62,11
-11,62,12
-11,62,12
-11,62,12
-11,62,12
-11,62,12
-12,62,12
-11,62,12
-12,62,11
-12,62,11
-12,62,11
-11,61,11
-11,62,11
-11,62,11
-11,62,11
-11,62,11
-11,62,11
-11,62,12
-11,62,12
-11,62,11
-11,62,11
-12,62,11
-12,62,11
-12,62,12
-12,62,11
-12,62,11
-12,62,11
-12,62,11
-12,62,11
-12,62,11
-11,61,10
-12,62,10
-11,62,10
-11,62,10
-11,62,11
-11,62,10
-11,62,11
-11,62,11
-10,63,12
-10,63,12
-10,62,12
-11,62,12
-11,61,12
-11,61,12
-11,61,12
-12,62,12
-12,62,12
-11,62,12
-11,63,12
-10,62,12
-10,62,12
-9,61,12
-9,61,11
-10,61,11
-10,63,12
-10,63,11
-10,62,12
-11,61,12
-10,61,12
-11,62,13
-12,62,13
-12,62,13
-11,61,13
-11,62,13
-12,62,13
-11,62,13
-11,62,12
-10,61,12
-11,61,12
-11,62,12
-11,62,12
-11,61,12
-11,61,12
-11,62,12
-11,62,12
-11,62,12
-11,62,12
-11,62,12
-11,62,12
-11,62,12
-10,62,12
-10,62,12
-11,61,11
-11,62,11
-11,62,12
-11,62,11
-12,62,11
-11,62,12
-11,62,11
-11,62,11
-12,62,11
-10,62,11
-10,62,11
-10,62,12
-9,62,12
-10,62,11
-10,62,11
-10,62,11
-9,61,12
-9,62,11
-10,63,12
-10,62,11
-11,62,11
-10,61,12
-10,62,12
-10,62,12
-9,62,14
-9,61,13
-10,61,13
-10,62,13
-10,63,14
-10,63,14
-10,63,14
-10,62,15
-10,62,15
-10,62,15
-9,61,15
-9,60,15
-9,60,15
-9,61,14
-9,61,14
-9,62,14
-8,61,14
-9,62,13
-10,63,14
-9,62,14
-7,64,15
-7,62,14
-8,62,14
-8,61,13
-8,61,13
-8,61,13
-9,61,14
-9,62,15
-11,63,16
-9,63,17
-9,63,17
-9,63,17
-9,63,16
-9,61,15
-9,61,15
-8,60,15
-8,60,15
-8,61,15
-8,62,15
-7,62,16
-6,62,16
-6,62,15
-7,61,15
-6,62,15
-6,60,15
-8,61,15
-8,61,16
-8,61,16
-9,61,16
-9,61,16
-9,62,16
-9,62,15
-9,61,15
-8,61,15
-8,61,16
-8,61,15
-7,62,16
-7,62,16
-8,61,15
-8,60,16
-6,60,17
-7,60,16
-10,62,15
-6,61,16
-7,63,16
-7,63,17
-4,61,17
-5,62,17
-7,62,16
-6,60,15
-6,60,14
-7,61,14
-5,62,15
-4,61,15
-6,60,15
-6,60,15
-5,62,15
-6,64,14
-6,63,14
-5,62,15
-6,61,14
-6,61,14
-5,62,16
-6,61,13
-7,61,13
-6,62,13
-5,62,14
-6,63,14
-6,62,13
-5,61,14
-5,61,13
-6,62,14
-5,64,14
-6,63,14
-5,63,16
-4,62,16
-4,62,16
-4,60,16
-5,61,15
-5,61,15
-5,61,15
-6,62,14
-6,62,14
-7,61,15
-6,61,15
-7,61,15
-7,62,15
-8,60,16
-7,60,17
-7,61,16
-8,61,16
-7,61,16
-7,63,16
-7,63,16
-7,62,16
-8,61,17
-8,60,16
-8,60,16
-8,60,16
-8,60,16
-8,61,16
-8,61,16
-8,62,16
-8,62,16
-8,62,17
-8,61,16
-9,60,16
-8,59,16
-10,60,16
-9,60,16
-9,61,16
-11,62,16
-12,63,16
-11,63,16
-10,63,17
-12,64,16
-11,61,17
-10,60,17
-11,60,16
-10,61,16
-9,62,16
-10,62,15
-10,61,15
-9,61,16
-8,61,16
-10,60,14
-11,59,14
-10,60,15
-10,60,15
-10,60,15
-10,60,16
-10,60,16
-10,60,16
-12,60,16
-12,61,16
-12,61,16
-12,61,16
-12,61,16
-12,62,16
-11,63,16
-11,62,16
-12,62,16
-10,61,15
-10,61,15
-10,61,15
-10,61,16
-10,61,15
-10,61,16
-10,61,16
-9,61,16
-10,61,16
-11,61,15
-11,61,16
-11,61,16
-12,61,15
-12,61,15
-11,61,16
-11,61,16
-12,61,16
-11,61,16
-11,61,16
-11,61,16
-11,61,16
-11,61,16
-10,61,16
-10,61,16
-11,61,16
-10,61,16
-10,60,16
-10,61,16
-11,61,16
-11,61,16
-11,61,16
-11,61,16
-12,60,16
-11,61,16
-11,61,16
-10,61,15
-10,61,15
-10,61,15
-10,61,15
-10,61,16
-9,61,16
-10,61,15
-10,61,15
-9,60,15
-9,61,15
-10,61,15
-10,61,15
-10,61,15
-10,61,15
-10,61,15
-10,61,15
-10,61,15
-10,61,15
-11,61,15
-10,62,15
-10,61,16
-11,61,15
-10,61,15
-10,61,15
-10,62,14
-10,62,14
-10,62,14
-10,61,14
-9,61,15
-9,61,15
-10,61,14
-10,61,14
-10,61,14
-10,61,14
-10,61,14
-10,62,14
-10,62,15
-10,62,14
-10,62,14
-11,62,15
-10,61,15
-10,61,15
-10,61,15
-10,61,15
-10,61,15
-10,61,14
-10,61,13
-10,61,14
-10,61,14
-10,61,14
-10,62,14
-10,61,14
-10,61,14
-11,61,15
-10,61,14
-10,61,14
-10,62,15
-9,62,15
-10,62,14
-10,61,14
-10,62,14
-10,62,14
-10,62,14
-10,61,14
-10,61,14
-9,61,15
-10,62,14
-10,61,14
-9,61,15
-10,62,15
-10,61,14
-9,61,14
-10,61,14
-10,62,14
-9,62,14
-10,62,14
-10,61,14
-10,61,15
-10,61,15
-10,61,15
-10,61,15
-10,61,15
-10,61,15
-10,62,15
-9,61,15
-10,61,15
-10,61,14
-9,61,15
-9,61,14
-11,61,14
-11,62,14
-10,61,14
-10,61,15
-11,61,15
-11,61,15
-10,61,15
-11,61,14
-11,61,14
-9,62,15
-11,62,14
-12,61,14
-10,61,15
-10,61,15
-10,61,15
-11,61,15
-10,62,15
-10,62,14
-11,62,14
-10,62,14
-10,62,14
-9,62,15
-9,62,15
-11,61,14
-11,61,13
-11,61,13
-11,61,14
-12,61,14
-11,61,14
-11,61,15
-11,61,15
-11,61,15
-11,61,15
-10,62,14
-11,62,14
-10,61,15
-10,61,14
-11,61,14
-11,61,14
-10,61,15
-10,61,14
-11,61,15
-11,61,14
-10,61,15
-11,61,14
-11,61,14
-11,61,14
-10,61,14
-11,61,14
-11,61,14
-11,61,15
-11,61,15
-11,61,15
-10,62,15
-10,62,14
-11,62,14
-10,61,14
-10,61,14
-10,61,14
-10,61,14
-10,61,14
-10,61,14
-10,61,14
-10,61,14
-10,61,14
-10,61,14
-10,61,14
-10,61,13
-10,62,14
-10,62,14
-10,62,14
-10,61,14
-10,62,15
-10,62,14
-11,61,14
-10,61,14
-10,61,14
-10,61,14
-11,61,14
-11,61,14
-11,62,14
-10,62,14
-10,61,14
-10,61,14
-10,61,14
-10,61,14
-10,61,14
-10,61,14
-10,61,14
-10,62,14
-10,61,14
-10,62,14
-10,62,14
-9,62,14
-10,62,14
-10,61,15
-10,61,14
-10,61,14
-10,61,14
-10,61,14
-11,61,14
-10,62,14
-10,61,14
-10,61,14
-10,61,14
-10,61,14
-10,62,14
-10,62,14
-9,62,15
-9,61,15
-10,62,14
-10,62,14
-10,61,14
-10,61,14
-10,61,14
-10,61,14
-10,61,14
-10,61,14
-11,61,14
-10,62,14
-10,62,14
-10,62,14
-10,61,14
-10,61,14
-10,62,14
-10,62,14
-10,62,14
-10,62,14
-10,62,14
-10,61,14
-9,61,15
-9,61,15
-10,61,15
-9,62,15
-10,62,15
-10,62,15
-10,62,14
-10,62,14
-10,61,14
-10,61,14
-10,61,14
-10,61,14
-10,61,14
-10,61,14
-10,61,14
-10,61,14
-10,62,15
-9,61,14
-9,61,15
-9,61,15
-10,62,15
-10,61,15
-9,61,15
-10,62,15
-10,61,15
-10,61,15
-9,62,15
-10,61,15
-10,61,15
-10,61,15
-10,61,15
-10,61,15
-10,61,15
-10,61,15
-10,61,15
-9,61,14
-10,61,15
-10,61,15
-9,61,15
-10,61,15
-10,61,15
-10,61,15
-10,61,15
-10,61,15
-9,61,15
-9,62,15
-9,62,15
-10,61,15
-9,61,15
-9,61,15
-9,61,14
-10,61,14
-9,61,14
-9,62,14
-10,62,15
-9,62,15
-9,61,15
-9,61,15
-9,61,15
-10,62,15
-9,62,15
-10,61,15
-9,61,14
-10,61,14
-9,61,14
-9,61,14
-9,61,14
-9,61,14
-9,61,14
-9,61,14
-9,62,14
-9,62,14
-9,62,14
-9,61,14
-9,62,14
-9,62,15
-10,62,15
-9,62,15
-9,62,15
-10,61,14
-9,61,14
-9,62,14
-9,61,14
-10,61,14
-9,61,14
-9,61,14
-9,61,14
-9,61,14
-8,61,14
-9,61,14
-9,61,14
-9,62,14
-9,61,14
-9,61,14
-9,62,14
-9,62,14
-9,61,14
-9,62,15
-10,62,14
-10,62,15
-10,62,15
-9,61,15
-10,61,14
-9,61,14
-9,62,14
-9,62,14
-9,61,15
-9,61,14
-9,61,14
-9,62,15
-9,62,15
-9,61,15
-9,61,15
-9,61,14
-9,61,14
-9,62,14
-9,62,15
-9,61,14
-9,61,15
-9,61,15
-10,61,15
-10,61,15
-10,62,15
-10,62,15
-10,61,15
-10,61,15
-10,61,15
-10,61,15
-10,61,15
-10,61,15
-10,61,15
-10,62,15
-9,62,15
-9,61,15
-9,61,15
-9,61,14
-9,61,14
-9,61,14
-9,61,14
-10,62,14
-10,62,15
-10,62,15
-10,62,16
-10,61,15
-10,61,15
-10,62,15
-10,62,15
-10,61,15
-9,61,15
-9,61,15
-9,61,14
-9,61,14
-9,61,14
-9,61,14
-9,61,15
-9,61,15
-9,61,15
-10,62,15
-10,62,15
-9,62,15
-10,61,14
-10,61,14
-10,61,14
-10,61,14
-10,62,14
-10,62,14
-9,61,15
-9,61,15
-9,61,14
-9,61,15
-10,61,15
-9,62,14
-10,61,14
-10,61,14
-10,61,15
-10,61,15
-10,61,15
-10,61,15
-10,62,14
-10,61,14
-10,61,15
-10,61,15
-10,61,14
-10,61,15
-10,61,15
-10,61,14
-10,62,15
-10,62,15
-10,61,15
-9,62,15
-9,62,15
-10,61,15
-9,61,15
-10,61,14
-10,61,15
-10,62,15
-10,62,15
-10,61,15
-10,61,15
-11,61,15
-10,61,15
-10,61,15
-10,61,15
-10,61,15
-10,61,14
-10,61,14
-10,61,14
-10,61,14
-9,61,14
-9,61,14
-10,62,14
-10,62,14
-10,62,15
-10,62,15
-10,62,15
-10,62,15
-10,62,15
-10,62,15
-10,61,15
-10,61,14
-9,61,14
-9,61,14
-10,61,14
-10,61,14
-10,61,14
-10,62,14
-10,61,14
-10,61,15
-10,61,15
-10,61,15
-10,62,15
-10,62,15
-10,62,15
-10,61,15
-10,61,15
-10,62,15
-10,61,14
-10,61,14
-10,61,14
-10,61,14
-10,61,14
-10,61,14
-10,61,14
-10,62,15
-10,61,15
-10,62,14
-10,61,14
-10,61,15
-10,61,15
-10,62,15
-10,61,14
-10,61,14
-10,61,14
-10,62,14
-10,62,14
-10,62,14
-9,62,14
-10,61,14
-10,61,14
-10,61,14
-10,61,14
-10,61,14
-10,62,15
-10,61,14
-10,61,14
-11,61,14
-10,61,15
-10,61,15
-11,62,14
-11,62,14
-10,61,15
-10,62,14
-10,62,15
-10,62,15
-10,63,15
-9,61,15
-9,61,15
-10,61,14
-9,60,14
-9,60,13
-10,61,13
-10,62,14
-10,62,14
-10,62,15
-10,62,15
-10,62,15
-9,61,15
-10,62,15
-10,62,15
-10,62,15
-10,61,14
-10,61,14
-10,61,14
-10,61,14
-10,61,14
-10,62,14
-10,62,15
-10,61,15
-9,61,15
-9,60,15
-9,61,15
-10,61,14
-10,62,14
-10,62,15
-10,61,15
-10,61,15
-10,61,14
-11,61,15
-10,61,15
-10,61,15
-10,61,15
-10,61,15
-10,62,15
-10,62,15
-10,62,15
-9,61,15
-10,61,14
-10,61,14
-10,61,14
-10,61,14
-10,61,14
-10,61,15
-10,61,15
-10,61,15
-10,61,15
-10,61,15
-10,62,15
-10,61,15
-10,61,15
-10,61,15
-10,61,15
-10,61,14
-10,61,14
-10,61,15
-10,61,14
-10,61,14
-10,61,15
-10,62,15
-10,61,15
-10,61,15
-10,61,15
-10,61,15
-9,61,15
-10,62,15
-10,61,15
-10,61,14
-10,61,15
-10,61,14
-10,61,14
-10,62,15
-10,61,15
-10,61,15
-10,61,15
-10,61,15
-10,62,15
-10,61,15
-10,61,14
-10,62,14
-10,61,15
-10,61,14
-10,62,15
-10,61,15
-10,61,15
-10,61,14
-10,61,15
-10,61,14
-10,62,14
-10,62,14
-10,62,15
-10,61,15
-10,61,14
-10,61,14
-10,61,14
-10,61,14
-10,61,14
-9,61,14
-10,61,14
-10,61,14
-10,62,14
-10,61,14
-10,61,15
-10,61,14
-10,61,15
-10,61,15
-10,61,15
-10,61,15
-10,61,15
-10,61,15
-10,61,15
-10,62,14
-10,61,14
-10,61,14
-10,61,15
-10,61,15
-10,61,15
-10,62,15
-10,61,15
-10,61,15
-10,61,14
-10,61,15
-10,61,15
-10,61,14
-10,61,14
-10,62,14
-10,61,14
-10,61,14
-10,61,15
-10,61,14
-10,61,14
-10,62,15
-10,62,14
-10,61,15
-10,61,14
-10,61,14
-11,61,14
-11,61,14
-10,61,15
-10,61,15
-10,61,15
-10,61,14
-10,62,14
-10,62,14
-10,61,15
-10,62,15
-10,62,15
-10,62,15
-10,61,15
-9,61,14
-10,61,14
-10,61,14
-10,61,14
-10,61,14
-10,61,14
-10,61,14
-10,61,14
-10,61,14
-11,62,14
-10,61,15
-10,61,15
-11,62,15
-10,61,14
-10,61,14
-10,61,14
-10,61,14
-10,62,14
-10,61,14
-10,61,14
-10,62,14
-10,62,14
-10,61,14
-10,62,14
-11,62,15
-10,61,15
-10,61,15
-10,61,14
-10,61,14
-10,61,14
-10,62,14
-10,62,15
-10,62,15
-10,61,14
-10,61,14
-10,61,14
-10,62,14
-10,62,14
-10,62,14
-9,61,14
-10,61,14
-9,61,15
-10,61,14
-10,62,15
-10,61,15
-10,61,14
-10,61,14
-10,61,15
-10,61,14
-10,61,14
-9,61,14
-10,61,14
-10,62,14
-10,62,14
-9,62,15
-9,61,14
-9,61,15
-9,61,15
-10,61,15
-9,61,15
-10,61,14
-10,61,14
-10,62,14
-10,62,14
-10,61,14
-9,61,14
-10,62,14
-10,61,14
-10,61,14
-9,62,15
-9,61,14
-9,61,14
-9,61,15
-9,61,15
-9,62,15
-9,61,14
-9,61,14
-10,61,14
-10,62,14
-10,61,14
-10,61,14
-9,61,14
-9,62,15
-9,62,15
-9,61,14
-9,61,14
-9,62,15
-9,62,14
-10,62,14
-9,61,14
-9,61,14
-9,62,14
-9,62,14
-9,61,14
-10,62,14
-9,62,14
-9,61,15
-9,61,15
-9,61,14
-10,62,14
-10,62,14
-9,62,14
-9,61,15
-9,61,15
-9,61,14
-9,61,14
-10,61,14
-10,61,14
-10,62,15
-9,61,15
-10,61,14
-10,62,15
-10,62,15
-10,62,15
-10,61,15
-10,61,14
-10,62,14
-10,61,14
-9,61,14
-10,62,14
-9,62,15
-9,61,15
-9,61,15
-9,61,14
-9,62,14
-10,62,14
-10,62,14
-10,61,14
-9,61,14
-9,61,14
-10,61,14
-9,61,14
-9,61,14
-9,61,14
-10,62,14
-9,61,14
-10,61,14
-10,61,14
-10,61,14
-10,61,14
-9,62,15
-9,61,14
-10,62,14
-9,62,14
-9,61,14
-10,61,14
-9,62,14
-10,62,14
-10,62,14
-10,61,14
-10,61,14
-10,61,14
-10,61,14
-10,61,14
-10,61,14
-10,62,14
-10,62,14
-9,61,14
-10,62,15
-9,62,14
-9,62,15
-9,62,15
-10,61,14
-10,61,14
-10,62,14
-10,62,15
-10,61,14
-10,61,14
-10,61,13
-10,62,14
-10,62,14
-9,61,14
-8,61,14
-9,62,14
-9,62,14
-9,62,15
-8,61,15
-10,61,14
-10,62,14
-10,62,15
-10,62,14
-10,62,15
-10,62,15
-10,62,15
-10,62,15
-10,62,15
-9,62,15
-9,61,15
-9,61,14
-9,61,15
-9,61,15
-9,61,15
-10,61,15
-10,62,16
-10,62,16
-11,61,16
-9,60,16
-9,60,15
-10,60,14
-10,60,14
-10,61,14
-10,61,14
-10,60,13
-10,60,13
-11,61,13
-11,62,13
-11,62,13
-11,63,14
-11,62,14
-11,62,15
-10,62,14
-9,63,15
-9,63,15
-10,62,14
-10,61,14
-10,61,14
-10,61,14
-11,62,14
-10,63,15
-10,62,14
-10,61,14
-10,60,14
-10,60,14
-11,61,13
-11,62,13
-11,63,13
-11,62,12
-11,61,12
-10,61,12
-10,61,12
-10,60,11
-10,59,11
-9,59,11
-10,61,10
-10,64,10
-10,66,11
-10,67,12
-12,64,12
-12,61,12
-10,58,13
-8,58,13
-9,59,13
-11,62,12
-12,64,11
-12,64,11
-12,62,11
-11,62,11
-10,63,11
-11,64,11
-11,63,11
-11,62,11
-10,63,11
-10,62,11
-9,62,11
-11,62,10
-11,63,10
-11,61,11
-11,61,11
-11,61,11
-11,61,11
-11,62,11
-12,66,11
-12,67,11
-12,65,10
-12,62,11
-10,61,12
-8,60,13
-9,60,13
-9,60,14
-10,61,13
-11,62,12
-11,62,12
-12,63,12
-12,63,12
-12,63,13
-11,63,14
-11,60,13
-11,60,13
-10,61,14
-9,61,14
-10,61,14
-10,62,13
-9,62,13
-10,61,13
-10,61,13
-10,61,12
-10,61,13
-10,61,12
-10,62,13
-10,62,13
-10,62,13
-9,62,13
-9,62,13
-9,62,13
-9,62,13
-9,62,13
-8,62,13
-9,62,13
-9,61,13
-10,61,13
-10,61,14
-10,62,15
-10,63,14
-11,63,14
-10,62,14
-10,62,14
-11,62,14
-9,62,13
-9,62,13
-9,61,13
-8,61,13
-8,61,13
-8,62,13
-8,62,13
-8,62,13
-9,62,13
-9,61,13
-10,61,13
-10,62,13
-9,63,13
-10,62,13
-10,62,13
-10,61,13
-9,62,14
-9,62,13
-10,62,13
-9,61,13
-9,61,13
-10,62,13
-9,62,14
-10,62,13
-10,62,14
-9,62,13
-9,61,13
-9,62,13
-10,62,13
-10,62,13
-10,62,13
-9,62,13
-9,62,13
-8,62,13
-9,61,13
-9,61,13
-9,61,13
-9,61,13
-10,62,13
-10,62,14
-10,62,14
-10,62,14
-10,62,14
-10,62,14
-10,62,13
-10,62,14
-10,62,14
-10,62,13
-9,62,13
-9,62,13
-10,62,13
-9,61,13
-9,62,13
-9,62,13
-9,62,13
-9,62,13
-10,62,12
-10,61,13
-10,61,13
-10,62,13
-10,62,13
-10,61,13
-10,62,13
-10,62,13
-10,62,13
-10,62,13
-10,62,13
-10,61,13
-10,62,13
-10,61,13
-10,62,13
-10,62,13
-10,62,12
-10,62,12
-10,62,13
-10,62,13
-10,62,13
-10,62,12
-10,62,13
-10,62,13
-10,62,13
-10,62,13
-10,62,12
-11,62,12
-10,62,13
-10,62,13
-10,62,13
-10,62,12
-10,62,12
-10,62,12
-10,62,13
-10,62,12
-10,62,12
-10,62,12
-10,61,12
-10,61,12
-10,61,12
-10,62,12
-10,62,12
-10,62,12
-10,62,13
-10,61,13
-10,61,12
-10,62,13
-10,62,13
-10,62,12
-10,62,12
-10,62,13
-10,62,12
-10,62,13
-10,62,13
-10,62,13
-10,62,13
-10,62,13
-10,62,13
-10,62,12
-10,62,13
-10,62,13
-10,61,13
-10,61,13
-10,62,13
-10,62,13
-11,62,13
-11,62,13
-11,62,13
-10,62,13
-11,62,13
-10,62,13
-10,62,12
-10,62,13
-10,62,13
-10,62,13
-10,62,12
-10,62,12
-10,62,12
-10,62,13
-10,62,13
-10,62,13
-11,62,13
-10,62,13
-10,61,12
-10,61,12
-10,61,13
-10,62,13
-10,62,13
-10,61,13
-10,62,13
-10,62,13
-10,61,13
-10,61,13
-10,61,12
-11,62,12
-11,62,13
-11,62,13
-11,62,13
-11,62,13
-10,62,13
-10,62,13
-10,62,13
-10,62,13
-10,62,13
-10,62,12
-10,61,12
-10,61,12
-9,62,12
-10,61,12
-11,62,12
-11,62,13
-10,62,13
-11,62,13
-11,62,13
-11,62,13
-11,62,13
-10,61,12
-11,61,12
-10,62,12
-10,62,12
-10,61,12
-10,61,12
-10,61,12
-10,63,13
-10,63,13
-10,62,13
-10,62,12
-10,62,13
-9,62,13
-9,62,12
-10,62,13
-10,61,12
-10,61,13
-10,62,12
-10,62,12
-10,62,12
-10,62,13
-10,61,13
-11,62,13
-11,62,12
-11,62,12
-10,62,12
-10,61,12
-10,61,12
-10,61,12
-10,62,13
-10,62,13
-10,62,13
-10,62,12
-10,62,13
-9,62,13
-9,62,12
-10,62,13
-10,62,12
-10,62,12
-10,62,12
-10,61,12
-11,62,12
-10,62,12
-10,62,13
-10,62,13
-10,62,13
-10,62,12
-10,62,12
-9,63,12
-9,62,12
-9,62,13
-9,62,13
-9,61,12
-9,61,12
-9,62,11
-10,62,11
-9,62,12
-9,62,12
-10,62,12
-9,62,13
-10,63,13
-10,63,13
-10,62,13
-10,61,12
-10,61,11
-10,61,11
-10,62,12
-10,62,12
-10,62,13
-10,62,12
-10,61,12
-10,61,12
-10,63,12
-10,62,13
-10,62,12
-11,61,12
-11,61,12
-11,61,12
-11,62,12
-10,63,12
-10,63,13
-11,62,13
-10,63,13
-11,63,13
-10,62,13
-10,62,12
-10,62,12
-10,62,12
-10,62,12
-10,62,12
-10,62,12
-10,62,12
-10,62,12
-10,62,11
-11,61,12
-10,62,12
-10,61,12
-10,62,12
-10,62,12
-11,63,12
-10,62,12
-10,62,13
-10,62,12
-11,61,13
-10,62,12
-10,62,12
-11,62,12
-11,62,12
-11,62,12
-11,62,12
-11,62,12
-12,62,12
-13,61,12
-12,61,12
-12,63,12
-12,63,12
-12,62,11
-12,61,12
-12,61,12
-12,61,11
-12,60,11
-12,60,11
-12,60,11
-12,63,12
-12,64,12
-12,66,12
-13,63,12
-13,60,12
-12,57,13
-10,60,13
-11,62,13
-12,63,13
-13,63,12
-13,62,12
-12,61,12
-12,61,11
-13,61,11
-13,62,11
-13,63,11
-13,63,11
-13,62,12
-13,61,12
-12,61,12
-11,61,13
-12,61,13
-12,62,13
-11,62,12
-11,62,12
-11,61,12
-11,61,12
-10,62,12
-11,62,12
-11,62,12
-11,61,12
-10,61,12
-11,61,12
-11,61,12
-11,62,12
-12,63,12
-11,62,13
-11,62,12
-11,61,12
-11,61,12
-11,61,13
-11,62,13
-11,62,13
-11,62,13
-11,61,13
-10,61,13
-10,61,12
-11,62,12
-11,62,11
-10,62,12
-10,63,12
-10,63,12
-10,62,12
-10,61,12
-10,61,12
-10,62,12
-10,63,12
-11,63,11
-11,62,11
-10,62,12
-10,61,12
-10,62,12
-10,62,12
-11,62,12
-11,62,12
-11,62,12
-10,62,13
-10,62,13
-10,62,13
-10,62,12
-11,62,12
-10,62,12
-10,62,12
-11,62,12
-10,62,12
-10,62,12
-10,62,11
-10,62,12
-10,62,11
-10,62,12
-10,62,12
-10,61,12
-10,61,12
-11,62,12
-11,62,13
-11,62,12
-11,62,12
-10,61,12
-11,62,12
-10,62,13
-11,62,12
-10,62,12
-10,62,12
-10,62,13
-10,62,12
-10,62,12
-10,62,13
-10,61,12
-11,62,12
-10,62,12
-10,62,12
-10,62,12
-10,61,13
-10,62,13
-10,62,13
-10,62,12
-11,62,12
-11,62,12
-10,62,12
-10,61,12
-10,61,12
-11,62,11
-11,62,12
-11,62,12
-10,61,12
-10,62,12
-10,62,12
-10,62,12
-10,62,12
-10,62,12
-10,62,12
-9,62,12
-10,62,12
-10,62,12
-10,62,12
-10,62,12
-10,62,12
-10,62,12
-10,61,12
-10,62,12
-10,62,12
-10,62,13
-11,62,13
-10,62,12
-10,62,12
-10,62,11
-10,62,11
-10,62,11
-10,62,11
-10,62,11
-10,62,11
-11,62,12
-10,62,13
-10,62,13
-10,62,12
-10,62,12
-10,62,12
-10,62,12
-10,62,12
-10,62,12
-10,62,12
-10,62,11
-11,62,11
-10,62,12
-10,62,11
-10,62,12
-10,62,12
-10,62,12
-10,62,13
-10,62,12
-10,62,12
-10,62,12
-10,62,12
-10,61,11
-11,62,12
-10,62,12
-10,62,12
-10,62,12
-11,62,12
-10,62,12
-10,62,12
-10,62,12
-10,62,13
-10,62,12
-10,61,12
-10,62,12
-10,63,12
-10,63,12
-10,62,12
-10,61,12
-10,62,12
-10,62,12
-10,62,12
-10,62,12
-10,63,11
-11,62,11
-10,62,12
-10,62,12
-9,61,12
-10,61,12
-10,61,11
-10,62,12
-10,63,13
-10,63,13
-10,62,13
-10,62,12
-11,62,12
-11,62,12
-10,62,12
-10,62,12
-10,61,12
-10,62,12
-9,62,12
-9,62,12
-9,61,12
-9,61,12
-10,62,12
-11,63,12
-10,62,12
-11,62,12
-11,62,12
-11,62,12
-11,62,12
-10,61,12
-10,62,12
-10,62,12
-10,61,12
-10,62,11
-10,62,12
-10,62,12
-10,62,12
-10,62,12
-10,62,12
-10,62,13
-9,63,13
-10,62,13
-10,61,12
-10,61,11
-10,61,11
-11,62,12
-10,62,12
-11,61,13
-11,62,12
-11,62,12
-11,62,12
-11,61,12
-10,61,13
-10,62,13
-10,62,13
-10,62,13
-11,63,13
-11,62,13
-11,62,12
-11,61,12
-11,62,12
-12,62,11
-11,62,12
-11,62,11
-11,62,11
-11,62,11
-11,62,11
-11,61,11
-11,62,11
-11,62,12
-10,62,12
-10,62,12
-11,62,13
-11,62,11
-11,62,11
-12,63,11
-11,62,12
-12,62,11
-11,63,12
-11,62,12
-11,62,12
-11,62,12
-10,62,11
-10,62,11
-11,61,11
-11,62,12
-11,62,11
-11,62,12
-11,62,11
-11,62,12
-11,62,12
-11,62,12
-11,62,12
-11,62,12
-10,62,12
-11,62,12
-11,62,12
-11,62,12
-11,62,12
-10,62,12
-11,62,12
-10,62,12
-10,62,11
-11,62,11
-11,62,11
-10,62,12
-10,62,12
-10,62,11
-11,62,11
-11,62,11
-11,62,11
-11,62,12
-11,62,12
-10,62,12
-10,62,12
-10,62,12
-10,61,12
-11,62,12
-10,62,12
-11,62,11
-10,62,11
-10,62,11
-10,61,11
-10,62,11
-11,62,11
-11,62,11
-10,62,11
-10,62,11
-10,63,11
-10,62,11
-10,62,11
-10,62,12
-10,62,11
-11,62,11
-11,62,11
-11,62,11
-11,62,11
-11,62,11
-11,62,11
-10,62,11
-10,62,11
-11,62,11
-10,62,11
-10,62,11
-10,62,11
-10,62,11
-10,62,12
-10,62,12
-10,62,12
-11,62,11
-11,62,11
-11,62,11
-11,62,11
-10,62,11
-10,62,11
-11,62,11
-11,62,11
-11,62,11
-11,62,11
-10,62,11
-11,62,11
-11,62,11
-11,62,11
-10,62,11
-11,62,11
-11,62,11
-10,62,11
-11,62,11
-11,62,11
-11,62,11
-11,62,11
-11,62,11
-11,62,11
-11,62,11
-11,62,11
-11,62,11
-11,62,11
-11,62,12
-11,62,11
-11,62,12
-11,62,12
-11,62,11
-11,62,11
-11,62,11
-11,62,11
-11,62,11
-11,62,11
-11,62,11
-11,62,11
-11,62,11
-11,62,11
-11,62,11
-11,62,11
-11,62,12
-11,62,11
-11,62,11
-11,62,11
-11,62,11
-11,62,11
-11,62,11
-11,62,11
-11,62,11
-11,62,11
-11,62,11
-11,62,12
-11,62,12
-11,62,11
-11,62,12
-11,62,12
-11,62,12
-11,62,11
-11,62,11
-11,62,11
-11,62,11
-11,62,11
-11,62,11
-11,62,12
-11,62,12
-11,62,12
-11,62,12
-11,62,12
-11,62,12
-11,62,12
-11,62,12
-11,61,12
-11,61,11
-11,61,11
-11,62,11
-11,62,12
-11,62,12
-11,62,12
-10,62,12
-10,62,12
-10,61,12
-11,62,12
-11,62,12
-10,62,12
-11,62,12
-11,62,12
-10,62,12
-11,61,12
-10,62,12
-10,63,12
-11,63,11
-11,62,11
-11,61,11
-10,61,12
-11,62,12
-11,62,12
-11,62,12
-12,62,12
-12,62,12
-12,62,12
-11,62,12
-11,62,12
-11,62,12
-11,62,12
-11,62,12
-10,62,12
-10,62,11
-10,62,11
-11,62,11
-11,62,12
-11,62,11
-11,62,12
-12,62,12
-12,62,12
-12,62,12
-12,62,12
-11,62,12
-11,62,12
-11,62,11
-11,62,11
-11,62,12
-11,62,12
-11,61,12
-11,62,12
-11,62,12
-11,62,12
-11,62,12
-12,61,12
-12,62,12
-12,62,12
-12,62,12
-12,62,11
-11,62,11
-11,61,11
-11,62,11
-11,62,11
-11,62,11
-11,62,11
-11,62,11
-11,62,11
-11,62,11
-11,62,11
-11,62,11
-12,62,11
-12,61,11
-12,62,11
-12,62,11
-12,62,11
-12,62,11
-12,62,11
-12,62,12
-12,62,12
-11,62,12
-11,62,12
-11,62,12
-12,62,12
-11,62,12
-11,62,12
-11,62,12
-11,61,12
-11,61,12
-11,62,11
-11,62,11
-11,62,11
-11,62,12
-11,62,11
-11,61,12
-11,62,12
-11,62,12
-11,62,12
-11,62,12
-11,61,12
-11,62,12
-11,62,12
-11,62,12
-11,62,12
-11,62,12
-12,62,12
-11,62,12
-12,62,12
-11,62,12
-11,62,12
-11,62,12
-11,62,12
-11,62,11
-10,62,11
-10,62,12
-11,62,11
-11,62,12
-11,62,11
-11,62,12
-11,62,12
-11,62,12
-11,62,12
-12,62,12
-12,62,12
-11,62,12
-11,62,12
-11,62,12
-11,62,11
-11,62,11
-11,62,11
-10,62,11
-11,62,11
-10,62,12
-11,62,11
-11,62,12
-11,62,11
-11,62,12
-11,62,12
-11,62,11
-11,62,12
-11,62,11
-11,62,11
-11,62,11
-11,62,11
-11,62,11
-11,62,12
-11,62,11
-11,62,11
-11,62,11
-11,62,11
-11,62,11
-11,62,12
-11,62,12
-11,62,11
-11,62,12
-11,62,11
-11,62,11
-11,62,12
-11,62,11
-11,62,12
-11,62,12
-11,62,12
-11,62,12
-11,62,11
-11,62,11
-11,62,12
-11,62,12
-11,62,11
-11,62,11
-11,62,11
-11,62,11
-11,62,11
-11,62,11
-11,62,11
-11,62,11
-11,62,12
-11,62,12
-11,62,12
-11,62,11
-11,62,11
-11,61,11
-11,62,11
-11,62,11
-11,62,11
-11,62,11
-11,62,11
-11,62,11
-10,62,11
-11,62,11
-11,62,11
-11,62,11
-11,62,11
-11,62,11
-11,62,11
-11,62,11
-11,62,11
-11,62,11
-11,62,11
-11,62,11
-11,62,11
-11,62,11
-11,62,11
-11,62,11
-11,62,11
-11,62,11
-11,62,11
-11,62,11
-11,62,11
-11,62,11
-11,62,11
-11,62,11
-11,62,11
-11,62,11
-11,62,11
-11,62,11
-11,62,11
-11,62,11
-11,62,11
-11,62,11
-11,62,11
-11,62,11
-11,62,11
-11,62,11
-11,62,11
-11,62,11
-11,62,11
-11,62,11
-11,62,11
-11,62,11
-10,62,11
-11,62,11
-11,62,11
-11,62,11
-11,62,11
-11,62,11
-11,62,11
-11,62,11
-11,62,11
-11,62,11
-11,62,11
-11,62,12
-11,62,11
-11,62,11
-10,62,11
-10,62,11
-11,62,11
-11,62,11
-11,62,11
-11,62,11
-10,62,11
-11,62,11
-11,62,11
-11,62,11
-11,62,11
-11,62,11
-11,62,11
-11,62,12
-11,62,12
-11,62,11
-11,62,12
-11,62,12
-11,62,11
-11,62,11
-11,62,11
-11,62,12
-11,62,11
-11,62,12
-11,62,11
-11,62,12
-11,62,11
-10,62,11
-10,61,11
-11,62,12
-10,62,12
-10,62,12
-11,62,11
-10,62,12
-10,61,12
-10,62,12
-10,62,12
-11,62,11
-11,62,12
-10,61,12
-11,62,12
-11,62,12
-11,62,12
-11,62,12
-11,62,12
-11,62,12
-11,62,12
-11,62,12
-11,62,12
-11,62,11
-10,62,11
-11,62,11
-11,62,11
-11,62,11
-11,62,11
-10,62,12
-11,62,11
-11,62,12
-11,62,11
-11,62,12
-11,62,12
-11,62,12
-11,62,12
-11,62,11
-11,62,11
-10,61,12
-11,62,12
-11,62,11
-11,62,12
-11,62,12
-11,62,11
-11,62,11
-11,63,11
-11,62,11
-10,62,12
-10,62,12
-10,62,12
-11,63,11
-11,63,11
-10,62,12
-10,62,12
-10,62,12
-10,62,12
-10,62,11
-10,62,11
-10,62,11
-10,62,11
-10,61,11
-10,61,10
-11,63,11
-10,63,11
-11,63,11
-10,62,11
-10,62,12
-10,62,12
-10,62,12
-10,62,12
-10,62,11
-10,62,11
-10,63,11
-10,62,12
-9,62,12
-9,62,12
-9,63,12
-9,63,12
-9,62,11
-9,62,10
-9,62,10
-9,62,11
-9,62,11
-9,62,11
-9,61,11
-9,62,12
-8,63,12
-9,63,12
-10,62,11
-10,62,11
-8,62,12
-9,62,12
-10,63,12
-10,63,12
-10,62,12
-9,62,11
-9,62,12
-9,62,12
-9,62,12
-9,62,12
-9,62,11
-10,62,11
-10,62,11
-9,62,12
-10,62,12
-9,62,12
-9,62,12
-9,62,12
-10,63,12
-9,63,11
-9,62,11
-9,62,11
-8,62,12
-8,62,11
-9,63,11
-9,62,12
-9,62,11
-9,62,11
-9,62,11
-9,62,11
-9,62,11
-9,63,11
-10,63,11
-10,62,11
-10,62,12
-9,62,12
-9,62,12
-10,63,11
-10,63,11
-9,62,11
-9,62,11
-9,62,11
-9,63,11
-10,63,11
-10,63,12
-9,62,11
-9,62,11
-9,62,11
-10,63,11
-10,63,11
-9,62,11
-9,62,11
-9,62,11
-9,62,11
-10,63,11
-9,63,11
-9,62,12
-9,62,12
-9,62,12
-9,62,11
-9,62,11
-9,62,12
-9,62,12
-9,62,11
-9,62,11
-10,62,12
-9,62,11
-9,62,12
-9,62,12
-9,62,11
-9,62,11
-9,62,11
-9,62,11
-9,62,11
-9,63,11
-9,63,11
-9,62,11
-9,62,12
-9,62,12
-9,62,12
-10,63,11
-10,63,11
-10,63,12
-9,62,11
-9,62,11
-9,62,12
-9,62,11
-9,62,11
-9,62,11
-9,62,11
-9,62,11
-9,62,12
-10,62,12
-10,62,12
-10,62,12
-10,62,11
-10,62,11
-10,62,11
-9,62,11
-9,62,11
-9,62,11
-9,63,11
-9,62,11
-9,62,12
-9,62,11
-10,62,11
-10,62,11
-10,62,11
-10,63,12
-10,62,12
-10,62,12
-10,62,11
-9,62,11
-9,62,11
-9,62,11
-9,62,11
-9,62,11
-9,62,11
-9,62,11
-9,62,11
-9,62,11
-10,62,11
-10,62,11
-10,62,11
-10,62,12
-10,62,12
-9,62,12
-9,62,12
-10,62,11
-10,62,11
-10,62,12
-10,62,12
-10,62,11
-10,62,11
-10,62,11
-10,62,11
-10,62,11
-9,62,12
-9,62,12
-10,62,12
-9,62,12
-9,62,12
-9,62,12
-9,62,12
-9,62,12
-10,62,11
-10,62,11
-10,62,11
-10,62,11
-9,62,12
-10,62,12
-9,62,12
-10,62,12
-10,62,12
-10,62,12
-10,62,12
-10,62,12
-10,63,12
-10,62,11
-10,62,11
-9,62,11
-9,62,12
-10,62,11
-9,62,12
-9,62,12
-9,62,12
-10,62,12
-10,62,12
-10,62,12
-10,62,12
-10,62,12
-10,62,12
-10,62,12
-10,62,12
-10,62,12
-10,62,11
-10,62,12
-10,62,12
-10,62,12
-10,62,12
-9,62,12
-10,62,12
-10,62,12
-10,62,12
-10,62,12
-10,62,12
-10,62,12
-9,62,12
-10,62,12
-10,62,11
-9,62,11
-9,62,11
-10,62,12
-10,62,12
-10,62,12
-10,62,12
-10,62,12
-10,62,12
-10,62,12
-10,62,12
-11,62,12
-10,62,12
-10,62,13
-10,62,12
-9,62,12
-10,62,12
-9,62,12
-10,62,11
-10,62,11
-9,62,11
-10,62,12
-9,62,12
-9,62,12
-9,62,12
-9,62,12
-10,62,12
-9,62,12
-9,62,12
-10,62,12
-10,62,12
-10,62,12
-10,62,12
-10,62,12
-10,62,12
-10,62,12
-10,62,12
-10,62,12
-10,62,12
-9,62,12
-10,62,12
-9,62,12
-10,62,12
-10,62,12
-10,62,12
-10,62,12
-10,62,12
-10,62,12
-10,62,12
-10,62,12
-10,62,12
-10,62,12
-9,62,12
-9,62,12
-10,62,12
-10,62,11
-10,62,11
-10,62,11
-10,62,11
-10,61,12
-10,62,12
-10,62,12
-10,62,12
-9,62,12
-10,62,11
-10,62,11
-10,62,11
-10,62,11
-10,63,11
-10,62,12
-10,62,12
-9,62,12
-10,62,11
-10,63,11
-10,63,11
-10,62,11
-10,62,11
-10,62,11
-10,62,11
-10,62,11
-10,62,11
-10,62,11
-10,62,11
-10,62,12
-10,62,11
-10,62,11
-10,62,12
-10,62,12
-10,62,11
-10,62,11
-10,62,11
-10,62,12
-10,62,12
-10,63,12
-9,62,11
-9,62,11
-9,62,11
-10,62,11
-10,62,12
-10,62,12
-10,62,11
-10,62,12
-10,62,12
-10,62,12
-10,62,12
-10,62,11
-10,62,11
-9,62,11
-10,62,11
-10,63,12
-10,62,12
-10,62,12
-10,62,12
-10,62,11
-10,62,12
-10,62,12
-10,61,12
-9,62,12
-10,62,11
-9,62,11
-9,62,11
-9,62,12
-9,62,12
-9,62,11
-9,62,11
-10,62,11
-10,62,12
-9,62,12
-10,62,12
-10,62,12
-10,62,11
-10,62,12
-10,62,12
-9,62,12
-10,62,12
-9,62,12
-9,62,12
-9,62,12
-9,62,12
-9,62,12
-9,63,12
-9,61,12
-9,62,12
-9,63,11
-10,63,11
-8,62,12
-8,62,11
-9,61,11
-9,62,11
-10,62,12
-9,63,12
-10,62,13
-10,62,13
-9,61,13
-9,62,13
-9,62,13
-9,62,13
-9,62,13
-9,62,13
-9,62,12
-9,62,12
-9,62,12
-9,62,12
-9,62,12
-8,62,12
-9,62,12
-9,62,12
-8,62,12
-9,62,12
-9,62,12
-9,62,12
-9,62,13
-9,62,12
-9,62,12
-9,63,12
-8,62,12
-8,62,12
-8,62,12
-9,62,12
-9,62,12
-9,62,12
-9,62,12
-9,62,12
-9,62,12
-9,62,12
-9,62,12
-9,62,13
-9,62,12
-9,62,12
-9,62,12
-9,62,12
-8,62,12
-8,62,12
-8,62,12
-8,62,12
-8,62,12
-8,62,12
-9,62,12
-8,62,12
-8,62,12
-9,63,12
-8,62,12
-8,62,12
-8,62,12
-9,62,12
-9,62,12
-9,62,12
-9,62,12
-9,62,12
-9,62,12
-9,62,12
-9,62,12
-9,62,12
-9,62,12
-9,62,12
-9,62,12
-10,62,12
-10,63,12
-9,62,12
-10,62,12
-10,62,12
-9,62,12
-9,62,12
-9,62,12
-9,62,12
-9,62,12
-9,62,12
-9,62,12
-9,62,13
-9,62,12
-9,62,12
-10,62,12
-9,62,12
-9,62,12
-9,62,12
-9,62,12
-9,62,12
-9,62,13
-9,62,13
-10,62,13
-9,62,13
-10,62,13
-10,62,13
-10,62,13
-9,62,13
-10,62,12
-10,62,12
-10,62,12
-9,62,13
-9,62,12
-10,62,13
-9,62,13
-9,62,13
-9,62,13
-9,62,13
-9,62,12
-9,62,12
-10,62,12
-9,62,13
-9,62,13
-9,62,13
-9,62,13
-10,62,13
-9,62,14
-10,62,14
-10,62,13
-9,62,13
-10,62,13
-9,61,13
-9,62,13
-9,62,13
-9,62,13
-9,61,13
-9,62,13
-9,62,14
-9,62,14
-9,62,14
-9,62,13
-9,62,13
-9,61,13
-8,62,13
-9,62,13
-9,62,13
-8,62,13
-8,62,13
-8,62,13
-8,62,13
-9,62,13
-9,62,13
-9,62,13
-9,62,13
-9,62,13
-8,62,13
-9,62,13
-9,62,13
-9,62,13
-9,61,13
-9,61,13
-9,62,13
-9,62,13
-9,63,13
-8,62,13
-8,61,13
-9,62,13
-9,62,13
-10,62,13
-10,62,13
-10,62,13
-10,62,13
-10,62,13
-9,62,13
-9,62,13
-9,62,13
-8,62,12
-8,62,12
-9,61,13
-9,62,13
-9,63,13
-9,62,13
-9,61,12
-10,61,12
-10,62,12
-9,62,13
-10,62,12
-10,61,12
-9,61,12
-9,62,12
-9,62,13
-9,62,13
-9,62,13
-10,63,13
-10,62,13
-10,62,12
-10,62,12
-10,62,12
-10,62,12
-9,62,12
-9,62,12
-9,62,12
-9,62,12
-9,62,12
-9,62,12
-10,62,12
-10,62,13
-10,62,13
-10,62,13
-10,62,13
-9,62,13
-10,62,13
-9,62,13
-9,62,12
-9,62,12
-9,62,12
-9,62,12
-9,62,12
-9,61,12
-10,61,12
-10,62,12
-10,62,13
-10,62,13
-10,62,13
-10,62,13
-10,62,13
-10,62,13
-10,62,12
-9,62,12
-9,62,12
-9,62,12
-9,62,12
-10,62,12
-10,62,12
-9,62,12
-10,62,12
-9,62,12
-10,62,12
-9,62,13
-9,62,13
-10,62,13
-10,62,13
-10,62,13
-10,62,12
-10,62,12
-10,62,13
-10,62,12
-9,62,12
-9,62,12
-9,62,12
-10,62,12
-10,62,12
-10,62,12
-10,62,12
-10,62,12
-10,62,12
-10,62,12
-10,62,12
-10,62,12
-10,62,12
-10,62,12
-9,62,12
-10,62,12
-9,62,13
-9,62,12
-10,62,12
-9,62,12
-9,61,12
-9,62,12
-9,62,12
-10,62,12
-9,62,12
-9,62,12
-9,62,13
-9,62,13
-9,62,12
-9,62,12
-9,62,12
-9,62,12
-9,62,12
-9,62,12
-9,62,12
-9,62,12
-9,62,12
-9,62,12
-9,62,12
-9,62,12
-9,62,12
-9,62,12
-9,62,12
-9,62,12
-9,62,12
-9,62,12
-9,62,12
-9,62,12
-9,62,12
-9,63,12
-8,62,12
-8,62,12
-9,62,12
-9,62,12
-9,62,12
-9,62,12
-10,62,12
-10,62,12
-10,62,12
-10,62,12
-9,62,12
-9,62,12
-9,62,12
-9,62,12
-9,62,12
-9,62,12
-9,63,12
-10,62,12
-9,62,11
-9,62,12
-10,62,12
-9,62,11
-9,62,11
-9,62,12
-9,63,12
-9,63,12
-9,62,12
-9,62,12
-9,62,12
-9,62,12
-9,62,12
-9,62,12
-9,62,12
-9,62,12
-9,62,12
-9,62,12
-9,62,12
-9,62,12
-9,62,12
-9,62,12
-9,62,12
-9,62,12
-10,62,12
-9,62,12
-9,62,12
-9,62,13
-9,62,12
-9,62,12
-9,62,12
-9,62,12
-9,62,12
-9,62,12
-9,62,12
-9,62,12
-9,62,12
-9,62,12
-9,62,12
-9,62,12
-9,62,12
-9,62,12
-9,62,12
-9,62,12
-9,62,12
-9,62,12
-9,62,13
-9,62,12
-9,62,12
-9,62,12
-9,62,12
-9,62,12
-9,62,12
-9,62,12
-9,62,12
-9,62,12
-9,62,12
-10,62,12
-10,62,12
-9,62,13
-9,62,12
-9,62,12
-9,62,12
-9,62,12
-9,62,12
-9,62,12
-9,62,12
-9,62,12
-9,62,12
-9,62,12
-9,62,12
-9,62,12
-9,62,13
-9,62,12
-9,62,12
-9,62,12
-9,62,12
-9,62,12
-8,62,12
-8,62,12
-8,62,12
-8,62,12
-8,62,12
-8,62,12
-8,62,12
-9,62,12
-9,62,12
-9,62,12
-9,62,12
-9,62,12
-9,62,12
-9,62,12
-9,63,12
-9,62,12
-9,62,12
-10,62,12
-9,62,12
-9,62,12
-10,63,12
-9,62,13
-8,62,12
-8,62,12
-9,62,12
-9,63,11
-8,63,12
-9,62,12
-9,61,12
-9,62,12
-9,62,12
-9,62,13
-9,62,12
-9,62,13
-9,61,12
-10,61,12
-10,62,12
-9,62,12
-9,62,13
-10,62,12
-9,62,12
-8,62,12
-8,62,12
-8,62,12
-8,62,12
-7,62,13
-8,62,12
-9,62,12
-10,62,12
-9,61,13
-10,61,13
-9,61,13
-9,62,14
-9,62,14
-9,62,14
-9,62,14
-8,62,14
-8,62,13
-8,62,12
-9,62,11
-8,62,12
-8,62,12
-8,62,12
-8,62,13
-8,63,13
-8,63,13
-8,61,13
-9,62,13
-9,62,14
-10,63,14
-9,62,13
-9,61,13
-8,61,13
-8,61,12
-8,62,13
-8,62,13
-8,62,13
-8,62,13
-9,62,13
-9,62,13
-9,62,14
-9,62,14
-9,62,13
-9,62,13
-8,62,13
-8,62,13
-8,63,13
-8,62,13
-8,62,13
-8,61,13
-9,62,13
-9,62,14
-9,62,14
-9,62,14
-9,61,14
-8,61,13
-8,62,13
-8,62,13
-9,62,13
-8,61,13
-8,62,13
-8,62,13
-8,61,13
-8,61,13
-9,62,14
-9,62,14
-10,62,14
-9,62,14
-8,63,13
-8,62,13
-8,61,13
-8,61,12
-9,61,13
-9,62,14
-10,63,14
-10,62,14
-10,62,14
-9,62,14
-9,62,13
-8,62,13
-8,62,12
-7,62,12
-7,62,12
-8,63,13
-8,62,13
-8,62,13
-9,61,13
-9,61,13
-9,62,13
-9,62,13
-9,62,13
-9,61,13
-9,62,13
-9,62,13
-9,62,13
-9,62,13
-9,62,13
-9,63,12
-9,62,12
-8,62,12
-7,62,12
-8,62,12
-8,62,12
-8,62,12
-8,62,12
-8,62,13
-8,61,13
-8,62,13
-8,62,13
-9,64,12
-9,64,12
-8,61,11
-7,61,12
-7,61,12
-8,62,11
-9,63,12
-9,62,12
-10,61,13
-9,61,13
-9,61,14
-10,62,13
-10,62,13
-9,62,12
-8,62,12
-8,62,12
-9,62,12
-9,62,12
-9,62,12
-9,62,12
-9,62,12
-9,62,13
-9,63,13
-9,62,13
-8,62,13
-8,62,13
-8,62,13
-8,62,12
-8,62,13
-9,62,13
-9,62,13
-9,62,13
-9,61,14
-9,61,14
-9,62,14
-10,62,14
-9,62,13
-9,62,13
-8,62,12
-8,63,12
-8,62,12
-7,62,12
-7,62,12
-8,62,12
-9,62,12
-9,62,13
-9,62,13
-10,62,13
-10,62,13
-10,62,13
-9,63,13
-9,63,13
-8,62,12
-8,62,12
-8,62,12
-8,62,12
-8,62,12
-8,62,12
-9,62,12
-10,62,12
-10,62,12
-10,62,12
-9,62,13
-8,62,13
-8,63,12
-8,62,12
-8,63,12
-7,62,12
-8,61,12
-8,61,12
-9,62,13
-10,62,13
-10,63,13
-10,62,13
-10,61,12
-9,62,12
-9,62,12
-8,62,12
-8,63,12
-7,63,12
-7,62,12
-7,62,12
-7,62,12
-8,63,12
-8,62,12
-9,62,12
-9,62,13
-9,62,12
-9,62,12
-9,62,12
-9,62,12
-8,62,12
-8,62,13
-8,62,12
-9,62,12
-8,62,12
-9,62,12
-8,62,12
-9,62,12
-9,62,12
-9,63,12
-8,62,12
-8,62,12
-9,62,12
-9,62,12
-9,62,12
-9,62,13
-9,63,13
-10,62,13
-9,62,13
-8,62,13
-8,63,12
-8,62,12
-8,62,12
-8,62,12
-9,62,12
-10,61,12
-10,62,12
-10,62,12
-10,62,12
-9,62,13
-8,62,13
-8,62,13
-8,62,13
-7,63,13
-8,63,13
-8,62,12
-9,62,12
-9,61,12
-10,62,12
-10,62,12
-9,62,12
-9,61,13
-9,62,13
-9,62,14
-9,63,14
-8,62,14
-8,62,13
-8,62,13
-8,62,12
-9,62,12
-8,62,12
-8,62,13
-8,62,12
-8,62,13
-9,62,13
-9,62,13
-9,62,13
-9,62,13
-9,62,13
-9,62,13
-9,62,12
-8,62,12
-8,62,12
-8,62,13
-8,62,13
-8,62,12
-8,62,12
-9,62,13
-8,62,13
-9,62,13
-9,62,13
-9,62,13
-9,62,12
-8,62,13
-8,62,12
-8,62,12
-8,62,12
-9,62,13
-9,62,13
-9,62,13
-9,62,13
-9,62,13
-8,62,12
-8,62,12
-8,62,12
-8,62,12
-8,62,12
-8,62,12
-8,62,12
-8,62,13
-9,62,13
-9,62,13
-9,62,13
-9,62,12
-9,62,13
-8,62,13
-8,62,12
-8,62,13
-8,62,13
-9,62,12
-9,62,13
-9,62,13
-9,62,13
-9,62,13
-9,62,13
-9,62,13
-8,62,13
-8,62,13
-8,62,13
-8,62,12
-8,62,13
-8,62,12
-8,62,12
-8,62,13
-8,62,13
-8,62,12
-8,62,13
-9,62,12
-8,62,13
-8,62,12
-8,62,12
-8,62,13
-8,62,13
-8,62,13
-8,62,13
-8,62,13
-8,62,12
-8,62,13
-8,62,13
-9,62,13
-8,62,13
-9,62,12
-8,62,12
-8,62,13
-8,62,13
-8,62,13
-8,62,13
-8,62,13
-8,62,12
-9,62,12
-8,62,12
-8,62,12
-8,62,12
-8,63,13
-8,62,13
-8,62,13
-8,62,13
-8,62,12
-8,62,13
-8,62,13
-8,62,12
-8,62,13
-8,62,13
-8,62,13
-8,62,13
-8,62,13
-8,62,13
-8,62,13
-8,62,12
-8,62,13
-8,62,12
-8,62,12
-8,62,13
-8,62,13
-8,62,13
-8,62,13
-8,62,13
-8,62,13
-8,63,13
-8,62,13
-8,62,13
-8,62,13
-8,62,13
-8,62,13
-8,62,13
-9,62,13
-8,62,13
-8,62,14
-8,62,14
-8,62,14
-8,62,13
-8,62,13
-8,62,13
-7,62,12
-8,62,13
-8,62,13
-8,62,13
-8,62,13
-8,62,13
-9,62,14
-9,62,14
-9,62,14
-8,62,14
-8,62,13
-8,62,13
-8,62,13
-8,62,12
-7,62,13
-8,62,12
-8,62,13
-8,62,13
-8,62,13
-8,62,14
-9,62,14
-9,62,14
-9,62,13
-8,62,13
-8,62,13
-8,62,13
-8,62,12
-8,62,13
-8,62,12
-8,62,13
-8,62,13
-8,62,13
-8,62,13
-8,62,13
-8,62,13
-8,62,13
-8,62,13
-8,62,13
-9,62,12
-8,62,13
-8,62,13
-8,62,13
-8,62,13
-9,62,13
-9,62,13
-9,62,13
-8,62,12
-8,62,12
-8,62,12
-8,62,12
-8,62,13
-8,62,13
-8,62,13
-8,62,13
-9,62,13
-9,62,13
-9,62,13
-9,62,13
-8,62,12
-8,62,13
-8,62,12
-8,62,12
-7,62,12
-8,62,12
-8,62,12
-8,62,13
-9,62,13
-8,62,13
-9,62,13
-9,62,13
-8,62,13
-8,62,13
-8,62,13
-8,62,12
-8,62,12
-8,62,12
-8,62,12
-8,62,12
-8,62,13
-8,62,13
-8,62,13
-9,62,13
-9,62,13
-9,62,13
-9,62,13
-9,62,12
-9,62,13
-8,62,13
-8,62,13
-8,62,13
-8,62,13
-9,62,13
-9,62,12
-9,62,12
-9,62,13
-8,62,13
-8,62,12
-8,63,13
-8,62,12
-8,62,12
-8,62,13
-8,62,13
-9,62,13
-9,62,12
-9,62,13
-9,62,13
-9,62,13
-9,62,13
-8,62,13
-9,62,13
-8,62,13
-8,62,13
-8,62,13
-8,62,12
-8,62,12
-8,62,12
-8,62,12
-9,62,12
-8,62,13
-9,62,13
-9,62,13
-8,62,13
-9,62,13
-9,62,13
-9,62,12
-8,62,12
-8,62,13
-8,62,12
-8,61,13
-8,62,13
-9,62,13
-9,62,13
-9,62,13
-9,61,13
-8,62,12
-9,62,12
-8,62,12
-8,62,12
-8,62,13
-8,62,12
-8,62,12
-8,62,12
-8,62,12
-8,62,12
-9,63,12
-9,62,12
-9,62,12
-9,62,13
-9,62,13
-9,62,12
-9,62,13
-10,62,13
-10,62,13
-9,62,13
-9,62,13
-9,62,13
-8,62,12
-8,62,12
-8,62,12
-8,62,12
-8,62,12
-9,62,12
-9,62,12
-9,62,13
-9,62,13
-9,62,13
-9,62,13
-9,62,13
-9,62,13
-9,62,13
-9,62,13
-8,62,12
-9,62,12
-8,62,12
-8,62,12
-9,62,12
-9,62,12
-9,62,12
-9,63,13
-8,63,13
-8,62,13
-8,62,13
-9,62,12
-9,62,12
-9,62,12
-9,62,12
-9,62,12
-9,62,12
-8,62,12
-8,62,12
-8,62,13
-8,62,12
-8,62,13
-8,62,13
-9,62,12
-9,62,12
-9,62,12
-8,62,12
-8,62,13
-8,62,13
-8,62,13
-8,62,13
-8,62,12
-9,62,12
-9,62,12
-9,62,12
-8,62,12
-8,62,13
-8,62,13
-9,62,13
-9,62,13
-9,62,12
-9,62,13
-9,63,13
-9,63,12
-9,62,12
-8,62,12
-8,62,12
-8,62,12
-8,62,12
-9,62,12
-8,62,12
-9,62,12
-9,62,12
-9,62,12
-9,62,12
-9,62,13
-9,62,13
-9,62,13
-9,62,13
-9,62,13
-9,62,13
-9,62,13
-9,62,12
-8,62,12
-8,62,12
-8,62,12
-8,62,12
-8,62,12
-8,62,12
-8,62,12
-8,62,12
-8,62,12
-8,62,12
-8,62,12
-8,62,12
-9,62,12
-8,62,12
-8,62,12
-8,62,12
-9,62,12
-9,62,12
-8,62,12
-8,62,12
-8,62,12
-8,62,12
-8,62,12
-8,62,13
-8,62,13
-9,62,13
-9,62,12
-9,63,13
-9,62,13
-8,62,12
-8,62,12
-8,62,12
-8,62,12
-8,62,12
-8,62,11
-8,62,11
-8,62,11
-8,62,11
-8,63,12
-7,63,12
-8,62,12
-8,62,13
-8,62,13
-9,62,13
-9,62,12
-9,62,12
-9,62,12
-9,62,12
-8,62,12
-7,62,12
-7,62,12
-7,62,12
-8,62,11
-8,63,11
-8,62,12
-8,62,12
-9,62,12
-8,62,12
-8,62,12
-8,63,12
-7,62,12
-8,62,12
-8,62,12
-8,62,12
-9,62,12
-9,63,12
-9,62,11
-8,62,11
-8,63,11
-8,62,12
-7,62,12
-7,62,12
-7,62,12
-8,62,11
-8,63,11
-8,63,11
-8,62,11
-8,62,12
-8,62,12
-9,63,12
-8,62,12
-9,63,12
-8,62,12
-8,63,12
-8,63,12
-8,62,11
-8,62,11
-8,62,11
-8,62,11
-9,62,11
-8,62,12
-9,62,12
-9,62,12
-9,62,12
-9,62,12
-8,62,12
-8,62,12
-8,62,11
-8,62,11
-8,62,11
-8,62,11
-8,62,11
-8,62,11
-9,63,12
-8,62,12
-8,62,12
-9,62,12
-8,63,12
-9,62,11
-8,63,12
-8,62,12
-8,62,12
-8,62,11
-8,62,11
-9,62,11
-9,62,11
-9,62,11
-9,62,12
-8,62,12
-8,62,12
-8,62,12
-8,63,12
-9,62,12
-9,63,12
-9,62,12
-9,62,12
-9,62,12
-9,62,12
-9,62,12
-9,62,12
-9,62,12
-8,62,12
-9,62,12
-9,62,12
-9,62,12
-9,62,12
-9,62,12
-9,62,12
-9,62,12
-9,62,12
-9,62,12
-9,62,12
-9,62,12
-9,62,12
-9,62,12
-9,62,12
-9,62,13
-9,62,13
-9,62,13
-9,62,13
-9,62,13
-9,62,13
-8,62,13
-9,62,12
-9,62,13
-8,62,13
-9,62,13
-9,62,13
-10,62,13
-9,62,13
-9,62,13
-9,62,13
-9,61,13
-9,61,13
-9,62,12
-9,62,13
-9,62,13
-9,62,13
-9,61,13
-9,62,13
-9,62,13
-10,62,14
-10,62,13
-10,62,14
-9,62,13
-9,62,13
-9,61,13
-9,61,12
-8,62,12
-8,62,13
-8,62,13
-9,62,13
-10,61,14
-9,62,14
-10,62,14
-10,62,14
-10,62,13
-9,62,13
-8,62,13
-8,62,12
-8,62,13
-8,62,13
-9,62,13
-9,62,13
-9,62,13
-10,61,13
-10,62,13
-10,62,13
-10,62,13
-9,62,13
-9,62,13
-8,62,13
-8,62,13
-8,62,13
-9,62,13
-9,61,14
-9,62,14
-9,62,14
-9,62,13
-9,62,13
-9,62,13
-9,61,13
-8,62,13
-8,62,14
-8,62,14
-9,62,14
-9,62,13
-9,62,13
-9,62,13
-9,62,13
-8,63,13
-8,62,13
-8,61,13
-8,61,13
-9,62,13
-10,62,13
-10,61,13
-10,61,13
-10,62,12
-10,62,12
-10,62,13
-10,62,12
-10,62,13
-10,61,13
-10,61,12
-10,62,13
-10,62,13
-10,62,13
-9,62,13
-10,62,12
-10,62,12
-10,63,12
-10,62,12
-10,62,12
-10,61,12
-10,62,12
-10,62,12
-11,62,12
-11,62,12
-11,61,11
-11,62,11
-11,62,11
-11,62,11
-10,62,11
-10,62,12
-10,62,11
-10,62,11
-10,62,11
-10,62,11
-11,63,11
-11,62,11
-11,62,11
-10,62,12
-10,62,12
-11,62,12
-11,62,12
-11,62,12
-11,62,12
-11,62,12
-11,62,11
-11,62,11
-11,62,11
-11,62,11
-11,62,11
-11,62,11
-11,62,11
-11,62,11
-10,62,11
-10,62,11
-10,62,11
-11,62,11
-11,62,11
-10,62,11
-11,62,11
-11,61,11
-11,62,10
-11,62,11
-11,63,11
-11,63,11
-11,63,11
-10,62,12
-10,62,12
-9,62,11
-10,62,11
-10,62,11
-10,62,11
-11,62,10
-11,62,10
-11,62,10
-9,62,11
-9,63,11
-10,63,10
-10,62,11
-10,63,11
-10,63,11
-10,62,11
-11,62,11
-11,62,10
-11,62,10
-10,62,10
-10,62,11
-10,63,10
-9,62,11
-9,62,11
-10,63,11
-10,62,11
-9,62,11
-10,62,11
-10,62,11
-10,62,11
-10,62,11
-10,62,11
-10,62,11
-10,62,11
-10,62,11
-10,62,11
-10,62,11
-10,62,11
-10,62,11
-10,63,11
-9,62,11
-10,62,11
-10,62,11
-10,62,11
-10,62,10
-10,62,11
-11,62,11
-11,63,11
-11,62,11
-11,62,11
-11,62,11
-10,63,12
-10,63,11
-10,63,11
-10,60,10
-10,61,11
-10,62,11
-10,64,11
-11,63,12
-10,63,12
-10,62,12
-10,61,12
-10,62,11
-10,62,12
-9,62,12
-8,63,12
-8,62,11
-9,61,11
-9,61,10
-9,62,11
-9,62,11
-10,62,12
-10,62,13
-10,62,13
-10,62,12
-10,61,12
-10,62,11
-10,62,11
-10,62,12
-10,62,11
-10,62,12
-10,64,11
-10,64,12
-9,61,11
-9,61,11
-9,62,11
-10,63,11
-9,62,12
-9,61,12
-9,61,12
-10,62,11
-10,63,11
-11,62,11
-10,62,11
-10,62,11
-10,62,11
-10,63,12
-9,63,12
-9,61,12
-9,60,12
-9,62,12
-10,63,12
-10,63,11
-10,62,11
-10,61,11
-10,62,11
-10,62,11
-10,62,11
-9,62,12
-9,63,12
-9,62,12
-10,60,12
-10,61,11
-11,64,12
-9,63,12
-9,61,12
-10,61,12
-10,62,11
-10,62,11
-10,63,12
-10,63,12
-9,61,12
-9,61,11
-10,62,11
-10,64,11
-10,62,12
-9,62,11
-10,61,11
-9,62,11
-9,62,11
-9,63,11
-9,62,12
-9,62,11
-10,63,12
-10,62,11
-10,62,11
-11,61,11
-11,62,12
-11,63,11
-11,63,11
-10,62,11
-10,62,11
-10,62,11
-9,62,11
-10,62,12
-10,63,12
-9,62,12
-10,62,12
-10,62,12
-10,62,12
-10,61,12
-10,62,12
-10,62,11
-11,63,11
-10,62,11
-10,62,11
-10,62,11
-10,62,12
-9,62,11
-8,62,11
-9,62,11
-9,63,12
-9,62,12
-9,63,11
-9,62,11
-9,61,11
-9,62,12
-9,62,12
-10,63,12
-10,63,11
-10,62,11
-10,62,10
-10,61,11
-9,61,11
-9,61,11
-9,62,10
-10,63,10
-10,63,11
-8,64,12
-8,63,12
-7,62,13
-7,61,12
-8,63,11
-9,63,11
-8,63,11
-8,62,11
-10,62,11
-9,63,12
-9,63,12
-9,63,11
-9,62,10
-9,62,10
-9,61,10
-10,61,11
-10,63,11
-10,63,12
-10,63,11
-10,62,11
-10,61,11
-9,62,11
-9,62,12
-9,63,12
-8,63,13
-8,63,13
-8,61,13
-8,62,12
-9,63,12
-10,63,11
-11,62,12
-10,62,12
-9,62,12
-9,61,12
-10,61,11
-10,63,11
-10,63,11
-9,62,11
-9,61,11
-9,62,11
-9,62,11
-9,62,11
-8,63,12
-8,62,11
-8,61,12
-9,62,12
-10,62,12
-9,63,12
-10,63,11
-10,62,12
-8,62,12
-9,64,11
-9,62,11
-8,62,11
-8,62,10
-9,62,10
-8,62,10
-9,62,10
-9,63,10
-10,63,10
-9,63,10
-10,63,10
-10,62,10
-10,62,11
-10,61,11
-11,62,11
-11,63,12
-11,62,12
-11,63,12
-10,63,12
-9,63,11
-9,62,10
-8,62,10
-8,63,9
-8,63,10
-8,63,10
-8,63,11
-6,63,10
-6,61,10
-10,61,8
-10,60,8
-10,61,8
-10,63,10
-10,64,12
-10,64,12
-8,63,14
-9,63,13
-9,62,12
-10,62,11
-10,62,10
-10,62,10
-10,62,9
-8,63,10
-8,62,10
-10,62,10
-9,62,10
-9,62,10
-9,62,10
-10,62,10
-9,62,11
-9,62,11
-9,62,12
-9,62,11
-10,62,11
-10,62,11
-10,63,11
-10,63,11
-10,62,10
-10,62,10
-10,62,11
-10,62,11
-10,63,11
-10,63,11
-9,62,12
-9,62,12
-9,63,12
-9,63,12
-10,62,11
-10,62,11
-10,63,11
-10,63,10
-10,62,10
-10,62,10
-10,62,10
-10,62,10
-10,62,10
-10,62,11
-9,63,11
-9,63,11
-8,63,11
-9,62,11
-9,62,11
-9,62,11
-8,62,11
-9,62,11
-9,62,11
-10,62,11
-10,63,11
-10,63,11
-10,63,11
-10,62,11
-9,62,11
-9,62,11
-9,62,11
-8,62,11
-8,62,11
-9,62,11
-10,63,10
-10,63,10
-9,62,11
-9,62,11
-9,62,11
-10,62,11
-10,62,11
-10,62,10
-10,62,10
-10,62,11
-9,62,11
-9,62,11
-9,63,11
-9,63,11
-9,62,11
-9,62,12
-10,62,12
-10,62,12
-10,62,12
-10,63,12
-10,63,12
-10,63,12
-10,62,12
-10,62,11
-10,62,11
-9,62,10
-9,62,11
-9,62,10
-9,62,10
-9,62,11
-9,62,11
-10,63,11
-10,62,11
-10,62,11
-10,62,12
-10,62,12
-10,62,12
-10,62,12
-10,62,11
-10,63,11
-10,63,11
-9,62,11
-9,62,11
-9,62,11
-9,62,11
-9,62,12
-9,62,11
-9,62,12
-9,62,12
-9,62,11
-10,62,11
-10,62,11
-10,62,11
-9,62,11
-9,62,11
-9,62,11
-9,62,11
-10,62,12
-10,62,12
-10,62,12
-10,62,12
-11,62,12
-12,62,12
-12,62,12
-11,62,12
-10,62,12
-9,62,11
-8,62,11
-8,62,11
-8,62,11
-8,62,11
-9,62,11
-10,62,11
-10,62,11
-10,62,11
-11,62,11
-11,62,12
-10,62,12
-10,62,12
-10,62,12
-10,62,11
-9,62,11
-9,62,12
-9,62,11
-9,62,11
-9,62,11
-10,62,11
-10,62,11
-10,62,11
-10,62,11
-10,62,11
-10,62,11
-10,62,11
-10,62,12
-10,62,11
-9,62,11
-9,62,11
-9,62,11
-9,62,11
-9,62,11
-10,62,11
-9,62,11
-10,62,11
-10,63,12
-10,63,12
-10,62,11
-10,62,12
-9,62,11
-9,62,12
-9,62,11
-9,62,11
-9,62,11
-10,62,11
-10,62,11
-10,62,11
-10,62,11
-10,62,11
-10,62,12
-9,62,12
-9,62,12
-10,62,12
-10,62,12
-10,62,12
-10,62,12
-10,62,12
-10,62,11
-10,62,11
-10,62,11
-9,62,11
-9,62,11
-9,62,11
-9,62,12
-9,62,12
-10,62,12
-9,62,12
-10,62,12
-10,62,12
-10,62,12
-10,62,11
-10,62,11
-10,62,11
-10,62,12
-10,62,11
-10,62,12
-10,62,11
-10,62,12
-10,62,12
-10,62,12
-10,62,12
-10,62,11
-10,62,11
-10,62,11
-9,62,11
-10,62,11
-9,62,11
-10,62,11
-10,62,11
-10,62,11
-10,63,11
-10,62,12
-10,62,12
-9,62,12
-10,62,12
-10,63,12
-10,62,12
-10,62,11
-10,62,11
-10,62,11
-10,62,11
-10,62,11
-10,62,11
-10,62,11
-10,62,12
-10,62,12
-10,62,12
-10,62,12
-10,62,11
-10,62,11
-10,62,11
-10,62,11
-10,62,11
-10,62,11
-10,62,11
-10,62,11
-10,62,11
-10,62,11
-10,62,11
-10,62,11
-10,62,11
-10,63,11
-10,62,11
-10,62,11
-10,62,11
-10,63,11
-10,63,11
-10,62,11
-10,62,11
-10,63,11
-10,62,11
-10,62,11
-10,62,11
-10,63,11
-10,63,11
-9,62,12
-10,61,11
-10,62,11
-11,62,11
-10,64,11
-9,63,11
-9,61,10
-9,61,10
-10,62,11
-10,62,11
-11,61,11
-12,62,12
-11,63,12
-11,62,11
-11,61,12
-8,60,11
-8,60,10
-8,61,9
-8,63,10
-8,61,10
-8,61,10
-8,61,10
-8,64,11
-8,65,12
-9,65,13
-9,64,14
-8,64,14
-8,63,15
-9,63,15
-9,63,15
-8,63,14
-7,62,13
-7,62,13
-7,62,12
-7,62,11
-6,62,11
-7,62,10
-7,62,9
-8,62,9
-8,61,10
-8,62,12
-7,62,12
-7,61,13
-8,62,13
-9,62,13
-9,62,13
-10,62,13
-10,62,13
-9,62,14
-9,62,13
-9,62,13
-10,62,13
-9,63,14
-8,63,15
-7,62,14
-8,62,13
-7,63,13
-7,63,11
-8,64,10
-7,64,11
-5,64,13
-6,63,12
-7,61,12
-6,59,12
-6,58,12
-7,58,11
-8,58,12
-8,59,12
-8,66,12
-8,73,14
-9,69,14
-11,60,14
-11,56,12
-10,57,12
-8,62,11
-10,66,9
-11,65,9
-11,63,9
-10,62,10
-9,63,10
-8,64,11
-5,64,11
-4,64,11
-8,62,12
-10,62,12
-11,63,13
-12,62,13
-13,59,13
-13,59,12
-14,59,13
-13,61,13
-13,62,13
-13,64,12
-12,64,12
-12,64,11
-10,63,11
-7,62,11
-7,61,11
-6,58,11
-8,60,10
-8,62,10
-8,66,12
-8,63,12
-9,61,12
-11,60,12
-12,61,11
-12,61,11
-12,62,12
-12,62,13
-11,63,14
-10,63,14
-10,63,14
-10,62,13
-9,62,12
-9,62,11
-10,62,11
-8,62,11
-8,63,11
-9,64,10
-9,62,11
-8,61,11
-9,61,11
-8,61,11
-9,62,11
-9,63,11
-10,62,11
-10,63,11
-10,62,11
-9,62,11
-9,63,11
-9,63,11
-8,62,11
-8,62,11
-9,63,11
-9,62,11
-9,63,11
-9,63,11
-10,62,11
-10,62,11
-10,62,11
-10,62,11
-10,62,11
-10,63,11
-10,62,11
-10,62,11
-10,62,10
-10,63,11
-10,63,11
-8,63,11
-9,62,11
-8,62,11
-8,62,11
-9,63,11
-10,62,11
-10,62,10
-10,62,10
-10,62,10
-10,62,11
-10,62,11
-10,62,11
-10,63,11
-9,62,11
-9,62,11
-9,62,11
-9,62,11
-9,62,11
-9,62,11
-9,62,10
-9,62,10
-9,62,11
-10,63,11
-10,63,11
-10,62,11
-10,62,11
-10,62,12
-10,62,11
-9,62,12
-9,63,12
-10,63,12
-10,63,12
-10,62,11
-10,62,11
-9,62,11
-9,63,10
-9,63,11
-8,63,11
-8,62,10
-8,62,10
-8,62,10
-8,62,10
-8,62,11
-9,62,11
-9,63,11
-10,63,11
-10,63,11
-10,62,12
-10,63,11
-10,62,12
-9,62,11
-9,62,11
-9,62,11
-8,62,11
-8,63,11
-8,63,11
-8,62,11
-8,62,11
-8,62,10
-9,62,11
-9,62,11
-9,62,11
-9,62,11
-9,62,11
-9,62,11
-10,63,11
-9,62,11
-9,62,11
-9,62,11
-8,63,12
-8,63,11
-8,63,11
-9,62,10
-8,62,11
-8,62,10
-9,63,10
-8,62,11
-8,62,11
-9,62,11
-9,62,11
-9,62,11
-8,63,11
-8,62,11
-9,62,11
-9,62,11
-9,63,11
-9,63,11
-9,62,11
-9,62,11
-9,62,11
-8,62,11
-9,62,11
-9,62,11
-9,62,11
-9,62,11
-9,62,11
-9,63,11
-10,63,11
-9,62,11
-9,63,11
-9,63,11
-9,62,11
-8,62,11
-9,62,11
-9,62,12
-9,63,11
-9,63,11
-8,63,11
-8,62,11
-9,62,10
-9,62,10
-9,62,10
-9,62,10
-9,62,10
-9,62,10
-9,62,10
-9,62,11
-9,63,11
-10,63,11
-9,62,11
-9,62,11
-9,63,11
-10,62,11
-9,62,11
-10,62,11
-10,63,11
-10,63,11
-9,63,11
-10,62,11
-10,62,10
-9,63,10
-9,62,10
-9,62,10
-9,62,10
-9,62,11
-9,62,11
-9,62,11
-9,63,11
-10,63,11
-10,62,11
-10,62,11
-10,63,11
-10,63,11
-9,62,10
-9,62,10
-9,62,11
-9,62,10
-10,62,10
-9,62,11
-9,62,11
-10,62,11
-10,62,11
-9,63,11
-10,63,11
-10,63,11
-10,62,11
-10,62,11
-9,62,11
-9,62,11
-10,61,10
-11,62,11
-10,62,11
-10,63,12
-10,62,11
-10,62,11
-10,62,10
-9,62,11
-10,62,10
-10,62,11
-10,62,11
-10,63,10
-10,63,10
-10,63,11
-10,63,11
-9,62,11
-10,62,11
-10,62,11
-11,63,11
-11,62,11
-11,62,11
-11,62,11
-10,62,10
-10,62,10
-10,62,10
-10,62,10
-10,63,10
-10,63,10
-10,62,11
-9,62,11
-9,62,11
-9,63,11
-9,62,10
-9,62,10
-10,62,10
-10,62,11
-10,62,11
-10,62,11
-10,62,11
-10,62,11
-10,62,11
-10,62,10
-10,61,10
-10,62,10
-10,63,10
-10,62,11
-10,62,11
-9,62,11
-10,62,11
-10,62,11
-10,63,11
-10,63,11
-10,63,11
-10,62,11
-10,62,10
-10,62,10
-10,62,10
-10,63,11
-9,63,11
-9,62,10
-9,62,10
-9,62,10
-10,63,11
-9,62,11
-9,62,11
-10,62,11
-10,63,11
-10,62,11
-9,62,11
-10,63,11
-10,62,11
-9,62,11
-9,62,11
-9,62,11
-10,62,10
-10,62,10
-9,62,10
-9,62,10
-9,63,10
-9,62,10
-9,62,10
-9,62,11
-9,62,11
-9,62,11
-9,62,11
-9,63,11
-9,63,11
-10,63,11
-9,63,11
-9,62,11
-9,62,10
-10,62,10
-9,62,10
-10,62,10
-10,62,10
-10,62,10
-9,63,10
-9,63,10
-9,63,10
-9,63,10
-9,63,10
-9,62,10
-9,62,10
-9,63,10
-10,63,10
-10,63,10
-10,63,10
-10,62,10
-10,62,10
-10,62,9
-10,62,9
-10,62,10
-10,62,10
-9,62,10
-10,62,10
-9,62,10
-9,62,10
-9,63,9
-10,63,10
-9,62,10
-9,62,9
-9,63,10
-9,62,10
-9,63,9
-9,63,10
-9,63,10
-9,63,10
-9,62,10
-9,62,10
-9,62,10
-10,63,10
-10,63,9
-10,62,10
-10,62,9
-10,62,9
-11,62,9
-10,62,9
-10,62,9
-10,62,10
-10,63,10
-10,63,10
-10,63,10
-9,63,10
-9,62,10
-9,62,10
-10,62,10
-10,63,11
-10,63,10
-10,62,11
-9,62,11
-10,63,11
-10,63,11
-10,62,11
-11,62,11
-10,62,10
-11,62,10
-11,62,10
-10,63,10
-10,63,10
-9,62,10
-9,61,10
-9,62,10
-9,63,10
-9,63,11
-9,63,11
-8,62,11
-9,62,10
-9,62,10
-10,63,10
-10,63,11
-10,63,11
-10,62,11
-9,62,11
-9,62,11
-10,62,11
-10,63,11
-10,62,10
-9,62,11
-10,63,10
-10,63,10
-9,62,10
-10,62,10
-9,62,10
-9,63,10
-9,63,10
-9,63,9
-9,63,9
-9,62,9
-9,62,10
-9,62,10
-10,62,10
-10,62,10
-9,63,11
-10,62,10
-10,62,10
-10,62,10
-10,63,10
-10,64,10
-10,63,10
-10,61,10
-9,61,10
-9,62,10
-10,63,10
-10,63,10
-10,63,10
-9,62,10
-10,62,10
-9,62,10
-9,62,9
-9,63,9
-10,63,9
-10,63,10
-10,63,10
-9,62,10
-9,62,9
-9,62,10
-10,62,10
-9,63,10
-9,63,10
-9,62,10
-9,63,9
-10,63,9
-10,63,10
-10,63,10
-10,63,11
-9,63,10
-9,63,10
-9,62,10
-9,61,10
-9,62,10
-9,62,9
-10,62,9
-10,63,10
-9,62,10
-9,62,10
-10,62,10
-9,62,10
-10,63,9
-11,63,10
-10,62,10
-10,63,11
-9,62,10
-10,62,10
-10,62,9
-10,63,9
-10,63,9
-10,62,10
-10,62,10
-9,62,10
-10,62,10
-10,62,10
-10,63,10
-10,62,10
-9,62,10
-10,63,10
-9,62,10
-10,62,10
-10,62,10
-10,62,9
-10,62,10
-10,63,10
-11,63,10
-10,63,10
-9,62,10
-9,63,11
-8,62,11
-9,61,10
-10,61,10
-10,62,10
-11,63,10
-10,62,11
-10,63,10
-11,63,11
-10,63,11
-10,63,10
-10,62,10
-9,62,10
-9,62,9
-9,62,10
-10,62,10
-10,62,9
-10,62,10
-10,62,10
-10,63,10
-10,63,10
-10,63,10
-10,62,10
-10,62,9
-10,61,9
-10,62,10
-10,62,10
-10,63,9
-10,63,9
-10,63,9
-10,63,9
-10,63,9
-10,62,9
-10,62,9
-10,62,9
-10,63,9
-10,63,10
-10,63,10
-10,62,10
-10,63,10
-10,63,10
-11,62,10
-10,62,10
-11,63,10
-11,63,10
-10,63,10
-10,63,10
-10,63,10
-10,63,9
-10,63,9
-9,62,9
-10,63,9
-10,63,9
-10,63,9
-10,62,10
-10,63,10
-10,63,10
-10,63,10
-10,63,10
-10,62,10
-10,61,10
-10,62,11
-10,62,10
-10,63,11
-10,62,10
-10,62,9
-10,62,9
-11,62,9
-10,63,9
-10,63,10
-9,62,11
-9,63,10
-9,62,10
-8,63,10
-8,63,10
-8,63,10
-9,62,9
-9,62,9
-9,63,9
-10,63,9
-10,63,9
-9,62,10
-10,62,10
-10,62,10
-10,63,10
-10,63,10
-9,63,10
-9,63,10
-8,63,10
-9,63,10
-8,63,10
-8,62,10
-8,62,10
-9,62,9
-9,62,9
-9,62,9
-9,63,10
-9,63,10
-10,63,10
-9,62,10
-9,63,10
-9,63,10
-9,62,10
-8,63,10
-8,63,10
-9,63,9
-9,62,9
-9,62,9
-9,63,9
-9,63,9
-9,63,9
-9,63,9
-9,63,9
-9,63,9
-9,62,9
-9,63,10
-9,62,10
-10,63,10
-10,62,10
-10,62,11
-10,63,10
-10,63,10
-10,62,10
-9,63,10
-9,63,10
-9,62,9
-9,62,9
-9,62,9
-9,62,9
-9,63,10
-9,63,10
-9,63,10
-9,64,10
-10,63,10
-10,62,10
-9,62,11
-9,62,11
-8,62,11
-9,63,10
-10,63,9
-10,62,9
-9,62,9
-9,62,9
-9,63,9
-9,62,9
-9,62,9
-9,63,10
-9,63,10
-9,63,10
-9,63,10
-10,63,9
-9,63,10
-9,62,9
-9,63,9
-9,63,9
-9,62,8
-10,62,9
-9,62,9
-9,63,9
-10,63,9
-9,63,9
-9,63,10
-10,63,10
-9,63,11
-9,63,10
-9,63,10
-9,62,10
-9,63,9
-9,63,8
-9,63,8
-8,63,8
-9,62,9
-8,62,9
-9,63,9
-9,63,9
-10,63,9
-10,62,10
-10,62,9
-10,63,10
-10,63,10
-9,63,10
-9,63,10
-9,63,9
-9,62,9
-9,62,9
-9,63,9
-9,63,10
-9,62,9
-10,63,10
-9,63,10
-9,63,10
-10,63,10
-9,63,10
-9,63,10
-9,62,10
-9,62,9
-10,63,9
-10,62,10
-10,62,10
-10,62,10
-9,63,9
-10,63,9
-9,63,10
-9,62,10
-9,62,10
-8,62,10
-9,63,10
-9,63,10
-9,63,10
-9,62,10
-10,63,10
-9,63,10
-10,63,10
-10,63,10
-9,62,9
-10,62,10
-10,63,10
-10,63,10
-10,63,10
-10,63,9
-10,62,10
-10,62,10
-10,63,10
-10,62,10
-10,62,10
-10,63,10
-9,63,10
-9,62,9
-9,62,10
-9,62,10
-9,62,9
-9,62,9
-10,62,9
-10,63,10
-10,63,10
-10,63,10
-10,62,10
-9,62,10
-10,62,10
-9,63,10
-10,63,10
-10,63,9
-10,63,10
-10,63,9
-10,62,10
-10,62,10
-9,63,10
-10,63,10
-10,63,10
-10,63,10
-10,62,10
-10,62,9
-10,62,10
-10,62,10
-10,62,10
-10,63,10
-10,62,10
-10,62,10
-10,62,10
-10,63,10
-9,63,10
-9,62,10
-9,62,10
-9,62,10
-9,63,9
-10,63,9
-10,63,10
-9,62,9
-10,63,10
-9,63,10
-10,63,10
-10,62,10
-10,62,10
-10,63,10
-10,62,10
-10,62,10
-10,62,9
-10,63,10
-10,62,10
-10,62,10
-10,63,10
-10,62,9
-10,63,9
-10,63,9
-10,62,9
-10,63,9
-10,62,9
-9,62,9
-9,63,9
-10,62,9
-10,62,9
-10,63,9
-10,63,10
-10,63,10
-10,63,10
-9,63,10
-9,62,10
-9,63,10
-10,63,9
-10,63,9
-10,62,9
-9,62,9
-8,63,9
-9,63,8
-11,63,8
-11,62,7
-10,61,8
-10,61,8
-10,61,9
-10,62,10
-10,63,10
-11,63,10
-11,63,11
-10,63,11
-10,62,11
-9,63,11
-8,63,11
-10,63,10
-10,63,10
-10,63,9
-10,63,9
-10,62,9
-10,62,9
-10,62,9
-10,62,9
-10,62,10
-10,62,10
-10,62,10
-10,62,11
-10,62,11
-10,63,11
-10,62,11
-10,62,10
-10,62,11
-9,62,10
-9,62,10
-9,62,10
-9,63,10
-9,62,10
-9,62,10
-10,62,10
-9,63,11
-10,63,10
-10,62,10
-10,62,10
-10,63,11
-10,63,11
-10,63,11
-9,62,10
-9,62,11
-9,63,10
-9,62,10
-9,62,10
-10,62,9
-9,62,9
-10,62,10
-10,63,10
-10,63,11
-10,63,11
-10,62,11
-10,62,11
-10,62,11
-9,63,11
-9,62,10
-10,62,10
-9,62,9
-9,62,9
-9,62,9
-10,62,9
-10,62,9
-10,63,11
-10,63,11
-10,63,11
-9,62,12
-9,62,11
-10,62,11
-10,62,10
-10,63,10
-10,63,10
-10,62,11
-9,62,11
-9,62,11
-10,62,11
-10,63,11
-10,63,11
-9,62,11
-9,62,11
-9,62,11
-10,63,11
-10,63,11
-9,62,11
-10,62,11
-9,62,11
-9,62,10
-9,62,11
-9,62,11
-9,62,11
-10,63,11
-10,62,11
-9,62,11
-9,62,11
-10,62,11
-9,62,11
-10,62,11
-9,62,11
-9,62,11
-10,62,11
-9,62,10
-10,62,10
-9,62,10
-9,62,11
-9,62,11
-9,63,10
-9,63,10
-9,62,10
-9,62,10
-9,63,11
-9,62,11
-9,62,11
-9,63,11
-9,62,11
-10,62,10
-9,62,11
-10,63,10
-10,63,11
-9,62,10
-9,62,10
-9,62,11
-9,62,11
-9,62,10
-9,63,11
-9,63,10
-9,63,11
-9,63,10
-9,62,11
-9,62,10
-9,62,10
-9,62,10
-9,62,10
-9,62,10
-9,63,10
-9,63,10
-9,62,10
-9,62,10
-9,62,10
-9,63,10
-9,63,10
-9,62,10
-9,62,11
-9,62,11
-10,63,10
-10,63,11
-9,62,10
-10,62,11
-9,62,10
-10,63,10
-10,63,10
-9,62,10
-9,62,10
-9,63,10
-9,63,10
-9,62,9
-9,62,10
-9,63,10
-9,63,10
-9,62,10
-9,62,10
-10,62,10
-10,63,11
-10,63,11
-10,63,11
-10,63,11
-10,62,11
-10,63,10
-9,63,10
-10,63,10
-9,63,10
-9,62,10
-9,62,10
-8,62,10
-9,62,10
-9,62,10
-9,63,10
-9,63,10
-9,62,10
-9,62,10
-10,62,10
-10,62,10
-10,63,10
-10,63,11
-10,63,11
-9,63,11
-9,62,10
-9,62,10
-8,63,9
-9,63,9
-8,62,9
-9,62,9
-9,62,10
-9,62,10
-10,63,10
-10,62,10
-10,63,11
-10,63,11
-10,63,11
-10,62,11
-9,63,10
-9,63,10
-9,63,10
-8,62,9
-8,62,9
-8,62,9
-9,63,10
-9,63,10
-9,63,10
-9,62,11
-10,62,11
-10,62,10
-10,63,11
-10,62,10
-11,63,10
-10,62,10
-10,62,10
-10,62,10
-9,63,10
-9,63,10
-9,63,10
-9,62,10
-9,62,10
-9,62,10
-9,63,10
-10,62,10
-10,62,10
-10,63,10
-9,62,10
-10,62,10
-10,63,10
-9,63,10
-9,63,10
-9,63,10
-9,62,10
-8,63,10
-9,62,10
-9,62,10
-9,63,10
-10,63,10
-10,63,10
-9,62,10
-10,62,10
-9,63,10
-10,63,10
-9,63,10
-9,62,10
-9,62,10
-9,62,10
-8,63,10
-9,63,10
-9,62,10
-9,63,10
-9,62,10
-9,62,10
-10,62,10
-10,62,10
-10,62,10
-10,62,10
-9,63,10
-9,62,10
-9,63,10
-9,62,10
-9,63,10
-9,63,10
-9,63,10
-9,62,10
-9,62,10
-9,62,10
-10,62,10
-10,63,10
-10,63,10
-10,62,10
-9,62,10
-9,62,10
-9,63,10
-9,63,10
-9,62,10
-9,63,10
-9,63,10
-9,63,10
-9,63,10
-9,63,10
-9,62,10
-10,63,10
-10,63,10
-10,63,10
-10,62,10
-9,62,10
-9,63,10
-9,62,10
-9,62,10
-9,63,10
-9,62,10
-9,63,10
-9,63,10
-9,63,10
-9,63,10
-9,63,10
-9,63,10
-9,63,10
-9,62,11
-9,62,10
-10,62,11
-10,62,11
-10,63,11
-10,62,11
-10,63,11
-10,63,10
-10,62,10
-9,62,10
-9,63,10
-8,62,10
-8,63,10
-8,62,10
-8,62,10
-9,63,10
-9,62,10
-9,63,10
-10,63,10
-9,62,10
-9,62,10
-9,63,11
-9,62,10
-9,62,11
-9,62,11
-9,62,11
-9,63,11
-9,63,10
-9,62,11
-9,62,10
-9,62,10
-9,63,10
-9,62,10
-9,62,10
-9,62,10
-9,62,10
-9,63,11
-9,62,10
-9,62,10
-9,63,10
-9,63,10
-9,62,10
-9,62,10
-9,62,10
-9,63,11
-9,62,11
-9,62,11
-8,62,10
-9,63,10
-9,62,10
-8,62,9
-9,62,9
-8,62,10
-8,63,10
-8,63,10
-8,63,10
-9,62,10
-9,63,10
-9,63,10
-9,62,10
-9,62,10
-9,63,10
-9,63,10
-9,63,10
-8,62,10
-8,62,10
-9,62,10
-9,63,10
-8,62,10
-9,62,10
-9,63,10
-8,62,10
-9,62,10
-9,62,10
-9,63,10
-9,63,10
-9,63,10
-8,62,10
-8,62,10
-8,63,10
-9,63,10
-9,63,10
-9,63,10
-8,63,10
-9,62,10
-9,63,10
-9,63,11
-9,62,11
-9,63,10
-9,62,10
-9,62,10
-8,63,9
-8,62,9
-8,62,10
-8,62,10
-8,63,9
-8,63,10
-8,62,10
-8,62,10
-9,62,10
-9,63,11
-10,63,10
-10,63,10
-9,63,11
-9,63,10
-9,63,11
-8,63,10
-9,63,10
-8,62,10
-8,62,9
-8,62,9
-8,63,9
-9,63,9
-9,62,10
-8,62,10
-9,63,10
-9,62,10
-9,63,10
-9,63,10
-9,63,10
-8,63,10
-8,62,10
-8,63,10
-8,63,10
-8,62,10
-8,62,10
-9,63,10
-9,63,10
-9,63,10
-9,62,10
-9,62,10
-9,63,10
-9,63,10
-9,63,10
-9,62,9
-9,62,9
-9,63,10
-9,63,10
-9,63,10
-8,63,10
-8,63,9
-9,63,10
-9,63,10
-9,63,10
-9,63,10
-9,63,10
-9,63,10
-9,62,10
-9,62,9
-9,62,10
-9,62,9
-9,62,9
-9,63,10
-9,63,9
-9,63,10
-8,63,10
-9,62,10
-9,63,10
-9,63,10
-9,63,10
-9,63,10
-9,62,10
-9,62,10
-9,62,10
-9,62,10
-9,63,10
-9,62,10
-9,63,10
-9,63,10
-9,62,10
-9,62,11
-9,62,11
-10,62,10
-10,62,10
-9,62,10
-10,62,10
-10,62,10
-9,62,10
-9,62,10
-9,63,10
-9,63,11
-10,63,11
-9,62,11
-9,63,11
-9,63,11
-9,63,10
-9,63,10
-9,63,10
-9,62,10
-9,62,10
-9,63,10
-9,63,10
-9,63,10
-9,62,10
-9,63,10
-9,62,10
-9,62,10
-9,63,10
-9,62,10
-9,62,10
-9,62,10
-9,63,10
-9,63,10
-9,62,10
-9,62,10
-8,62,10
-9,63,10
-9,63,10
-9,63,10
-10,63,10
-10,62,10
-9,62,10
-9,63,10
-9,63,10
-9,62,10
-9,63,10
-8,62,10
-9,63,10
-8,63,10
-9,62,10
-8,62,10
-9,63,10
-9,62,10
-9,63,10
-9,63,10
-9,63,10
-9,62,10
-9,63,10
-9,63,10
-9,63,10
-9,63,10
-8,63,10
-9,62,10
-9,63,10
-9,63,10
-9,63,10
-9,62,10
-9,63,10
-10,63,10
-9,63,10
-9,63,10
-9,63,10
-9,63,10
-9,63,10
-9,63,10
-9,62,9
-9,63,10
-9,63,10
-9,62,10
-9,62,10
-10,62,10
-10,62,10
-10,62,10
-10,62,10
-10,63,10
-9,62,10
-9,62,10
-9,63,10
-9,62,10
-9,62,10
-9,62,10
-9,63,10
-9,63,10
-9,63,10
-9,62,10
-9,63,10
-9,63,10
-9,62,10
-9,62,10
-9,63,10
-9,63,9
-9,62,10
-9,62,10
-9,62,10
-9,63,10
-9,63,10
-9,63,10
-9,63,10
-9,62,10
-9,62,10
-9,62,10
-9,62,10
-9,62,10
-9,62,10
-9,63,9
-9,63,9
-8,63,9
-9,63,9
-8,62,10
-8,63,10
-9,63,10
-9,62,10
-9,62,10
-9,63,10
-9,62,10
-10,62,9
-9,63,9
-9,63,9
-9,63,10
-9,63,10
-8,63,10
-8,62,10
-8,62,10
-8,63,10
-9,63,10
-9,63,10
-9,62,10
-9,62,10
-9,62,10
-9,63,9
-10,63,9
-9,63,9
-8,62,9
-8,63,10
-8,63,10
-9,63,10
-9,63,10
-9,63,10
-9,62,10
-9,63,10
-8,63,10
-9,63,10
-9,63,10
-9,62,10
-9,62,10
-9,63,10
-8,63,10
-9,63,9
-8,62,10
-8,63,10
-9,63,10
-8,62,10
-8,63,10
-9,63,10
-9,63,10
-9,62,10
-9,63,10
-9,63,10
-8,62,9
-8,62,10
-8,63,10
-9,63,10
-8,62,10
-8,62,10
-8,62,10
-8,63,10
-9,63,10
-9,63,10
-9,62,10
-9,62,10
-9,63,10
-9,63,10
-9,63,10
-9,62,10
-9,63,10
-9,63,10
-9,62,10
-9,62,10
-9,62,10
-9,62,10
-9,63,10
-8,63,9
-9,62,10
-8,63,10
-8,63,10
-9,63,10
-9,63,10
-9,63,10
-9,63,10
-9,62,10
-9,63,10
-9,63,10
-9,63,10
-9,63,10
-9,63,10
-9,63,10
-9,63,10
-9,63,9
-9,63,10
-9,63,10
-9,63,10
-9,63,10
-9,63,10
-9,62,10
-9,63,10
-9,62,10
-9,63,10
-9,62,10
-9,63,9
-9,62,10
-9,62,10
-9,62,10
-9,63,10
-9,63,10
-9,63,10
-9,62,10
-9,62,10
-9,63,10
-9,63,10
-9,62,10
-9,62,10
-9,63,10
-9,63,10
-9,63,10
-9,63,9
-9,63,10
-9,62,9
-9,63,9
-9,63,10
-9,63,10
-9,62,10
-9,63,9
-9,62,10
-9,63,10
-9,63,10
-9,62,10
-9,63,10
-9,63,10
-9,63,10
-9,63,10
-9,62,10
-9,62,10
-9,62,10
-9,63,10
-9,62,10
-9,62,10
-9,62,9
-9,63,10
-9,63,10
-10,63,10
-9,62,10
-9,63,10
-9,63,10
-9,63,10
-9,63,10
-9,63,10
-9,63,10
-9,63,10
-9,62,10
-8,62,10
-9,62,9
-10,63,9
-10,63,9
-9,62,9
-9,62,9
-9,62,10
-9,62,10
-9,62,10
-9,63,10
-9,63,11
-9,63,11
-9,63,11
-9,63,10
-9,63,10
-9,63,10
-9,63,10
-9,62,10
-9,62,10
-9,62,10
-9,62,9
-9,62,10
-9,62,10
-9,62,10
-9,63,10
-9,63,10
-9,63,10
-9,63,10
-9,62,10
-9,63,9
-8,63,9
-8,62,9
-8,63,9
-8,62,10
-8,63,9
-8,63,10
-8,63,10
-9,63,10
-9,63,10
-9,63,11
-9,62,11
-9,63,10
-9,63,10
-9,63,10
-9,63,10
-8,62,10
-8,62,9
-8,62,10
-8,62,10
-8,63,10
-9,62,10
-9,62,10
-9,62,10
-9,63,10
-9,63,10
-9,62,10
-9,62,10
-9,63,10
-9,63,10
-8,63,10
-8,63,10
-8,63,10
-8,62,10
-9,63,10
-9,63,10
-9,62,10
-9,62,10
-9,62,10
-9,62,10
-10,63,10
-10,63,10
-10,62,10
-10,62,10
-9,63,11
-9,63,11
-9,63,11
-9,63,11
-9,62,10
-9,62,11
-9,62,10
-9,63,10
-9,63,10
-10,62,10
-10,62,10
-9,62,10
-9,63,10
-9,63,10
-9,62,10
-9,62,10
-9,63,10
-9,63,10
-9,62,10
-9,62,10
-9,62,10
-9,63,10
-9,63,10
-9,63,10
-9,62,10
-9,63,10
-9,63,10
-9,63,10
-9,62,10
-10,62,10
-9,63,10
-10,63,10
-9,63,10
-9,63,9
-9,63,9
-9,63,9
-8,63,9
-8,63,9
-8,63,9
-8,63,9
-9,62,9
-9,63,9
-9,63,10
-9,62,10
-9,63,10
-10,63,10
-10,63,10
-10,63,10
-9,63,10
-9,63,10
-9,63,9
-9,63,9
-9,62,10
-9,62,9
-9,62,9
-9,63,9
-10,63,9
-9,62,10
-9,63,9
-9,62,9
-9,63,10
-9,63,9
-9,63,9
-9,63,10
-9,63,9
-9,63,10
-9,63,9
-9,63,9
-9,63,9
-9,63,10
-10,63,10
-9,62,10
-10,63,10
-10,63,10
-10,63,10
-10,62,9
-9,62,10
-9,63,9
-9,63,10
-9,63,10
-9,63,9
-9,63,10
-9,63,10
-9,62,10
-9,62,10
-9,62,10
-9,63,9
-10,62,9
-10,62,9
-9,62,9
-9,62,9
-9,62,9
-9,62,9
-9,63,10
-9,63,10
-9,62,10
-9,62,10
-9,62,10
-9,63,10
-9,63,10
-10,63,10
-10,62,10
-10,63,9
-10,62,10
-10,63,10
-10,62,10
-10,63,10
-10,62,10
-9,63,10
-9,63,10
-9,63,9
-9,62,9
-9,63,10
-9,63,10
-9,62,10
-9,63,10
-10,62,10
-10,63,10
-10,62,10
-10,63,10
-10,63,9
-10,63,10
-10,63,9
-10,63,9
-9,62,10
-9,63,9
-9,62,10
-9,63,9
-9,62,10
-9,62,10
-9,63,9
-10,62,10
-10,63,10
-10,63,9
-9,63,10
-9,63,10
-9,62,9
-9,62,9
-10,63,10
-9,63,9
-10,63,9
-9,63,9
-9,63,9
-9,63,10
-9,63,10
-9,63,10
-9,62,10
-9,62,10
-9,63,10
-9,63,10
-9,63,9
-9,63,9
-9,62,9
-9,62,9
-10,62,9
-9,63,9
-9,63,9
-9,63,9
-9,62,9
-9,62,10
-9,63,10
-9,63,10
-9,63,10
-9,63,9
-9,62,10
-9,63,9
-9,63,9
-9,63,9
-10,63,9
-10,63,9
-9,62,9
-9,63,9
-9,62,9
-9,63,10
-9,63,10
-9,63,10
-9,63,10
-9,63,10
-9,63,10
-9,63,10
-9,63,10
-9,62,10
-9,62,10
-10,62,10
-10,62,10
-10,62,10
-9,62,10
-9,63,10
-9,63,10
-9,63,10
-8,63,10
-8,63,10
-9,63,10
-8,63,10
-8,63,10
-9,63,9
-8,62,9
-9,62,9
-9,62,9
-9,62,10
-9,62,10
-9,62,10
-10,62,10
-10,62,11
-10,63,10
-9,63,11
-9,63,11
-9,62,11
-8,63,11
-8,63,11
-8,63,10
-9,63,10
-8,63,10
-9,62,9
-9,62,9
-9,62,9
-10,63,10
-9,63,10
-9,62,10
-10,63,11
-9,62,10
-9,62,11
-9,62,10
-10,62,10
-10,63,10
-10,63,10
-9,62,10
-9,62,10
-9,62,10
-9,62,10
-10,62,10
-9,62,9
-10,62,10
-9,63,10
-9,62,10
-9,62,9
-9,62,10
-9,62,10
-9,62,10
-9,62,10
-10,63,10
-10,63,10
-10,62,10
-10,63,10
-10,62,10
-10,63,10
-10,63,10
-10,63,10
-9,62,10
-9,62,10
-9,63,10
-9,63,10
-9,62,10
-9,62,10
-9,63,10
-9,63,10
-9,62,10
-9,62,10
-9,63,10
-10,63,10
-10,63,10
-10,62,10
-10,62,10
-10,62,10
-9,62,10
-10,63,10
-10,63,9
-9,62,10
-9,62,10
-9,63,10
-10,63,10
-10,63,10
-9,63,10
-10,63,10
-9,63,10
-9,63,10
-9,63,10
-9,63,10
-9,63,10
-10,63,10
-9,63,10
-9,63,10
-9,63,9
-9,63,10
-9,62,10
-10,62,9
-10,63,10
-9,62,10
-9,63,10
-10,63,10
-10,62,10
-10,63,9
-10,63,10
-9,62,10
-10,63,10
-9,62,9
-9,63,9
-10,63,10
-9,62,10
-9,62,10
-9,62,10
-9,63,10
-9,63,10
-10,63,10
-10,62,10
-9,62,10
-9,62,9
-9,63,9
-9,63,9
-9,63,9
-9,62,9
-9,62,9
-9,63,10
-9,63,10
-10,63,10
-9,63,10
-9,63,10
-9,63,10
-9,62,10
-9,63,9
-9,62,9
-9,63,10
-9,63,10
-9,62,10
-9,62,9
-9,62,10
-9,63,10
-9,63,10
-10,63,10
-10,63,10
-10,63,10
-10,63,10
-9,63,10
-9,63,10
-9,63,10
-9,62,9
-9,62,9
-8,63,10
-9,63,10
-9,63,10
-9,62,10
-9,63,10
-10,63,10
-10,63,10
-10,63,10
-10,63,10
-10,63,10
-9,63,10
-9,63,10
-9,63,9
-9,63,9
-9,62,9
-9,62,9
-9,62,9
-9,63,9
-9,62,10
-9,62,9
-9,63,10
-10,63,10
-10,63,10
-10,63,10
-9,62,10
-9,62,10
-9,63,10
-10,63,9
-9,63,9
-9,62,10
-9,63,10
-9,63,10
-9,63,10
-9,63,9
-9,62,10
-9,63,10
-9,63,10
-9,63,9
-9,62,9
-9,62,10
-9,62,10
-10,63,9
-10,63,10
-9,62,10
-9,62,10
-9,63,10
-9,63,10
-10,63,10
-9,63,10
-9,62,10
-10,63,10
-9,63,10
-9,63,10
-9,63,9
-9,62,10
-9,62,9
-9,63,10
-9,62,10
-9,63,9
-9,62,10
-9,63,10
-9,63,10
-9,63,10
-9,63,10
-9,62,10
-9,63,10
-9,62,10
-9,63,10
-9,62,10
-9,63,10
-9,63,10
-9,63,10
-9,63,10
-9,63,10
-9,63,10
-9,63,10
-9,63,10
-9,63,10
-9,63,10
-9,62,10
-9,62,9
-9,62,9
-9,62,10
-9,62,10
-10,62,10
-9,63,10
-9,63,11
-9,62,10
-9,62,10
-9,62,10
-10,63,10
-10,63,10
-10,63,10
-10,63,10
-10,62,10
-10,62,10
-10,63,10
-9,63,10
-9,63,10
-9,63,10
-9,63,10
-9,62,10
-9,62,10
-8,63,10
-9,63,10
-9,62,10
-9,62,10
-9,62,10
-9,62,10
-9,62,10
-9,62,10
-9,62,10
-9,63,10
-9,63,11
-9,63,11
-9,63,11
-9,62,11
-9,63,11
-9,63,10
-9,62,10
-9,62,9
-9,62,9
-9,62,9
-9,62,9
-10,62,9
-9,62,10
-9,62,10
-9,62,10
-9,63,10
-10,63,10
-10,63,10
-10,63,10
-10,63,10
-9,63,10
-10,63,10
-9,63,9
-9,62,9
-9,62,9
-9,63,9
-9,63,9
-9,62,9
-9,62,9
-9,63,9
-9,63,9
-10,63,10
-9,63,10
-9,63,10
-9,63,10
-9,63,9
-9,63,9
-9,63,9
-9,62,9
-9,62,9
-9,63,9
-10,63,9
-10,63,9
-9,63,10
-10,63,10
-10,63,10
-10,63,10
-10,63,10
-9,63,10
-9,63,10
-9,63,9
-9,62,9
-9,62,9
-10,62,10
-9,62,10
-10,63,9
-10,62,10
-10,62,10
-9,62,10
-10,63,10
-9,63,10
-10,63,10
-10,62,10
-9,62,10
-9,62,10
-9,62,10
-10,63,9
-10,63,9
-9,63,10
-9,62,10
-9,63,10
-9,62,10
-9,63,10
-9,63,10
-9,63,10
-10,63,10
-9,62,10
-9,62,10
-10,62,10
-10,63,10
-10,62,10
-10,62,10
-10,62,10
-10,63,10
-10,63,10
-9,62,10
-10,62,10
-9,62,10
-9,62,10
-10,62,9
-9,63,9
-9,63,9
-10,63,9
-9,62,9
-9,62,9
-9,63,9
-9,62,10
-10,63,10
-10,63,10
-10,63,10
-10,63,10
-10,63,10
-10,62,10
-10,62,10
-10,63,10
-10,63,10
-10,63,10
-9,62,9
-9,63,9
-9,62,9
-10,62,9
-9,63,9
-9,62,10
-9,62,10
-9,62,10
-10,63,10
-10,63,10
-10,63,10
-10,62,10
-10,63,10
-10,63,10
-10,63,9
-10,63,9
-9,62,10
-9,62,9
-9,63,9
-9,62,9
-9,62,9
-9,63,10
-9,63,10
-10,62,10
-10,63,10
-10,62,10
-10,63,10
-10,63,10
-10,63,10
-10,63,10
-9,62,10
-9,62,9
-9,62,9
-9,63,10
-9,63,10
-9,63,10
-9,62,10
-9,62,10
-9,62,10
-9,63,10
-9,63,10
-9,63,10
-9,62,10
-10,62,10
-9,63,10
-9,63,10
-9,62,10
-9,62,10
-9,62,10
-9,62,10
-9,62,10
-9,62,10
-9,62,10
-9,62,10
-9,63,10
-9,62,10
-9,62,10
-9,63,10
-9,62,10
-9,62,10
-9,63,10
-9,62,9
-9,63,10
-9,62,10
-9,62,10
-9,62,10
-9,63,10
-9,63,10
-9,63,10
-9,63,10
-9,63,10
-9,63,10
-9,62,9
-9,62,10
-9,62,10
-9,63,10
-9,63,10
-9,63,10
-9,63,10
-9,63,10
-9,62,10
-9,63,10
-9,63,10
-9,63,10
-9,62,10
-9,63,10
-10,62,10
-9,62,10
-9,63,10
-9,63,10
-9,63,10
-10,63,10
-10,62,10
-9,62,10
-9,62,10
-9,63,10
-9,62,10
-9,62,10
-9,62,10
-9,62,10
-10,62,9
-10,62,10
-9,63,10
-9,63,10
-9,63,10
-9,62,10
-9,62,10
-9,62,10
-10,63,10
-9,63,10
-9,62,11
-9,63,10
-10,62,10
-10,63,10
-10,63,11
-10,63,11
-9,62,10
-10,62,10
-10,62,10
-10,62,10
-10,62,10
-9,62,10
-9,63,10
-9,63,10
-9,62,10
-9,62,10
-9,63,10
-9,62,10
-9,62,10
-9,63,10
-9,62,10
-9,63,10
-9,63,10
-9,63,10
-9,63,10
-9,62,10
-9,62,10
-9,62,10
-9,62,10
-9,63,10
-9,62,11
-9,63,11
-9,63,10
-9,62,11
-9,62,10
-9,63,10
-9,63,10
-9,62,10
-9,62,10
-9,63,10
-9,62,10
-9,62,10
-9,63,10
-9,63,10
-9,62,10
-9,62,10
-9,62,10
-9,62,10
-9,63,10
-9,63,10
-9,62,10
-9,63,10
-9,63,10
-9,63,10
-9,63,10
-9,62,10
-9,62,10
-9,63,10
-9,63,10
-9,62,10
-9,63,10
-9,62,10
-9,63,10
-9,62,10
-9,63,10
-9,63,10
-9,63,10
-9,62,10
-9,62,10
-9,63,10
-9,62,10
-9,62,10
-9,63,10
-9,63,10
-10,63,10
-9,63,10
-9,62,10
-9,63,10
-9,63,10
-9,63,10
-9,63,10
-9,62,10
-9,63,10
-9,63,10
-9,62,10
-9,63,10
-9,62,10
-9,62,10
-9,62,10
-10,62,10
-10,62,10
-10,62,11
-10,63,10
-9,62,10
-9,62,10
-9,63,10
-9,63,10
-9,63,10
-8,63,10
-9,63,10
-9,62,10
-9,63,10
-9,63,10
-9,63,10
-9,62,10
-9,63,10
-9,62,10
-9,63,10
-10,62,10
-9,63,10
-9,63,10
-9,63,10
-8,62,10
-8,63,10
-8,63,10
-8,63,10
-9,63,10
-9,63,10
-8,63,10
-9,62,10
-9,62,9
-9,62,10
-9,62,10
-9,62,10
-9,63,10
-9,63,10
-9,63,10
-8,63,11
-8,63,11
-8,63,10
-8,62,10
-8,62,10
-8,62,10
-9,63,10
-9,62,10
-9,63,10
-9,62,10
-9,63,10
-9,63,10
-9,63,10
-8,63,10
-8,63,10
-8,62,10
-8,63,10
-8,63,10
-9,63,10
-8,63,10
-8,63,10
-8,63,10
-9,63,10
-9,63,10
-9,63,10
-9,62,10
-9,62,11
-9,63,11
-9,63,11
-9,62,10
-9,63,10
-9,63,10
-8,62,10
-8,62,10
-8,63,9
-9,63,9
-8,62,9
-8,62,9
-8,62,9
-8,62,10
-8,62,9
-9,63,10
-8,63,10
-8,63,11
-9,63,11
-8,62,10
-8,62,9
-9,62,9
-9,63,9
-9,63,9
-9,63,10
-8,63,10
-8,63,10
-8,63,10
-9,63,9
-8,62,10
-8,62,9
-8,63,9
-8,63,9
-8,62,9
-8,62,9
-8,63,9
-8,63,9
-9,63,9
-9,63,9
-8,63,9
-8,63,9
-9,63,9
-9,63,9
-8,63,10
-8,62,9
-8,63,10
-9,63,10
-9,63,10
-9,62,10
-9,63,10
-9,63,10
-9,63,10
-9,63,9
-9,62,9
-9,62,9
-9,63,9
-8,63,8
-8,63,9
-8,63,9
-7,62,10
-7,63,10
-8,62,10
-8,62,10
-9,63,10
-9,63,10
-9,63,10
-9,62,9
-9,62,9
-9,63,10
-9,63,9
-8,63,10
-8,63,10
-8,62,10
-8,62,10
-7,63,9
-8,63,9
-8,63,9
-8,63,9
-8,62,9
-8,62,9
-9,62,10
-9,63,10
-9,63,10
-9,63,10
-8,63,10
-8,63,10
-8,63,10
-8,62,10
-8,63,10
-8,63,10
-8,63,9
-8,63,9
-8,63,9
-8,63,9
-9,62,9
-8,63,10
-9,63,10
-9,63,10
-9,63,10
-8,63,10
-8,63,10
-9,63,10
-8,62,9
-8,63,9
-8,62,9
-8,62,9
-8,62,9
-8,63,10
-7,63,10
-8,63,10
-9,63,9
-8,63,9
-9,63,9
-8,62,9
-8,62,9
-8,63,10
-8,62,10
-8,63,10
-8,63,10
-8,64,10
-8,63,10
-8,62,9
-8,62,9
-8,62,9
-8,63,9
-8,63,9
-8,63,9
-8,63,9
-8,63,9
-8,63,9
-8,62,9
-8,63,10
-8,63,9
-8,63,9
-8,62,9
-8,63,10
-8,63,10
-8,63,9
-8,62,9
-8,62,10
-8,63,10
-8,63,10
-9,63,9
-9,63,10
-8,62,9
-8,63,10
-8,63,9
-8,63,9
-8,63,9
-8,63,10
-8,63,9
-8,63,9
-8,62,9
-8,62,9
-8,62,9
-9,63,9
-9,63,9
-8,63,9
-8,63,9
-8,62,9
-9,63,9
-8,63,10
-8,63,9
-8,62,9
-8,63,9
-8,63,9
-8,63,9
-8,62,10
-8,62,9
-9,63,9
-8,63,9
-8,63,9
-8,63,9
-8,63,9
-9,63,9
-9,63,9
-8,63,9
-8,62,9
-8,63,10
-8,63,10
-8,63,10
-8,63,9
-8,63,9
-8,63,10
-8,63,10
-8,63,9
-8,63,9
-8,62,9
-8,62,9
-8,63,9
-9,63,9
-9,63,9
-9,63,9
-9,63,9
-9,63,9
-9,63,10
-9,63,10
-8,63,10
-8,63,10
-8,63,10
-8,63,10
-8,63,10
-9,63,9
-8,63,10
-8,63,10
-8,63,9
-8,62,9
-8,63,9
-8,63,10
-8,63,10
-8,63,10
-8,63,10
-8,63,10
-8,63,10
-8,63,10
-8,63,10
-9,63,9
-8,63,9
-8,63,9
-8,62,9
-8,63,9
-8,63,9
-9,63,9
-8,63,9
-8,63,9
-8,63,10
-8,63,9
-8,63,9
-8,63,9
-8,63,9
-8,63,9
-8,63,9
-8,63,9
-8,63,9
-8,63,9
-9,62,9
-8,63,10
-8,63,9
-8,63,9
-8,62,9
-8,63,9
-8,63,9
-8,63,9
-9,63,9
-9,63,9
-8,62,9
-9,62,9
-8,63,9
-9,63,9
-9,63,9
-9,63,9
-9,62,9
-9,63,9
-9,63,9
-9,63,9
-9,63,9
-9,62,9
-9,63,9
-9,63,9
-9,63,9
-9,63,9
-8,62,9
-8,62,9
-8,63,9
-9,63,9
-9,63,9
-9,63,9
-9,62,9
-9,62,9
-9,63,9
-9,63,9
-9,63,9
-9,63,9
-9,63,9
-9,63,9
-9,63,9
-10,63,9
-10,63,9
-9,62,10
-10,63,10
-9,63,10
-10,63,10
-10,63,10
-9,63,9
-9,63,9
-9,63,9
-9,63,9
-9,63,9
-9,63,9
-9,62,9
-9,62,9
-9,62,9
-9,63,9
-9,63,10
-9,63,10
-9,63,10
-9,63,9
-9,63,9
-9,63,9
-9,63,10
-9,63,10
-9,63,10
-9,62,9
-9,63,9
-9,63,10
-9,63,9
-9,62,10
-9,63,10
-9,63,9
-9,63,9
-9,63,10
-9,63,10
-9,63,9
-9,62,9
-9,63,9
-9,62,9
-9,62,9
-9,63,9
-9,63,10
-9,63,9
-9,63,10
-9,63,10
-9,63,10
-9,63,10
-9,63,10
-9,62,9
-9,62,9
-9,62,9
-9,63,10
-9,63,9
-9,63,9
-9,63,10
-9,63,10
-10,63,9
-9,63,9
-9,63,10
-9,62,10
-9,62,9
-9,63,10
-9,63,10
-9,63,10
-9,63,10
-9,63,9
-9,62,10
-9,63,9
-10,63,9
-10,63,9
-10,63,9
-9,62,9
-9,63,10
-9,63,9
-9,62,9
-9,63,10
-9,63,10
-9,63,9
-9,63,10
-9,63,10
-9,63,10
-9,63,9
-9,63,9
-9,63,9
-9,62,9
-9,62,9
-9,63,9
-9,63,10
-9,62,9
-9,63,10
-9,63,9
-10,63,10
-9,63,9
-9,62,9
-9,62,9
-9,63,9
-9,63,9
-9,63,9
-9,62,9
-9,63,10
-9,63,9
-9,63,10
-9,63,10
-9,63,10
-9,63,10
-9,63,10
-9,63,10
-8,63,10
-8,62,9
-9,62,9
-9,63,9
-9,63,9
-9,63,10
-9,63,9
-10,62,9
-9,62,9
-10,63,10
-9,63,10
-10,64,9
-9,63,10
-9,62,9
-9,61,9
-10,62,9
-9,63,9
-10,63,10
-9,62,10
-9,62,9
-9,61,9
-9,61,10
-9,61,9
-10,63,8
-11,63,9
-10,63,10
-10,64,11
-9,63,12
-9,62,11
-9,62,11
-10,63,10
-10,63,10
-10,63,10
-10,62,10
-9,63,10
-9,63,9
-10,62,9
-9,62,9
-9,62,8
-10,62,8
-9,62,8
-9,62,9
-9,63,9
-9,63,9
-10,62,9
-10,63,10
-9,62,10
-9,62,10
-10,63,10
-10,63,10
-10,63,9
-10,63,9
-10,63,9
-9,62,10
-9,63,10
-9,63,10
-10,63,9
-10,63,9
-10,63,9
-10,63,9
-9,63,9
-9,63,9
-9,63,9
-8,62,10
-8,62,10
-8,62,10
-9,63,9
-10,62,9
-9,63,9
-9,63,9
-10,63,9
-9,63,9
-9,63,10
-9,63,10
-8,63,10
-9,62,10
-10,62,10
-10,63,10
-9,63,10
-9,62,10
-8,62,10
-8,62,10
-8,63,9
-9,62,9
-9,61,9
-9,63,10
-8,65,11
-8,63,11
-8,61,10
-8,61,10
-8,62,9
-9,63,9
-9,63,9
-9,62,9
-9,63,9
-8,63,10
-8,63,10
-8,63,10
-9,63,9
-8,63,9
-9,63,10
-7,63,11
-7,63,11
-8,61,9
-9,61,9
-9,62,8
-10,63,8
-9,64,9
-8,63,9
-8,62,8
-8,63,9
-8,63,9
-7,63,9
-7,63,10
-7,63,10
-8,63,9
-8,63,9
-8,62,9
-8,62,10
-8,63,9
-9,63,9
-9,63,9
-8,63,10
-8,62,11
-9,62,11
-10,63,11
-9,63,11
-8,62,11
-8,62,10
-8,62,10
-8,61,11
-8,61,10
-8,61,10
-8,62,10
-9,63,11
-9,63,11
-8,61,11
-8,61,11
-8,61,10
-9,62,10
-9,63,11
-8,62,11
-8,62,11
-8,62,10
-8,64,11
-9,64,11
-9,64,12
-9,63,13
-6,63,15
-7,63,15
-8,62,14
-9,63,13
-9,63,13
-9,63,12
-8,63,12
-8,63,12
-7,62,11
-8,62,10
-8,63,10
-7,62,11
-7,62,11
-8,62,11
-9,62,11
-9,63,11
-9,63,11
-9,63,12
-8,62,13
-8,62,13
-9,61,13
-10,61,13
-10,62,13
-10,62,13
-9,63,13
-8,63,13
-9,63,13
-8,62,12
-8,62,12
-7,62,12
-7,62,12
-8,62,12
-7,62,12
-7,62,12
-7,62,13
-7,63,13
-8,62,13
-8,62,13
-8,62,14
-8,62,14
-9,62,13
-9,62,13
-9,61,13
-9,62,13
-8,61,13
-9,62,13
-8,62,13
-8,62,13
-8,62,13
-8,61,14
-8,62,13
-8,62,13
-8,62,13
-8,62,13
-8,62,13
-8,62,13
-7,62,13
-8,62,12
-8,61,13
-8,61,13
-8,62,13
-8,62,13
-8,62,13
-8,62,13
-8,62,14
-8,62,14
-8,62,13
-8,63,13
-8,62,12
-8,62,13
-8,61,12
-8,62,12
-8,62,13
-8,62,13
-8,62,13
-7,62,13
-7,62,13
-8,62,12
-8,62,12
-7,62,12
-8,62,12
-8,62,12
-8,62,12
-7,62,12
-7,62,12
-8,62,13
-8,62,12
-8,62,12
-8,62,12
-8,63,12
-8,63,13
-8,62,13
-8,62,13
-8,62,12
-8,62,13
-8,62,13
-8,62,13
-8,62,13
-8,62,13
-8,62,14
-8,62,14
-8,62,13
-8,62,14
-8,62,14
-8,62,13
-8,62,13
-8,61,12
-8,61,12
-8,62,12
-8,63,13
-8,63,13
-8,62,13
-8,61,13
-8,61,13
-8,62,13
-8,62,13
-8,62,13
-8,61,13
-9,62,13
-9,62,14
-9,62,14
-9,61,14
-9,62,14
-10,62,13
-9,62,13
-9,62,13
-9,61,13
-8,62,13
-8,61,13
-9,62,13
-8,63,13
-8,62,13
-8,62,13
-8,62,13
-8,62,13
-8,62,13
-8,62,13
-8,62,13
-8,62,13
-9,62,13
-9,62,13
-9,62,13
-9,62,13
-9,62,13
-9,62,13
-9,61,13
-9,62,13
-8,62,13
-8,62,13
-8,62,13
-8,62,13
-8,62,13
-8,62,13
-8,62,13
-8,62,13
-8,62,13
-8,62,13
-8,62,13
-8,62,13
-8,62,13
-8,62,13
-8,62,13
-8,62,13
-8,62,13
-8,62,13
-8,62,12
-8,62,12
-8,62,12
-8,62,12
-8,62,12
-8,62,12
-8,62,12
-9,62,12
-8,62,13
-8,62,13
-8,63,13
-8,62,13
-8,62,13
-8,62,13
-8,62,13
-8,62,12
-8,62,12
-8,63,13
-8,62,13
-8,62,12
-7,61,12
-8,61,11
-8,62,11
-9,63,11
-8,62,12
-8,62,12
-7,62,12
-8,62,12
-8,63,13
-8,62,12
-8,62,13
-8,62,13
-8,63,13
-8,63,12
-8,62,12
-8,62,12
-8,62,11
-8,62,11
-8,62,11
-8,62,11
-8,62,11
-8,62,12
-8,62,12
-8,62,12
-8,62,12
-8,62,12
-8,62,12
-8,62,12
-8,62,12
-8,62,12
-8,62,12
-8,62,12
-8,62,12
-8,62,12
-8,62,12
-8,62,12
-8,62,12
-8,62,12
-8,62,12
-8,62,12
-8,62,12
-8,62,12
-8,62,12
-8,62,12
-8,62,12
-8,62,12
-8,62,12
-8,62,12
-8,62,11
-8,63,12
-8,62,12
-8,62,12
-8,62,12
-8,62,12
-9,62,12
-9,62,12
-8,62,12
-8,62,13
-8,62,12
-8,62,12
-9,62,12
-9,62,13
-8,63,13
-8,62,13
-8,62,12
-8,62,13
-9,62,12
-9,62,13
-9,62,12
-8,62,12
-9,62,12
-9,62,13
-8,62,13
-8,62,13
-8,62,13
-8,62,12
-8,62,13
-8,62,12
-8,62,12
-8,62,12
-8,62,12
-8,62,12
-9,62,12
-8,62,12
-9,62,12
-9,62,12
-9,62,13
-9,62,13
-8,62,13
-8,62,12
-8,62,12
-8,62,12
-8,62,12
-8,62,12
-8,62,12
-8,62,12
-8,62,12
-8,62,12
-8,62,12
-8,62,12
-8,62,12
-8,62,12
-8,62,12
-8,62,12
-8,62,12
-8,63,12
-8,62,12
-8,62,12
-8,62,12
-8,62,12
-8,63,12
-8,62,12
-8,62,12
-8,62,12
-8,62,12
-8,62,12
-8,62,12
-8,62,12
-8,62,12
-8,62,12
-9,62,12
-8,62,12
-8,62,12
-8,62,12
-8,62,12
-9,62,12
-8,62,12
-8,62,12
-9,62,12
-8,62,12
-8,62,12
-8,62,12
-8,62,12
-8,62,12
-8,62,12
-8,62,12
-9,62,12
-8,62,12
-8,62,13
-8,62,13
-9,62,12
-9,62,12
-9,62,12
-8,62,13
-8,62,13
-8,62,13
-9,62,13
-9,62,13
-9,62,13
-9,62,13
-9,62,13
-9,62,12
-9,62,13
-8,62,13
-8,62,13
-8,62,13
-8,62,13
-9,62,13
-8,62,13
-9,62,13
-9,62,13
-8,62,13
-9,62,13
-9,62,13
-9,62,13
-9,62,13
-9,62,13
-9,62,13
-9,62,13
-8,62,13
-8,62,13
-8,62,13
-9,62,12
-9,62,12
-8,62,13
-9,63,12
-9,62,13
-9,62,13
-8,62,12
-9,62,12
-9,62,13
-9,62,13
-9,62,13
-9,62,12
-8,62,13
-8,63,12
-9,62,12
-8,62,13
-8,62,13
-8,62,13
-9,63,12
-9,63,12
-8,62,12
-9,62,12
-8,62,13
-9,62,12
-9,62,12
-9,62,13
-9,62,12
-9,62,12
-8,62,12
-8,62,12
-8,62,12
-8,62,12
-8,62,12
-8,62,12
-8,62,12
-8,62,11
-8,63,12
-8,62,12
-8,62,12
-8,62,12
-8,61,12
-8,62,12
-9,62,12
-9,62,13
-9,62,13
-9,62,13
-9,62,13
-8,62,13
-9,62,12
-9,62,12
-9,62,12
-9,62,12
-9,62,13
-9,62,13
-9,62,13
-9,62,12
-9,62,13
-9,62,13
-9,62,13
-9,62,13
-9,62,13
-9,62,13
-9,62,13
-8,62,13
-8,62,12
-8,62,12
-8,62,13
-8,62,13
-9,62,13
-8,62,13
-8,62,13
-8,62,13
-8,62,13
-8,62,12
-8,62,13
-8,62,13
-8,62,13
-8,62,13
-8,62,13
-8,62,12
-8,62,13
-8,62,13
-8,62,13
-8,62,13
-8,62,13
-8,62,13
-8,62,13
-8,62,13
-8,62,13
-8,63,12
-8,63,12
-8,63,12
-8,62,12
-8,62,12
-7,62,12
-8,63,12
-8,62,12
-8,62,12
-9,62,13
-8,62,13
-9,62,13
-8,62,13
-8,62,13
-9,62,13
-9,62,13
-9,62,13
-9,62,13
-8,62,13
-8,62,13
-8,62,12
-8,62,12
-8,62,12
-8,62,12
-8,62,12
-8,62,12
-8,62,12
-8,62,12
-8,62,12
-8,62,13
-9,62,13
-9,62,13
-9,63,13
-9,62,13
-9,62,13
-9,62,13
-9,62,13
-8,62,13
-9,62,13
-8,62,13
-9,62,13
-9,62,13
-9,62,13
-9,62,13
-9,62,13
-8,62,13
-8,62,13
-8,62,13
-8,62,13
-8,62,13
-8,62,12
-8,62,13
-8,62,12
-8,62,12
-9,62,12
-8,62,13
-8,62,13
-8,62,13
-9,62,13
-9,62,13
-8,62,13
-9,62,13
-8,62,13
-8,62,13
-9,62,13
-9,62,13
-9,62,13
-8,62,13
-8,62,13
-8,62,13
-8,62,12
-8,62,12
-8,62,12
-8,62,12
-8,62,12
-8,62,12
-8,62,12
-8,62,12
-9,62,12
-8,62,12
-8,62,13
-8,62,13
-9,62,12
-9,62,12
-9,62,12
-8,62,12
-8,62,12
-8,62,13
-8,62,13
-8,62,12
-8,62,12
-8,62,12
-8,62,12
-8,62,12
-8,62,12
-8,62,12
-8,62,12
-8,62,12
-8,62,12
-8,62,12
-8,62,12
-8,62,12
-8,62,12
-8,62,12
-8,62,12
-9,62,13
-9,62,13
-9,62,13
-9,62,13
-9,62,12
-9,62,13
-8,62,13
-8,62,12
-9,62,12
-9,62,12
-8,62,13
-8,62,13
-8,62,13
-8,62,13
-8,62,13
-8,62,13
-9,62,12
-9,62,12
-8,62,12
-8,62,12
-8,62,13
-8,62,12
-8,62,12
-8,62,12
-9,62,12
-9,62,12
-9,62,13
-9,62,12
-9,62,12
-9,62,12
-9,62,13
-8,62,13
-9,62,12
-9,62,13
-8,62,13
-8,62,13
-8,62,12
-9,62,12
-9,62,12
-8,62,12
-8,62,12
-8,62,12
-8,62,12
-8,62,12
-8,62,12
-8,62,12
-8,62,12
-8,62,12
-8,62,12
-8,62,12
-8,62,12
-9,62,12
-8,62,12
-8,62,12
-9,62,12
-9,62,12
-8,62,12
-8,62,13
-9,62,12
-9,62,12
-9,62,12
-9,62,12
-8,62,12
-8,62,12
-8,62,12
-8,62,12
-8,62,12
-8,62,12
-8,62,12
-9,62,12
-8,62,12
-9,62,12
-9,62,12
-9,62,12
-9,62,12
-8,62,12
-8,62,12
-9,63,12
-8,62,12
-8,62,12
-8,62,12
-9,62,12
-9,62,12
-9,62,12
-9,62,12
-8,62,12
-8,62,12
-8,62,12
-8,62,12
-8,62,12
-8,62,12
-9,62,11
-9,62,12
-9,62,12
-9,62,12
-9,62,12
-9,62,12
-9,62,12
-9,62,12
-9,62,12
-9,62,12
-9,62,12
-8,62,12
-8,62,12
-9,62,12
-8,62,12
-8,62,12
-9,62,12
-9,62,12
-9,62,12
-8,62,12
-9,62,12
-9,62,12
-9,62,12
-9,62,12
-9,62,12
-9,62,12
-9,62,12
-8,62,12
-8,62,12
-8,62,13
-9,62,12
-9,62,12
-9,62,12
-9,62,12
-9,62,12
-9,62,12
-8,62,12
-9,62,12
-9,62,12
-8,62,12
-8,62,12
-8,62,12
-9,62,12
-9,62,12
-9,62,12
-9,62,12
-9,62,12
-9,62,12
-9,62,12
-9,63,12
-9,62,12
-8,62,13
-8,62,13
-8,62,12
-9,62,12
-9,62,12
-8,62,12
-9,63,12
-8,62,12
-8,62,12
-8,62,12
-8,62,12
-8,63,12
-8,62,12
-8,62,12
-8,62,12
-8,62,12
-9,62,12
-9,62,12
-9,62,12
-9,62,12
-8,62,13
-9,62,12
-9,63,12
-8,62,12
-8,62,12
-8,62,12
-9,62,12
-9,62,12
-8,62,12
-9,62,12
-9,62,12
-9,62,13
-9,62,12
-9,62,12
-9,62,12
-9,62,12
-9,62,12
-9,62,12
-8,62,12
-8,62,13
-9,62,13
-9,62,13
-9,62,13
-9,62,13
-9,62,12
-9,62,12
-9,62,12
-9,62,12
-8,62,12
-8,62,13
-9,62,13
-9,62,13
-9,62,12
-9,62,12
-8,62,12
-8,62,12
-8,62,12
-9,62,13
-9,62,13
-9,62,12
-9,62,13
-9,62,13
-9,62,12
-9,62,12
-9,62,12
-8,62,12
-9,62,12
-9,62,12
-9,62,12
-9,62,12
-8,62,12
-8,62,12
-8,62,12
-9,62,12
-9,62,12
-9,62,12
-8,62,13
-9,63,13
-8,62,12
-9,62,12
-8,62,12
-9,62,12
-8,62,12
-9,62,12
-9,62,12
-9,62,12
-9,62,12
-9,62,12
-9,62,13
-8,63,12
-8,62,12
-8,63,11
-8,63,11
-8,63,12
-8,62,12
-9,64,13
-9,64,13
-9,64,13
-8,61,13
-8,61,13
-7,61,12
-8,62,12
-9,62,12
-9,63,11
-9,64,11
-9,64,11
-8,63,12
-7,63,12
-7,62,11
-8,61,10
-8,60,9
-9,60,9
-9,63,10
-10,64,10
-10,63,10
-10,61,10
-10,60,10
-10,61,11
-10,61,11
-11,61,11
-11,60,10
-11,61,10
-11,62,10
-11,62,10
-11,61,9
-11,62,9
-10,63,9
-9,62,9
-9,62,9
-9,63,10
-9,63,9
-9,64,9
-10,62,8
-11,61,8
-11,61,7
-12,62,8
-11,63,10
-11,63,10
-11,66,12
-11,65,13
-12,65,14
-12,63,14
-10,61,13
-9,60,13
-9,60,12
-11,61,11
-11,61,10
-12,62,9
-12,62,8
-12,62,7
-11,63,7
-11,62,7
-10,62,7
-9,62,8
-8,63,9
-8,62,9
-9,61,9
-8,61,10
-7,61,10
-7,62,11
-8,63,11
-8,64,11
-10,68,9
-10,67,9
-12,64,9
-12,57,9
-11,58,12
-10,61,12
-10,64,14
-11,65,14
-12,64,13
-11,62,12
-10,62,11
-10,62,10
-10,63,8
-10,63,8
-10,61,7
-10,60,6
-9,62,6
-9,61,5
-10,62,5
-9,65,7
-6,61,9
1,62,18
-4,63,18
-11,63,13
-10,62,9
-10,61,9
-10,62,9
-10,64,10
-10,65,9
-12,65,10
-13,65,10
-13,64,10
-12,63,9
-10,63,9
-10,63,8
-10,62,7
-9,63,7
-9,63,7
-9,63,6
-8,65,7
-7,65,7
-8,64,6
-8,62,6
-7,61,6
-7,60,7
-6,60,11
-9,61,10
-9,61,10
-10,61,9
-10,62,9
-10,64,10
-10,65,10
-11,65,10
-11,64,9
-11,63,9
-11,63,9
-10,62,8
-11,62,8
-11,62,8
-11,63,8
-10,63,9
-10,63,8
-10,63,8
-9,63,8
-9,63,9
-9,63,8
-9,62,8
-8,62,8
-8,62,8
-9,62,8
-9,62,8
-10,63,8
-11,63,8
-11,63,8
-11,64,9
-11,64,9
-11,63,9
-10,63,10
-10,62,10
-8,61,10
-9,62,9
-11,62,8
-11,62,8
-11,62,8
-11,63,8
-10,63,8
-10,63,8
-10,64,9
-9,62,9
-10,61,9
-9,61,9
-7,62,11
-8,63,11
-8,63,11
-10,63,9
-9,63,9
-10,63,9
-10,63,8
-10,62,8
-10,62,8
-10,62,9
-9,63,9
-10,63,9
-10,63,10
-9,63,9
-10,63,10
-10,62,9
-10,62,9
-10,62,9
-10,63,9
-10,63,9
-10,63,10
-10,63,9
-10,62,10
-10,62,9
-10,63,9
-9,64,9
-9,63,9
-10,61,8
-11,61,8
-11,61,8
-10,62,9
-10,64,11
-10,64,11
-10,63,11
-10,62,9
-10,62,9
-11,63,8
-11,64,9
-10,63,10
-9,62,11
-9,62,11
-9,61,9
-10,63,9
-10,63,8
-11,63,8
-10,62,8
-9,62,9
-9,61,9
-10,62,9
-9,63,10
-10,63,10
-10,63,11
-10,63,10
-10,62,10
-10,63,9
-10,62,9
-10,63,9
-10,63,10
-10,63,10
-10,63,11
-10,63,11
-9,63,11
-10,63,10
-10,62,10
-10,62,9
-10,62,9
-10,61,9
-10,61,9
-10,62,9
-10,62,10
-10,62,10
-10,62,10
-10,62,10
-10,62,10
-11,62,11
-11,63,11
-10,63,11
-10,63,11
-10,62,11
-10,62,11
-10,62,10
-10,62,10
-10,62,10
-10,62,10
-10,62,10
-10,62,10
-10,62,9
-10,62,9
-10,62,9
-12,62,9
-11,62,10
-11,63,10
-11,65,10
-12,63,10
-12,62,10
-12,61,9
-11,61,10
-10,62,11
-11,64,11
-11,64,11
-12,62,10
-11,61,10
-10,60,10
-10,60,11
-10,61,11
-10,62,11
-11,64,10
-12,66,10
-12,64,10
-12,61,9
-11,60,10
-11,60,11
-10,61,12
-11,64,11
-12,64,11
-12,63,11
-12,63,11
-11,63,11
-11,63,11
-10,61,10
-10,61,10
-10,61,10
-11,62,10
-11,62,10
-12,63,10
-12,62,10
-11,63,10
-12,64,10
-10,64,12
-10,63,12
-10,60,12
-11,57,12
-12,57,12
-12,61,11
-12,64,11
-13,64,11
-13,64,11
-11,65,12
-10,65,12
-10,62,11
-10,61,11
-9,60,10
-10,58,10
-11,58,10
-11,58,10
-10,59,11
-10,62,12
-9,64,13
-8,66,14
-8,65,12
-10,63,12
-11,60,11
-10,61,11
-10,62,12
-9,64,13
-9,64,14
-11,63,13
-11,62,14
-10,62,14
-9,61,14
-9,61,13
-10,61,12
-8,61,13
-7,62,13
-8,63,13
-9,62,13
-10,62,13
-10,64,14
-9,63,14
-9,62,14
-9,61,14
-9,60,14
-9,61,13
-9,61,13
-10,61,12
-9,61,12
-8,61,11
-9,61,11
-9,61,10
-9,62,11
-9,63,11
-10,64,11
-10,63,12
-9,62,13
-8,62,14
-8,61,14
-8,63,13
-9,63,11
-10,63,10
-10,61,10
-10,61,9
-10,61,9
-10,62,9
-10,62,10
-10,62,10
-10,63,11
-10,63,11
-10,63,11
-11,63,11
-11,63,12
-10,62,11
-10,62,12
-10,62,12
-10,63,11
-10,64,11
-10,63,11
-10,62,11
-10,61,11
-9,62,11
-9,62,11
-10,63,11
-10,63,11
-10,62,11
-10,62,11
-10,62,10
-10,62,11
-10,62,11
-10,62,11
-10,62,11
-9,62,11
-9,62,11
-10,62,11
-10,63,11
-10,63,11
-10,62,11
-9,61,11
-9,62,12
-10,62,12
-10,62,12
-10,62,12
-10,62,12
-10,62,12
-11,62,12
-11,62,13
-10,63,12
-10,63,12
-11,62,11
-10,61,11
-10,61,10
-10,62,10
-9,62,10
-10,62,10
-10,62,11
-10,63,12
-10,63,12
-10,63,12
-10,62,12
-10,62,12
-10,62,11
-10,62,11
-10,62,11
-10,62,12
-9,62,12
-10,62,11
-10,62,11
-10,62,11
-10,62,12
-10,62,12
-9,62,12
-10,62,12
-10,62,12
-10,63,12
-10,63,12
-10,62,12
-10,62,12
-9,61,11
-9,62,11
-10,62,11
-10,62,11
-9,62,11
-10,62,11
-10,63,12
-10,63,12
-9,63,12
-9,62,11
-10,62,11
-10,62,12
-9,63,11
-9,62,11
-9,62,11
-9,62,11
-9,62,11
-10,63,11
-9,62,12
-9,62,11
-10,62,11
-10,62,11
-10,62,11
-10,62,11
-10,62,11
-10,62,11
-10,63,11
-9,63,11
-9,62,11
-9,62,11
-9,62,11
-10,62,10
-10,62,11
-9,62,11
-9,62,11
-9,63,11
-9,62,11
-9,63,10
-9,62,10
-9,62,10
-9,62,10
-9,63,10
-9,63,10
-9,63,10
-9,62,10
-9,62,10
-9,62,10
-9,62,10
-9,63,10
-9,63,10
-10,63,10
-9,63,10
-10,63,10
-10,63,11
-10,63,11
-10,62,10
-10,62,11
-10,63,11
-10,63,11
-10,63,11
-9,62,11
-10,62,11
-9,63,10
-9,62,9
-10,62,9
-9,62,9
-9,62,9
-9,63,9
-10,63,9
-10,62,10
-10,62,10
-10,62,10
-10,63,10
-10,63,10
-10,62,10
-10,62,10
-10,63,10
-10,62,10
-10,62,9
-10,62,9
-10,63,9
-10,63,10
-10,62,9
-10,62,10
-10,63,11
-10,63,11
-10,63,10
-11,63,10
-10,62,10
-11,63,10
-10,63,10
-10,62,10
-10,62,9
-10,63,9
-10,63,9
-10,63,9
-10,63,10
-9,63,10
-9,63,10
-10,63,10
-10,63,10
-9,63,10
-10,63,10
-10,62,10
-10,63,10
-10,62,11
-9,61,11
-10,62,12
-9,61,12
-9,61,11
-10,60,11
-10,62,11
-10,63,11
-10,63,11
-9,63,11
-8,63,10
-9,63,9
-9,63,10
-8,63,11
-8,63,11
-8,63,11
-10,62,10
-10,60,10
-9,60,10
-10,61,11
-10,61,11
-10,63,11
-11,63,12
-10,62,13
-10,61,12
-10,62,12
-11,62,12
-11,62,12
-10,62,12
-10,63,12
-10,63,12
-9,62,11
-9,62,11
-10,63,10
-9,63,10
-9,62,10
-10,62,10
-10,63,10
-10,63,11
-10,63,11
-10,61,10
-10,61,10
-11,61,10
-11,63,11
-12,63,12
-11,63,12
-11,62,12
-12,61,13
-11,62,13
-10,63,12
-11,63,11
-11,63,10
-11,63,9
-10,63,9
-10,63,9
-10,63,9
-10,62,9
-10,63,9
-10,63,9
-10,61,9
-10,61,10
-10,61,10
-10,61,10
-10,61,10
-10,60,9
-11,61,8
-11,61,8
-11,63,9
-11,66,10
-10,67,10
-10,64,10
-10,60,9
-10,59,8
-9,61,8
-9,62,7
-11,62,7
-12,61,8
-12,62,9
-12,63,10
-12,63,11
-12,64,11
-12,63,11
-13,63,12
-13,62,12
-13,62,12
-12,62,12
-12,63,12
-13,63,11
-12,62,10
-12,62,10
-12,62,10
-12,62,10
-11,62,10
-11,63,9
-10,63,9
-9,63,10
-10,62,8
-10,61,9
-10,61,9
-11,61,9
-11,62,10
-11,62,10
-12,61,10
-12,61,10
-12,60,10
-13,61,10
-13,63,10
-13,64,11
-13,64,10
-13,63,9
-13,63,9
-12,61,10
-12,62,10
-12,62,10
-12,63,10
-12,63,10
-12,62,10
-12,61,9
-11,61,9
-11,62,10
-11,62,10
-11,63,10
-11,63,10
-11,63,10
-11,63,10
-11,62,10
-12,62,10
-12,62,10
-12,62,9
-12,62,9
-12,62,10
-12,61,10
-12,62,10
-12,62,9
-12,63,9
-12,63,9
-11,62,9
-11,62,10
-11,61,10
-10,61,10
-11,62,11
-11,62,11
-11,63,11
-11,63,11
-11,63,11
-11,63,11
-11,62,10
-10,62,10
-10,62,10
-11,62,9
-11,62,8
-11,62,9
-11,62,8
-11,63,9
-10,63,9
-10,62,9
-9,62,10
-9,62,10
-9,62,10
-10,63,10
-10,63,10
-10,63,10
-11,62,9
-11,62,9
-10,63,9
-10,63,9
-10,63,9
-10,62,9
-10,62,9
-10,62,9
-10,62,9
-10,63,9
-10,63,9
-10,62,9
-10,62,9
-10,62,9
-10,63,9
-11,63,9
-11,62,9
-10,62,9
-10,62,9
-11,62,9
-11,62,8
-11,63,9
-11,63,9
-11,62,9
-11,62,9
-11,62,9
-11,63,9
-11,63,9
-11,63,9
-11,63,9
-11,63,9
-11,63,10
-11,63,9
-11,63,9
-10,63,9
-10,62,9
-10,62,9
-10,62,9
-10,63,9
-11,62,9
-10,62,9
-11,63,9
-11,62,9
-11,62,9
-11,62,9
-11,63,9
-12,63,9
-12,63,9
-11,62,9
-11,62,9
-11,62,10
-11,62,9
-11,63,9
-11,63,9
-11,62,9
-11,62,9
-11,62,9
-11,63,9
-11,63,9
-11,62,9
-11,62,9
-11,62,9
-11,62,9
-11,62,9
-11,62,9
-11,62,9
-11,62,9
-11,62,9
-11,62,9
-11,62,9
-11,62,9
-11,62,9
-11,62,9
-11,63,9
-11,62,9
-11,62,9
-11,62,9
-11,62,9
-11,63,9
-11,62,9
-11,62,9
-11,62,9
-11,63,9
-11,63,9
-11,62,9
-11,62,9
-11,62,9
-11,62,9
-11,62,9
-11,63,9
-11,62,9
-11,62,9
-11,62,9
-11,62,9
-11,63,9
-11,62,9
-11,63,9
-11,63,9
-11,62,9
-11,62,8
-11,62,8
-11,62,8
-11,63,8
-11,63,8
-11,63,8
-11,63,9
-11,63,9
-11,63,9
-11,63,9
-11,63,9
-11,62,9
-11,62,9
-11,62,9
-11,62,9
-11,63,9
-11,62,9
-11,62,9
-11,62,9
-11,62,9
-11,63,9
-11,63,9
-11,62,8
-11,63,9
-10,63,9
-11,63,9
-11,62,9
-10,62,9
-11,62,9
-11,62,9
-11,63,9
-11,62,9
-11,62,9
-10,62,8
-11,63,9
-11,63,8
-11,63,9
-11,63,9
-11,62,8
-11,62,9
-11,63,9
-11,63,9
-11,63,9
-11,62,9
-11,63,9
-11,63,9
-11,63,9
-11,63,9
-10,62,8
-11,63,8
-11,62,9
-11,62,9
-11,62,9
-11,62,9
-11,63,9
-11,63,9
-11,63,9
-11,62,9
-10,62,9
-11,62,9
-11,62,9
-11,62,9
-11,63,9
-11,62,9
-11,62,9
-11,62,9
-11,62,9
-11,63,9
-11,62,9
-10,62,9
-10,62,9
-11,62,9
-11,63,9
-11,63,9
-10,63,9
-10,62,9
-10,63,9
-10,63,9
-11,63,8
-11,62,8
-11,63,8
-11,62,9
-11,62,9
-11,62,8
-11,62,8
-11,63,8
-11,62,8
-11,63,8
-11,63,8
-11,62,9
-11,62,9
-11,62,9
-11,63,9
-11,63,9
-11,63,9
-11,63,9
-11,62,9
-11,63,9
-11,63,8
-11,62,8
-11,62,9
-11,62,8
-11,63,8
-11,63,9
-11,63,9
-11,62,9
-11,62,9
-11,62,9
-11,62,9
-11,63,9
-11,63,9
-11,63,9
-11,63,9
-11,63,9
-11,63,9
-10,62,9
-10,62,9
-10,62,9
-11,62,9
-10,62,9
-11,62,9
-11,62,9
-11,62,9
-11,62,9
-11,62,9
-11,63,9
-11,63,9
-11,63,9
-11,63,9
-11,62,9
-10,62,9
-10,62,9
-10,63,10
-10,62,10
-11,63,10
-10,62,10
-10,62,10
-11,62,9
-11,62,9
-11,62,10
-11,62,9
-11,62,9
-11,62,9
-11,62,9
-11,62,9
-11,62,9
-11,62,9
-10,62,9
-10,62,9
-10,62,9
-10,62,10
-10,62,10
-11,63,10
-11,63,10
-11,62,10
-11,63,10
-11,63,9
-11,62,9
-10,62,9
-10,62,9
-10,63,9
-10,63,9
-10,63,9
-10,62,9
-10,62,9
-10,63,9
-10,63,9
-10,63,9
-10,62,9
-11,62,9
-11,62,9
-11,62,9
-11,63,9
-11,62,9
-11,62,9
-11,62,9
-10,62,10
-10,63,10
-10,63,10
-10,63,9
-10,63,9
-10,62,9
-10,62,9
-10,62,9
-10,63,9
-10,63,9
-10,62,9
-10,62,9
-10,62,9
-10,62,9
-11,62,9
-11,63,10
-11,63,9
-11,63,9
-10,62,9
-10,62,9
-10,63,9
-10,63,9
-10,63,9
-10,62,9
-10,62,9
-10,63,9
-11,63,9
-10,63,10
-10,62,9
-11,63,10
-11,62,9
-11,63,9
-11,63,9
-10,63,9
-10,62,9
-10,62,9
-10,62,8
-10,63,9
-10,63,9
-10,62,9
-10,62,9
-10,63,9
-11,63,9
-11,62,9
-11,63,9
-11,62,9
-11,62,9
-11,62,9
-11,63,9
-11,62,10
-11,62,10
-11,63,10
-11,63,11
-11,62,11
-11,62,10
-11,62,10
-11,63,9
-11,62,9
-10,62,8
-10,62,8
-10,63,8
-10,63,8
-9,63,8
-9,62,8
-9,62,8
-10,62,9
-10,62,9
-10,62,9
-11,62,9
-11,62,10
-11,63,10
-11,63,10
-11,63,10
-10,63,9
-10,63,9
-10,62,9
-10,63,8
-10,62,8
-9,62,8
-10,63,9
-10,62,9
-10,63,9
-10,62,9
-10,62,9
-11,62,9
-11,63,10
-11,63,9
-10,63,9
-10,62,9
-10,62,9
-10,63,9
-10,62,9
-10,62,9
-11,62,9
-11,62,9
-11,62,9
-11,63,10
-11,63,10
-11,62,10
-10,63,9
-11,62,9
-10,62,9
-11,63,9
-11,62,9
-10,62,9
-11,62,10
-11,62,9
-11,63,9
-11,63,9
-10,62,9
-10,63,9
-10,62,9
-11,63,9
-10,63,9
-11,62,9
-11,62,9
-11,62,9
-11,63,9
-10,63,9
-10,62,9
-10,62,9
-10,62,9
-11,63,9
-11,63,9
-10,62,9
-11,62,9
-11,63,9
-11,63,10
-11,63,9
-11,62,10
-11,62,10
-11,62,9
-11,63,9
-11,63,9
-11,62,9
-11,62,9
-11,62,9
-11,63,9
-10,63,9
-10,62,9
-10,62,9
-10,63,9
-10,63,9
-10,62,9
-11,62,9
-11,62,9
-11,63,9
-11,62,9
-11,62,9
-11,62,9
-11,62,9
-11,62,9
-11,62,9
-11,63,9
-11,63,9
-11,62,9
-11,63,9
-11,63,9
-10,62,9
-11,62,9
-11,62,9
-11,62,9
-12,63,9
-11,63,9
-11,62,9
-11,62,9
-12,62,9
-11,63,10
-11,63,9
-11,62,9
-10,61,9
-10,61,9
-11,62,9
-11,63,9
-11,63,9
-11,62,9
-11,62,9
-11,62,10
-11,62,10
-11,63,10
-11,63,10
-10,62,10
-11,62,9
-11,62,9
-11,62,9
-11,63,9
-11,63,9
-11,63,8
-11,62,8
-11,62,9
-11,62,8
-11,63,9
-11,63,9
-11,63,10
-11,62,10
-11,62,10
-12,62,9
-11,62,9
-11,63,9
-11,62,9
-11,62,9
-11,62,9
-11,62,9
-11,62,9
-11,62,9
-11,62,9
-11,63,9
-11,62,9
-11,62,9
-11,62,9
-11,62,10
-11,63,10
-11,62,10
-11,62,10
-11,62,9
-11,62,9
-11,62,9
-11,63,9
-11,62,9
-11,62,9
-11,62,9
-11,62,9
-11,62,9
-11,62,9
-11,62,9
-11,62,9
-11,62,10
-11,62,9
-11,62,9
-11,63,9
-11,62,9
-11,62,9
-11,62,9
-11,62,9
-11,62,9
-11,62,9
-11,62,9
-11,62,9
-11,62,9
-11,63,9
-11,62,9
-11,62,10
-11,62,9
-11,62,9
-11,63,9
-11,63,9
-11,62,9
-11,62,9
-11,62,9
-11,62,9
-11,62,9
-11,62,9
-11,62,9
-11,63,9
-11,62,9
-11,62,9
-11,62,8
-11,62,9
-11,62,9
-11,62,9
-11,63,9
-11,62,9
-11,62,9
-11,62,9
-11,63,9
-12,63,10
-12,62,10
-12,63,9
-11,62,9
-11,63,9
-11,62,9
-11,63,9
-11,63,9
-11,62,8
-11,62,9
-11,62,9
-11,63,9
-11,63,9
-11,62,9
-11,62,9
-11,63,9
-11,63,9
-11,62,9
-11,62,9
-11,62,9
-11,62,9
-11,62,9
-11,63,9
-10,62,9
-10,62,9
-11,62,9
-11,62,9
-11,63,9
-11,62,9
-11,62,9
-11,62,9
-11,63,10
-11,63,9
-11,63,10
-11,62,9
-11,62,9
-11,63,9
-11,62,9
-11,62,9
-11,62,9
-11,62,9
-11,62,9
-11,63,9
-11,63,9
-10,62,9
-11,62,9
-11,62,9
-11,62,9
-11,63,9
-11,62,9
-11,62,9
-11,62,9
-11,62,10
-11,63,10
-12,63,9
-11,62,10
-11,62,9
-11,62,10
-11,63,9
-11,62,9
-11,62,10
-11,62,9
-11,62,9
-11,63,9
-11,62,9
-11,62,9
-11,62,9
-10,62,9
-11,63,9
-10,63,9
-10,63,9
-10,63,9
-10,62,9
-10,62,9
-11,62,9
-11,63,9
-11,62,9
-11,62,9
-11,62,9
-11,63,9
-11,63,9
-11,63,9
-11,63,9
-11,62,9
-11,62,9
-11,63,9
-10,63,9
-11,62,9
-11,62,9
-11,62,9
-11,63,9
-11,63,9
-10,63,9
-10,63,9
-10,63,9
-10,63,9
-11,62,9
-11,62,9
-11,62,9
-11,63,9
-11,62,9
-10,62,9
-11,62,9
-11,63,10
-11,63,10
-11,63,9
-11,62,10
-11,62,10
-11,62,9
-11,62,9
-11,63,9
-11,62,9
-10,62,9
-10,63,9
-10,63,9
-10,62,9
-10,62,9
-11,62,9
-11,63,9
-11,63,9
-10,63,9
-10,62,9
-11,62,10
-11,62,10
-11,62,9
-11,63,10
-11,62,9
-11,62,9
-10,62,9
-10,63,9
-10,63,9
-10,63,9
-10,62,8
-10,62,9
-11,62,9
-11,62,9
-11,62,9
-11,62,10
-11,62,10
-11,62,10
-11,62,9
-11,63,9
-11,63,9
-10,63,9
-10,62,9
-10,62,9
-10,63,9
-11,62,9
-11,62,9
-11,62,9
-11,62,9
-11,62,10
-11,62,10
-11,63,10
-11,62,10
-11,63,9
-10,63,9
-10,62,9
-10,62,9
-11,62,9
-11,63,9
-11,62,9
-11,62,9
-11,62,10
-11,62,10
-11,63,9
-11,63,9
-11,63,9
-11,62,9
-11,63,9
-10,62,9
-10,62,9
-10,62,9
-11,62,9
-10,62,9
-10,63,9
-11,63,9
-10,62,9
-10,62,9
-11,62,9
-11,63,9
-11,63,9
-11,62,9
-10,62,9
-11,63,9
-10,63,9
-10,62,9
-10,62,9
-10,63,9
-10,62,9
-11,62,9
-11,62,9
-11,62,9
-11,62,9
-11,63,9
-11,62,9
-11,62,10
-11,62,9
-11,63,9
-11,63,9
-11,62,9
-11,63,9
-10,62,9
-10,62,9
-10,62,9
-11,62,9
-11,63,9
-11,62,9
-11,62,9
-11,62,9
-10,63,9
-11,63,8
-11,62,9
-11,62,9
-10,63,9
-11,62,9
-11,62,9
-11,62,9
-11,62,9
-11,62,9
-11,62,9
-11,62,9
-11,62,9
-11,63,9
-11,62,9
-11,62,9
-11,62,9
-11,62,9
-11,62,9
-11,63,9
-11,62,9
-10,63,9
-10,63,9
-11,63,9
-10,62,9
-10,63,9
-10,62,9
-11,63,9
-11,62,9
-11,62,9
-11,62,9
-11,62,9
-11,63,9
-11,62,9
-11,62,9
-11,62,9
-11,63,9
-11,62,9
-11,62,9
-11,63,9
-10,63,9
-11,63,9
-10,63,9
-10,63,9
-10,63,9
-10,63,9
-10,62,9
-10,62,9
-10,62,9
-11,62,9
-11,62,10
-11,62,9
-10,63,9
-10,63,9
-10,62,9
-10,62,9
-10,62,9
-10,62,9
-10,63,9
-10,63,9
-10,62,9
-10,62,9
-10,62,9
-10,63,9
-10,63,9
-10,63,9
-10,62,9
-10,63,9
-10,63,9
-11,63,9
-10,62,9
-10,62,9
-10,62,9
-10,63,9
-10,63,9
-10,63,9
-10,62,9
-10,62,9
-10,62,9
-10,63,9
-10,62,9
-11,63,9
-11,62,9
-11,62,9
-11,63,9
-10,62,9
-10,62,9
-10,62,9
-10,63,9
-10,63,8
-10,63,8
-10,62,9
-10,62,9
-10,63,9
-11,63,9
-11,63,9
-11,62,9
-11,62,9
-11,62,9
-11,63,10
-11,63,9
-11,63,9
-10,62,9
-10,62,9
-10,63,9
-10,63,9
-10,63,9
-11,62,9
-11,62,9
-11,62,9
-11,63,9
-11,62,9
-11,62,9
-10,62,9
-10,62,9
-11,63,9
-10,63,9
-10,63,9
-10,62,9
-10,62,9
-11,62,9
-11,62,9
-11,63,9
-11,63,10
-11,63,9
-10,62,9
-10,63,9
-10,63,9
-10,63,9
-10,63,9
-10,62,9
-10,62,9
-10,62,9
-10,62,9
-10,62,9
-10,62,9
-10,62,9
-10,62,9
-10,63,9
-10,63,9
