1564619520.00
64.000000
-0.00
-0.00
-0.00
-0.00
-0.00
-0.00
-0.00
-0.00
-0.00
-0.00
0.00
0.01
0.01
-0.00
-0.03
-0.05
-0.05
0.00
0.13
0.36
0.66
1.01
1.37
1.72
2.06
2.40
2.79
3.24
3.80
4.42
5.06
5.66
6.20
6.68
7.15
7.68
8.31
9.14
10.09
11.04
11.88
12.56
13.14
13.76
14.65
15.96
17.91
20.32
22.90
25.38
27.58
29.57
31.68
34.32
37.81
42.54
48.15
54.10
59.83
64.97
69.58
74.14
79.34
85.71
93.76
103.00
112.62
121.73
129.77
136.75
143.30
150.75
157.77
166.64
177.95
191.79
206.97
220.57
228.25
225.36
208.53
176.87
132.76
80.05
23.07
-34.94
-92.44
-149.16
-205.23
-260.37
-313.74
-363.87
-409.83
-450.91
-486.50
-515.74
-537.23
-549.22
-549.96
-538.37
-514.21
-478.67
-433.88
-382.45
-327.02
-269.84
-212.63
-156.66
-102.95
-52.37
-5.91
35.58
71.42
101.35
125.51
144.41
158.73
169.18
176.36
180.67
182.39
181.79
179.15
174.84
169.26
162.80
155.78
148.42
140.85
133.15
125.39
117.64
109.97
102.46
95.14
88.02
81.08
74.32
67.79
61.56
55.70
50.28
45.29
40.63
36.18
31.82
27.52
23.34
19.44
16.00
13.13
10.80
8.81
6.88
4.76
2.35
-0.20
-2.59
-4.48
-5.65
-6.17
-6.37
-6.74
-7.69
-9.37
-11.56
-13.77
-15.48
-16.39
-16.51
-16.19
-15.94
-16.19
-17.31
-19.52
-22.86
-26.92
-30.60
-32.21
-29.90
-22.54
-10.44
4.42
19.08
30.68
37.60
39.86
38.79
36.09
33.01
30.03
27.07
24.09
21.36
19.45
18.86
19.57
21.00
22.22
22.32
20.93
18.27
15.06
12.11
9.97
8.74
8.09
7.56
6.79
5.71
4.49
3.37
2.56
2.12
2.00
2.12
2.42
2.84
3.31
3.69
3.82
3.64
3.24
2.85
2.81
3.41
4.81
6.98
9.74
12.73
15.59
17.95
19.49
19.97
19.29
17.53
14.87
11.69
8.20
4.64
1.22
-1.95
-4.85
-7.52
-9.99
-12.28
-14.24
-15.73
-16.58
-16.74
-16.30
-15.55
-14.73
-14.06
-13.54
-13.09
-12.67
-12.25
-11.86
-11.46
-10.91
-10.08
-8.90
-7.52
-6.22
-5.33
-4.99
-5.11
-5.45
-5.77
-5.86
-5.72
-5.40
-5.01
-4.60
-4.22
-3.83
-3.45
-3.04
-2.53
-1.88
-1.02
0.09
1.43
2.92
4.37
5.52
6.14
6.10
5.42
4.35
3.17
2.17
1.57
1.41
1.68
2.25
2.95
3.56
3.87
3.83
3.47
3.00
2.66
2.60
2.74
2.92
2.93
2.72
2.37
2.00
1.69
1.40
1.00
0.38
-0.46
-1.44
-2.41
-3.27
-4.01
-4.68
-5.38
-6.23
-7.28
-8.56
-10.01
-11.53
-12.93
-14.01
-14.55
-14.37
-13.37
-11.54
-9.05
-6.20
-3.36
-0.86
1.14
2.67
3.90
4.97
5.94
6.71
7.19
7.34
7.23
7.06
7.01
7.12
7.29
7.30
7.02
6.49
5.91
5.53
5.43
5.50
5.52
5.34
4.95
4.48
4.04
3.61
3.00
2.02
0.63
-1.00
-2.52
-3.64
-4.29
-4.63
-4.93
-5.38
-6.05
-6.89
-7.88
-9.09
-10.64
-12.54
-14.64
-16.55
-17.76
-17.86
-16.68
-14.38
-11.43
-8.35
-5.54
-3.15
-1.05
0.92
2.87
4.73
6.28
7.35
7.87
7.99
7.95
7.91
7.93
7.92
7.79
7.54
7.28
7.16
7.26
7.54
7.85
7.97
7.73
7.04
5.97
4.71
3.55
2.75
2.46
2.62
3.03
3.36
3.30
2.62
1.35
-0.31
-2.07
-3.64
-4.92
-5.99
-7.12
-8.62
-10.66
-13.15
-15.70
-17.78
-18.93
-18.96
-17.93
-16.07
-13.58
-10.65
-7.41
-4.04
-0.80
2.03
4.25
5.79
6.71
7.17
7.29
7.19
7.01
6.85
6.89
7.21
7.76
8.35
8.72
8.69
8.20
7.32
6.25
5.19
4.32
3.77
3.56
3.61
3.68
3.51
2.82
1.46
-0.51
-2.90
-5.41
-7.73
-9.63
-10.98
-11.79
-12.17
-12.35
-12.61
-13.21
-14.32
-15.98
-18.16
-20.80
-23.75
-26.77
-29.46
-31.26
-31.61
-30.14
-26.85
-22.14
-16.67
-11.12
-6.01
-1.55
2.22
5.27
7.54
8.91
9.39
9.18
8.70
8.42
8.72
9.71
11.24
12.99
14.70
16.19
17.44
18.49
19.39
20.18
20.86
21.45
21.91
22.12
21.93
21.16
19.78
17.89
15.74
13.59
11.66
10.03
8.67
7.46
6.31
5.09
3.69
2.06
0.12
-2.07
-4.42
-6.74
-8.85
-10.58
-11.81
-12.38
-12.15
-11.00
-8.92
-6.04
-2.74
0.53
3.32
5.41
6.78
7.60
8.01
8.04
7.69
6.97
6.03
5.18
4.72
4.81
5.33
5.97
6.43
6.55
6.38
6.11
5.87
5.74
5.68
5.62
5.50
5.28
4.89
4.26
3.31
2.03
0.48
-1.30
-3.25
-5.35
-7.57
-9.81
-11.85
-13.46
-14.40
-14.52
-13.71
-11.99
-9.48
-6.40
-3.07
0.17
3.03
5.34
7.08
8.29
9.06
9.46
9.50
9.21
8.64
7.91
7.14
6.49
6.02
5.76
5.63
5.51
5.27
4.84
4.22
3.45
2.57
1.53
0.25
-1.25
-2.86
-4.31
-5.37
-5.97
-6.26
-6.57
-7.24
-8.43
-10.01
-11.64
-12.88
-13.39
-12.96
-11.59
-9.41
-6.63
-3.48
-0.22
2.88
5.59
7.69
9.03
9.49
9.10
7.97
6.33
4.52
2.89
1.78
1.34
1.48
1.91
2.23
2.08
1.27
-0.09
-1.69
-3.10
-3.94
-4.05
-3.51
-2.65
-1.92
-1.73
-2.34
-3.83
-6.08
-8.81
-11.66
-14.23
-16.07
-16.77
-16.01
-13.69
-10.03
-5.55
-1.02
2.81
5.45
6.79
7.07
6.73
6.13
5.45
4.74
3.98
3.27
2.86
2.97
3.69
4.85
6.06
6.87
7.07
6.63
5.80
4.84
3.90
3.05
2.25
1.47
0.65
-0.30
-1.56
-3.28
-5.54
-8.12
-10.59
-12.36
-12.93
-12.08
-9.93
-6.88
-3.39
0.11
3.34
6.14
8.44
10.15
11.21
11.60
11.34
10.63
9.66
8.64
7.72
6.93
6.25
5.61
4.98
4.34
3.71
3.10
2.53
1.97
1.37
0.64
-0.29
-1.48
-2.94
-4.60
-6.35
-8.11
-9.84
-11.57
-13.26
-14.81
-15.94
-16.32
-15.70
-13.98
-11.31
-8.01
-4.46
-1.03
2.00
4.46
6.28
7.46
8.05
8.14
7.90
7.49
7.07
6.74
6.49
6.28
5.97
5.48
4.80
4.03
3.32
2.80
2.51
2.34
2.05
1.42
0.29
-1.33
-3.32
-5.54
-7.85
-10.18
-12.46
-14.54
-16.16
-16.97
-16.63
-14.99
-12.11
-8.28
-3.95
0.38
4.26
7.39
9.66
11.15
12.08
12.72
13.25
13.76
14.20
14.46
14.48
14.25
13.90
13.59
13.46
13.56
13.87
14.27
14.68
14.95
14.99
14.71
14.10
13.12
11.78
10.10
8.12
5.94
3.70
1.53
-0.46
-2.25
-3.87
-5.34
-6.66
-7.80
-8.68
-9.38
-10.11
-11.15
-12.79
-15.05
-17.61
-19.85
-21.04
-20.63
-18.46
-14.84
-10.45
-6.10
-2.45
0.19
1.90
3.07
4.16
5.49
7.11
8.82
10.32
11.42
12.09
12.50
12.80
13.04
13.12
12.92
12.38
11.66
11.05
10.84
11.14
11.82
12.55
12.97
12.88
12.32
11.48
10.60
9.82
9.09
8.30
7.32
6.18
5.04
4.07
3.36
2.81
2.16
1.10
-0.48
-2.42
-4.36
-5.89
-6.76
-6.98
-6.80
-6.66
-6.98
-8.09
-10.09
-12.85
-15.97
-18.87
-20.93
-21.68
-20.97
-18.99
-16.12
-12.79
-9.35
-6.11
-3.29
-1.10
0.33
1.09
1.51
1.98
2.82
4.00
5.22
6.08
6.36
6.17
5.89
5.90
6.40
7.34
8.47
9.48
10.16
10.41
10.23
9.70
8.94
8.12
7.33
6.63
5.97
5.19
4.21
3.02
1.79
0.75
0.05
-0.27
-0.34
-0.35
-0.49
-0.84
-1.42
-2.23
-3.18
-4.21
-5.23
-6.19
-7.08
-7.96
-8.93
-10.07
-11.37
-12.70
-13.86
-14.63
-14.83
-14.34
-13.15
-11.30
-8.95
-6.33
-3.68
-1.26
0.78
2.38
3.58
4.48
5.18
5.72
6.15
6.45
6.62
6.65
6.57
6.42
6.31
6.39
6.73
7.34
8.06
8.67
8.94
8.72
7.98
6.84
5.53
4.29
3.36
2.92
3.03
3.55
4.20
4.61
4.43
3.55
2.14
0.55
-0.84
-1.83
-2.46
-2.94
-3.45
-4.08
-4.79
-5.51
-6.22
-7.05
-8.15
-9.60
-11.31
-13.08
-14.72
-16.06
-17.00
-17.38
-17.05
-15.89
-13.94
-11.48
-8.94
-6.76
-5.07
-3.74
-2.48
-0.98
0.79
2.60
4.08
4.96
5.23
5.12
4.98
5.04
5.38
5.87
6.34
6.65
6.84
6.99
7.19
7.42
7.54
7.44
7.11
6.67
6.35
6.31
6.51
6.71
6.50
5.56
3.86
1.67
-0.48
-2.06
-2.77
-2.68
-2.05
-1.33
-0.83
-0.75
-1.12
-1.87
-2.91
-4.15
-5.47
-6.70
-7.77
-8.59
-9.25
-9.87
-10.64
-11.64
-12.90
-14.31
-15.65
-16.64
-16.99
-16.50
-15.11
-13.00
-10.46
-7.86
-5.45
-3.33
-1.50
0.10
1.49
2.58
3.28
3.56
3.51
3.34
3.34
3.69
4.44
5.44
6.43
7.12
7.35
7.12
6.55
5.86
5.23
4.79
4.55
4.46
4.43
4.37
4.21
3.90
3.44
2.84
2.17
1.41
0.61
-0.22
-1.10
-2.00
-2.94
-3.89
-4.87
-5.87
-6.92
-8.00
-9.10
-10.19
-11.21
-12.13
-12.90
-13.49
-13.79
-13.69
-13.03
-11.74
-9.87
-7.61
-5.24
-3.01
-1.03
0.68
2.22
3.65
4.91
5.83
6.22
5.96
5.09
3.80
2.41
1.24
0.57
0.54
1.11
2.14
3.36
4.51
5.37
5.81
5.80
5.34
4.47
3.25
1.81
0.32
-1.01
-2.01
-2.64
-2.96
-3.19
-3.58
-4.30
-5.43
-6.89
-8.54
-10.30
-12.14
-14.05
-15.98
-17.75
-19.05
-19.56
-19.06
-17.51
-15.14
-12.36
-9.53
-6.94
-4.64
-2.59
-0.70
1.05
2.61
3.87
4.74
5.21
5.29
5.08
4.72
4.34
4.10
4.14
4.55
5.35
6.45
7.63
8.63
9.21
9.26
8.85
8.19
7.49
6.91
6.51
6.15
5.68
4.95
3.89
2.60
1.19
-0.22
-1.55
-2.81
-4.04
-5.27
-6.49
-7.73
-9.01
-10.38
-11.90
-13.59
-15.34
-16.96
-18.15
-18.58
-17.97
-16.19
-13.34
-9.76
-5.91
-2.27
0.83
3.26
5.06
6.35
7.22
7.70
7.86
7.79
7.69
7.80
8.27
9.11
10.15
11.12
11.77
11.99
11.83
11.47
11.11
10.85
10.68
10.50
10.17
9.62
8.85
7.93
6.91
5.84
4.72
3.54
2.30
1.05
-0.16
-1.27
-2.31
-3.31
-4.38
-5.56
-6.93
-8.49
-10.26
-12.16
-14.05
-15.69
-16.82
-17.24
-16.86
-15.73
-13.99
-11.80
-9.27
-6.46
-3.40
-0.18
3.00
5.92
8.33
10.09
11.17
11.65
11.67
11.36
10.87
10.31
9.77
9.33
9.03
8.95
9.13
9.60
10.29
11.07
11.71
12.00
11.80
11.13
10.10
8.96
7.91
7.01
6.15
5.13
3.79
2.18
0.49
-0.97
-2.07
-2.84
-3.56
-4.53
-5.90
-7.63
-9.52
-11.39
-13.13
-14.69
-15.91
-16.53
-16.18
-14.58
-11.78
-8.18
-4.41
-1.06
1.51
3.32
4.55
5.53
6.44
7.34
8.19
8.89
9.35
9.52
9.44
9.22
9.01
8.98
9.21
9.67
10.24
10.73
10.95
10.81
10.28
9.44
8.44
7.42
6.53
5.81
5.19
4.50
3.60
2.41
0.99
-0.49
-1.89
-3.19
-4.48
-5.92
-7.60
-9.51
-11.51
-13.44
-15.24
-16.94
-18.57
-20.07
-21.13
-21.32
-20.23
-17.76
-14.21
-10.21
-6.48
-3.46
-1.19
0.68
2.56
4.65
6.79
8.58
9.69
10.03
9.87
9.62
9.65
10.03
10.63
11.19
11.55
11.67
11.65
11.61
11.58
11.48
11.25
10.85
10.37
9.91
9.58
9.34
9.10
8.68
7.93
6.80
5.31
3.61
1.80
-0.02
-1.75
-3.41
-4.95
-6.34
-7.57
-8.65
-9.65
-10.75
-12.13
-13.92
-16.10
-18.42
-20.39
-21.44
-21.11
-19.22
-15.99
-11.96
-7.72
-3.80
-0.44
2.32
4.60
6.49
8.04
9.17
9.83
10.02
9.82
9.42
9.04
8.88
9.09
9.70
10.60
11.59
12.40
12.86
12.94
12.81
12.68
12.70
12.81
12.75
12.28
11.30
9.98
8.66
7.67
7.09
6.73
6.20
5.17
3.58
1.67
-0.21
-1.78
-3.03
-4.15
-5.37
-6.82
-8.44
-10.11
-11.76
-13.47
-15.35
-17.38
-19.31
-20.64
-20.83
-19.55
-16.85
-13.18
-9.15
-5.30
-1.94
0.89
3.23
5.15
6.57
7.40
7.58
7.24
6.64
6.12
5.93
6.17
6.75
7.48
8.18
8.69
8.99
9.15
9.28
9.51
9.86
10.25
10.47
10.29
9.57
8.36
6.88
5.41
4.13
3.04
2.00
0.85
-0.45
-1.79
-3.01
-4.00
-4.86
-5.87
-7.33
-9.43
-12.07
-14.91
-17.42
-19.10
-19.64
-18.89
-16.98
-14.15
-10.69
-6.97
-3.32
-0.04
2.64
4.61
5.94
6.81
7.43
7.89
8.18
8.19
7.86
7.23
6.52
5.97
5.72
5.76
5.93
6.10
6.25
6.50
6.97
7.64
8.27
8.49
7.99
6.72
4.91
2.97
1.25
-0.10
-1.14
-2.03
-2.89
-3.77
-4.71
-5.79
-7.20
-9.12
-11.62
-14.58
-17.67
-20.45
-22.45
-23.35
-22.96
-21.26
-18.42
-14.74
-10.60
-6.40
-2.46
0.95
3.70
5.77
7.23
8.24
9.00
9.67
10.31
10.91
11.35
11.51
11.32
10.81
10.10
9.39
8.91
8.81
9.15
9.85
10.71
11.44
11.77
11.53
10.72
9.45
7.90
6.32
4.93
3.83
3.01
2.30
1.45
0.29
-1.25
-3.06
-4.95
-6.78
-8.51
-10.26
-12.13
-14.14
-16.11
-17.76
-18.80
-19.07
-18.58
-17.33
-15.33
-12.57
-9.11
-5.18
-1.19
2.42
5.29
7.29
8.52
9.16
9.38
9.29
9.00
8.70
8.63
9.07
10.09
11.49
12.85
13.66
13.66
12.94
11.88
10.99
10.60
10.74
11.14
11.40
11.20
10.47
9.38
8.21
7.21
6.39
5.57
4.45
2.79
0.61
-1.82
-4.03
-5.63
-6.45
-6.69
-6.82
-7.35
-8.62
-10.68
-13.35
-16.28
-19.05
-21.27
-22.52
-22.44
-20.87
-17.92
-14.02
-9.76
-5.69
-2.19
0.62
2.85
4.68
6.24
7.57
8.66
9.45
9.85
9.83
9.38
8.59
7.75
7.14
7.03
7.45
8.20
8.99
9.60
9.95
10.12
10.16
10.04
9.58
8.63
7.21
5.57
4.09
3.04
2.44
2.05
1.45
0.36
-1.24
-3.11
-4.93
-6.44
-7.59
-8.56
-9.57
-10.88
-12.56
-14.50
-16.42
-17.90
-18.55
-18.09
-16.46
-13.79
-10.45
-6.87
-3.46
-0.52
1.84
3.66
5.01
5.98
6.59
6.85
6.85
6.73
6.67
6.77
7.04
7.36
7.57
7.63
7.60
7.62
7.83
8.21
8.65
8.99
9.07
8.84
8.31
7.51
6.48
5.22
3.79
2.25
0.72
-0.76
-2.12
-3.33
-4.32
-5.00
-5.34
-5.46
-5.65
-6.26
-7.63
-9.87
-12.81
-16.05
-19.07
-21.35
-22.52
-22.41
-21.02
-18.54
-15.29
-11.66
-8.10
-4.95
-2.39
-0.39
1.26
2.81
4.39
5.99
7.50
8.73
9.58
10.08
10.32
10.42
10.50
10.59
10.71
10.83
10.85
10.68
10.19
9.30
8.05
6.62
5.19
3.94
2.90
2.02
1.17
0.30
-0.61
-1.49
-2.33
-3.13
-3.98
-4.93
-6.03
-7.25
-8.61
-10.15
-11.90
-13.82
-15.74
-17.32
-18.20
-18.08
-16.85
-14.58
-11.49
-7.88
-4.06
-0.39
2.82
5.31
6.94
7.81
8.13
8.18
8.20
8.30
8.47
8.62
8.68
8.61
8.44
8.21
7.93
7.59
7.15
6.63
6.09
5.60
5.24
4.93
4.48
3.67
2.41
0.79
-0.91
-2.37
-3.39
-4.06
-4.57
-5.19
-6.05
-7.13
-8.37
-9.70
-11.09
-12.40
-13.42
-13.75
-13.06
-11.28
-8.65
-5.69
-2.90
-0.58
1.30
3.01
4.79
6.69
8.54
10.03
10.94
11.24
11.14
10.92
10.80
10.82
10.87
10.77
10.42
9.85
9.19
8.61
8.26
8.16
8.18
8.11
7.74
6.91
5.57
3.84
1.91
0.00
-1.75
-3.36
-4.97
-6.76
-8.83
-11.12
-13.40
-15.30
-16.50
-16.76
-15.99
-14.24
-11.68
-8.54
-5.12
-1.72
1.34
3.79
5.47
6.37
6.62
6.44
6.03
5.50
4.88
4.14
3.29
2.38
1.58
1.02
0.76
0.76
0.88
1.01
1.14
1.31
1.58
1.93
2.23
2.31
2.01
1.29
0.22
-1.08
-2.51
-4.02
-5.62
-7.40
-9.39
-11.53
-13.66
-15.47
-16.71
-17.12
-16.60
-15.20
-13.10
-10.62
-8.06
-5.71
-3.77
-2.31
-1.30
-0.65
-0.21
0.08
0.28
0.35
0.26
0.04
-0.21
-0.29
-0.09
0.42
1.11
1.80
2.33
2.65
2.81
2.90
2.95
2.89
2.58
1.88
0.78
-0.55
-1.83
-2.81
-3.36
-3.63
-3.89
-4.42
-5.39
-6.73
-8.23
-9.61
-10.64
-11.21
-11.24
-10.66
-9.38
-7.33
-4.56
-1.22
2.38
5.91
9.10
11.81
14.02
15.76
17.06
17.94
18.40
18.42
17.99
17.14
15.98
14.70
13.55
12.76
12.46
12.57
12.91
13.25
13.41
13.30
12.95
12.40
11.73
10.99
10.23
9.48
8.75
7.97
7.06
5.95
4.67
3.26
1.80
0.33
-1.12
-2.50
-3.73
-4.77
-5.70
-6.73
-8.14
-10.10
-12.51
-14.90
-16.63
-17.08
-16.02
-13.63
-10.44
-7.07
-3.98
-1.30
1.14
3.55
6.10
8.74
11.20
13.18
14.49
15.15
15.39
15.53
15.77
16.11
16.40
16.44
16.15
15.65
15.22
15.12
15.46
16.12
16.79
17.13
16.92
16.12
14.93
13.67
12.63
11.93
11.53
11.22
10.79
10.15
9.36
8.63
8.16
8.09
8.38
8.92
9.53
10.03
10.36
10.50
10.53
10.68
11.26
12.62
14.96
18.27
22.23
26.32
29.96
32.76
34.56
35.47
35.75
35.65
35.39
35.02
34.52
33.83
32.82
31.40
29.48
26.94
23.70
19.70
14.90
9.40
3.39
-2.82
-8.87
-14.42
-19.25
-23.27
-26.56
-29.32
-31.77
-34.06
-36.22
-38.05
-39.25
-39.56
-38.95
-37.67
-36.28
-35.32
-35.14
-35.70
-36.67
-37.63
-38.32
-38.68
-38.78
-38.56
-37.71
-35.79
-32.49
-27.84
-22.32
-16.69
-11.71
-7.90
-5.40
-4.04
-3.48
-3.30
-3.17
-2.84
-2.27
-1.57
-0.92
-0.50
-0.40
-0.67
-1.28
-2.26
-3.64
-5.42
-7.43
-9.40
-10.96
-11.86
-12.05
-11.69
-11.06
-10.43
-9.99
-9.80
-9.90
-10.29
-11.01
-11.98
-13.10
-14.16
-14.93
-15.28
-15.16
-14.71
-14.18
-13.83
-13.83
-14.15
-14.57
-14.77
-14.43
-13.42
-11.80
-9.76
-7.52
-5.22
-2.93
-0.71
1.35
3.05
4.23
4.86
5.09
5.18
5.39
5.84
6.44
6.94
7.11
6.82
6.14
5.31
4.59
4.20
4.28
4.80
5.69
6.82
8.12
9.49
10.84
12.03
12.93
13.43
13.51
13.26
12.79
12.25
11.69
11.06
10.27
9.20
7.79
6.15
4.55
3.31
2.75
2.98
3.91
5.19
6.34
6.98
6.91
6.23
5.29
4.59
4.61
5.66
7.79
10.72
13.99
17.00
19.26
20.38
20.19
18.70
16.10
12.73
9.09
5.79
3.40
2.36
2.81
4.50
6.85
9.09
10.54
10.83
10.07
8.82
7.87
7.91
9.29
11.96
15.54
19.52
23.43
26.83
29.23
30.01
28.51
24.24
17.19
7.99
-2.20
-12.00
-20.25
-26.40
-30.56
-33.35
-35.60
-37.92
-40.53
-43.09
-44.95
-45.36
-43.84
-40.43
-35.73
-30.78
-26.72
-24.39
-23.98
-24.99
-26.28
-26.47
-24.33
-19.01
-10.36
0.97
13.52
25.09
33.29
36.22
33.21
25.24
14.58
3.91
-4.82
-11.21
-16.47
-22.71
-31.70
-43.95
-58.28
-72.09
-82.08
-85.31
-80.11
-66.68
-47.35
-26.04
-7.23
5.40
10.06
7.15
-1.06
-11.64
-22.00
-30.42
-36.15
-38.93
-38.75
-35.84
-30.81
-24.80
-19.32
-15.65
-14.30
-14.88
-16.23
-16.98
-16.16
-13.54
-9.56
-5.12
-1.18
1.54
2.75
2.69
1.95
1.29
1.31
2.21
3.81
5.59
6.97
7.54
7.25
6.26
4.89
3.41
1.97
0.59
-0.78
-2.22
-3.78
-5.46
-7.22
-8.98
-10.70
-12.41
-14.21
-16.25
-18.58
-21.10
-23.54
-25.44
-26.30
-25.74
-23.63
-20.24
-16.12
-11.97
-8.38
-5.59
-3.45
-1.61
0.32
2.46
4.65
6.53
7.81
8.40
8.48
8.38
8.40
8.63
8.99
9.28
9.31
9.08
8.65
8.19
7.81
7.55
7.32
6.91
6.09
4.66
2.53
-0.15
-3.08
-5.84
-8.12
-9.81
-11.14
-12.50
-14.32
-16.89
-20.21
-24.10
-28.21
-32.16
-35.50
-37.79
-38.62
-37.73
-35.13
-31.13
-26.24
-21.02
-15.94
-11.22
-6.93
-3.09
0.32
3.22
5.53
7.20
8.25
8.80
9.04
9.22
9.53
10.09
10.85
11.74
12.63
13.45
14.23
15.04
15.93
16.88
17.81
18.55
18.98
19.00
18.64
17.96
17.08
16.06
14.99
13.88
12.71
11.39
9.77
7.65
4.85
1.22
-3.28
-8.51
-14.18
-19.74
-24.43
-27.44
-28.08
-25.98
-21.30
-14.73
-7.30
-0.11
6.05
10.82
14.30
16.84
18.76
20.22
21.16
21.43
20.89
19.61
17.78
15.77
13.92
12.49
11.55
10.99
10.60
10.15
9.43
8.39
7.07
5.55
3.87
2.02
0.05
-1.94
-3.73
-5.05
-5.75
-5.85
-5.58
-5.27
-5.28
-5.87
-7.17
-9.27
-12.15
-15.69
-19.48
-22.81
-24.71
-24.26
-20.95
-14.90
-6.86
2.03
10.69
18.34
24.71
29.89
34.16
37.70
40.63
42.98
44.84
46.35
47.70
48.88
49.73
49.92
49.16
47.36
44.71
41.61
38.54
35.94
34.02
32.78
31.94
31.08
29.70
27.38
23.97
19.65
14.88
10.24
6.13
2.63
-0.43
-3.36
-6.43
-9.86
-13.88
-18.64
-24.08
-29.68
-34.37
-36.75
-35.65
-30.67
-22.47
-12.50
-2.40
6.64
14.28
20.80
26.73
32.39
37.72
42.29
45.69
47.68
48.31
47.88
46.81
45.54
44.46
43.81
43.67
43.81
43.79
43.03
41.04
37.52
32.56
26.53
19.97
13.47
7.44
2.16
-2.30
-5.94
-8.91
-11.41
-13.68
-15.95
-18.40
-21.14
-24.22
-27.65
-31.33
-35.03
-38.42
-41.10
-42.73
-43.06
-42.02
-39.57
-35.69
-30.40
-23.88
-16.49
-8.81
-1.47
5.07
10.64
15.32
19.28
22.57
25.03
26.39
26.44
25.22
23.04
20.44
17.97
16.04
14.79
14.08
13.58
12.87
11.63
9.69
7.12
4.19
1.20
-1.51
-3.74
-5.40
-6.48
-7.09
-7.33
-7.36
-7.31
-7.42
-7.94
-9.14
-11.22
-14.20
-17.86
-21.65
-24.85
-26.72
-26.70
-24.54
-20.36
-14.53
-7.58
-0.10
7.32
14.11
19.83
24.22
27.25
29.10
30.08
30.48
30.49
30.16
29.47
28.36
26.80
24.84
22.52
19.97
17.38
15.01
13.09
11.78
11.05
10.67
10.35
9.78
8.81
7.46
5.90
4.30
2.77
1.31
-0.22
-1.97
-3.99
-6.18
-8.24
-9.75
-10.25
-9.46
-7.36
-4.22
-0.55
3.08
6.21
8.51
9.88
10.34
9.98
9.00
7.60
6.00
4.37
2.81
1.34
-0.06
-1.32
-2.34
-2.97
-3.09
-2.71
-1.99
-1.20
-0.62
-0.48
-0.87
-1.76
-3.05
-4.56
-6.20
-7.95
-9.86
-12.08
-14.68
-17.69
-20.98
-24.29
-27.25
-29.36
-30.11
-29.06
-26.03
-21.12
-14.84
-7.88
-1.02
5.09
10.04
13.67
15.97
17.08
17.23
16.73
15.93
15.19
14.70
14.49
14.39
14.16
13.56
12.54
11.19
9.75
8.48
7.49
6.74
6.01
5.11
3.96
2.64
1.40
0.38
-0.45
-1.41
-2.93
-5.44
-9.10
-13.78
-19.01
-24.07
-28.11
-30.35
-30.19
-27.41
-22.28
-15.54
-8.19
-1.24
4.61
9.08
12.29
14.55
16.12
17.07
17.35
16.93
15.93
14.64
13.40
12.43
11.73
11.12
10.33
9.25
8.02
6.94
6.39
6.53
7.26
8.18
8.76
8.54
7.28
5.12
2.45
-0.20
-2.42
-4.10
-5.41
-6.75
-8.52
-10.95
-14.05
-17.57
-21.08
-24.05
-25.89
-26.04
-24.15
-20.17
-14.52
-8.00
-1.58
3.83
7.73
10.07
11.19
11.58
11.59
11.36
10.83
9.94
8.69
7.28
5.94
4.89
4.22
3.90
3.83
3.92
4.10
4.36
4.71
5.20
5.86
6.61
7.24
7.46
6.98
5.72
3.83
1.70
-0.27
-1.92
-3.37
-5.01
-7.24
-10.28
-14.01
-18.06
-21.89
-24.88
-26.49
-26.28
-24.07
-19.99
-14.50
-8.29
-2.17
3.21
7.46
10.48
12.42
13.55
14.22
14.65
14.95
15.08
14.91
14.39
13.60
12.79
12.26
12.20
12.56
13.09
13.38
13.17
12.41
11.26
9.99
8.80
7.75
6.73
5.58
4.21
2.62
0.83
-1.19
-3.51
-6.22
-9.22
-12.28
-15.01
-17.10
-18.49
-19.42
-20.34
-21.64
-23.44
-25.47
-27.14
-27.77
-26.83
-24.10
-19.72
-14.11
-7.78
-1.24
5.14
11.18
16.83
22.05
26.73
30.65
33.54
35.21
35.56
34.67
32.74
30.06
27.01
23.95
21.24
19.12
17.65
16.68
15.89
14.91
13.44
11.36
8.66
5.57
2.37
-0.57
-2.99
-4.78
-6.11
-7.32
-8.84
-11.00
-13.90
-17.32
-20.83
-23.96
-26.36
-27.95
-28.90
-29.54
-30.28
-31.45
-33.18
-35.31
-37.36
-38.68
-38.54
-36.50
-32.49
-26.91
-20.50
-14.10
-8.45
-3.92
-0.55
1.92
3.79
5.29
6.43
7.16
7.42
7.29
7.00
6.86
7.11
7.81
8.78
9.70
10.19
9.97
8.98
7.40
5.59
3.98
2.89
2.42
2.39
2.39
1.92
0.57
-1.85
-5.36
-9.73
-14.59
-19.37
-23.37
-25.95
-26.71
-25.76
-23.76
-21.71
-20.57
-20.87
-22.49
-24.70
-26.50
-27.05
-25.84
-22.82
-18.23
-12.51
-6.19
0.12
5.82
10.39
13.57
15.41
16.23
16.46
16.52
16.65
16.96
17.43
18.01
18.62
19.11
19.31
19.07
18.35
17.30
16.17
15.21
14.60
14.33
14.26
14.23
14.07
13.66
12.88
11.61
9.74
7.30
4.47
1.57
-1.13
-3.54
-5.86
-8.35
-11.15
-14.01
-16.22
-16.93
-15.46
-11.72
-6.25
-0.07
5.76
10.45
13.67
15.52
16.33
16.47
16.24
15.82
15.28
14.66
14.03
13.47
13.05
12.75
12.43
11.93
11.13
10.11
9.06
8.20
7.58
6.98
6.08
4.56
2.33
-0.37
-3.16
-5.72
-7.94
-9.95
-12.04
-14.46
-17.25
-20.25
-23.11
-25.39
-26.67
-26.70
-25.42
-22.99
-19.71
-15.89
-11.77
-7.56
-3.46
0.30
3.44
5.79
7.31
8.17
8.59
8.75
8.66
8.18
7.17
5.67
3.95
2.44
1.56
1.45
1.93
2.51
2.65
1.94
0.37
-1.77
-4.01
-5.93
-7.36
-8.47
-9.62
-11.15
-13.26
-15.86
-18.74
-21.53
-23.86
-25.38
-25.76
-24.79
-22.38
-18.65
-13.92
-8.72
-3.60
0.90
4.39
6.73
7.94
8.26
7.98
7.38
6.57
5.59
4.42
3.06
1.66
0.39
-0.61
-1.32
-1.87
-2.44
-3.15
-4.04
-5.03
-6.03
-7.01
-7.98
-8.99
-10.12
-11.45
-13.02
-14.94
-17.24
-19.83
-22.39
-24.40
-25.24
-24.38
-21.56
-16.91
-10.91
-4.27
2.25
7.95
12.36
15.32
16.93
17.53
17.48
17.07
16.39
15.36
13.96
12.29
10.69
9.54
9.08
9.26
9.71
9.97
9.66
8.64
7.01
5.08
3.15
1.44
0.03
-1.12
-2.17
-3.32
-4.75
-6.64
-9.08
-11.99
-15.13
-17.98
-19.85
-20.08
-18.22
-14.29
-8.81
-2.62
3.39
8.60
12.75
15.85
18.06
19.45
20.04
19.88
19.10
17.97
16.78
15.67
14.62
13.50
12.13
10.44
8.55
6.68
5.06
3.84
2.99
2.32
1.55
0.44
-1.11
-2.99
-4.92
-6.57
-7.79
-8.58
-9.19
-9.95
-11.17
-12.95
-15.16
-17.38
-19.00
-19.37
-17.99
-14.77
-10.02
-4.45
1.06
5.75
9.21
11.39
12.53
12.91
12.78
12.21
11.23
9.89
8.33
6.73
5.27
4.07
3.10
2.29
1.57
0.94
0.46
0.19
0.12
0.08
-0.17
-0.79
-1.75
-2.82
-3.68
-4.16
-4.28
-4.32
-4.60
-5.33
-6.54
-8.12
-9.99
-12.10
-14.33
-16.38
-17.69
-17.60
-15.58
-11.56
-6.05
0.02
5.68
10.29
13.69
16.11
17.93
19.40
20.56
21.30
21.50
21.22
20.64
20.02
19.55
19.29
19.17
19.06
18.87
18.62
18.39
18.24
18.21
18.22
18.03
17.38
16.05
14.02
11.51
8.89
6.60
4.91
3.79
2.92
1.86
0.22
-2.04
-4.63
-7.08
-9.00
-10.25
-11.03
-11.66
-12.42
-13.40
-14.58
-15.93
-17.48
-19.30
-21.26
-22.94
-23.66
-22.77
-20.03
-15.74
-10.66
-5.68
-1.47
1.74
4.02
5.63
6.74
7.43
7.73
7.74
7.61
7.53
7.61
7.82
8.05
8.19
8.19
8.08
7.94
7.85
7.91
8.17
8.64
9.29
9.95
10.39
10.38
9.76
8.55
7.00
5.47
4.25
3.47
3.02
2.64
2.04
1.09
-0.19
-1.62
-3.09
-4.54
-5.99
-7.45
-8.85
-10.07
-11.05
-11.89
-12.84
-14.26
-16.30
-18.82
-21.35
-23.20
-23.76
-22.67
-19.98
-16.06
-11.49
-6.85
-2.57
1.10
4.03
6.21
7.69
8.53
8.92
9.06
9.25
9.74
10.63
11.84
13.06
13.94
14.13
13.52
12.22
10.56
8.94
7.63
6.71
6.06
5.53
4.99
4.48
4.07
3.76
3.43
2.88
1.95
0.66
-0.74
-1.90
-2.53
-2.58
-2.26
-1.96
-2.09
-2.92
-4.44
-6.43
-8.56
-10.51
-12.19
-13.71
-15.39
-17.54
-20.25
-23.24
-25.97
-27.74
-28.07
-26.81
-24.18
-20.61
-16.50
-12.14
-7.66
-3.16
1.16
5.05
8.28
10.72
12.41
13.53
14.20
14.52
14.47
14.06
13.40
12.71
12.14
11.74
11.39
10.84
9.90
8.60
7.19
6.02
5.38
5.34
5.74
6.28
6.72
6.94
6.88
6.56
5.93
4.92
3.49
1.71
-0.22
-2.04
-3.51
-4.50
-5.04
-5.25
-5.29
-5.33
-5.48
-5.80
-6.27
-6.81
-7.33
-7.83
-8.38
-9.11
-10.18
-11.57
-13.14
-14.56
-15.44
-15.46
-14.47
-12.59
-10.09
-7.39
-4.88
-2.89
-1.52
-0.78
-0.50
-0.49
-0.59
-0.72
-0.91
-1.24
-1.79
-2.53
-3.36
-4.10
-4.51
-4.43
-3.76
-2.52
-0.88
0.84
2.24
2.98
2.86
1.93
0.50
-1.03
-2.31
-3.14
-3.58
-3.82
-4.11
-4.66
-5.59
-6.96
-8.73
-10.80
-12.97
-14.90
-16.33
-17.16
-17.56
-17.87
-18.45
-19.42
-20.56
-21.43
-21.50
-20.49
-18.37
-15.40
-11.95
-8.41
-5.08
-2.13
0.34
2.35
3.99
5.39
6.68
7.91
9.04
9.96
10.60
10.97
11.20
11.51
12.11
13.08
14.33
15.61
16.59
16.98
16.71
15.88
14.71
13.45
12.24
11.08
9.97
8.87
7.83
6.89
6.01
5.09
3.96
2.43
0.39
-2.11
-4.88
-7.71
-10.38
-12.79
-14.93
-16.88
-18.74
-20.50
-22.06
-23.14
-23.46
-22.77
-20.97
-18.16
-14.57
-10.56
-6.48
-2.61
0.85
3.74
5.93
7.28
7.72
7.31
6.29
5.03
3.96
3.42
3.53
4.25
5.32
6.48
7.54
8.40
9.12
9.77
10.33
10.72
10.75
10.21
9.00
7.16
4.93
2.62
0.50
-1.28
-2.73
-3.99
-5.24
-6.63
-8.21
-9.94
-11.67
-13.13
-14.07
-14.18
-13.21
-11.02
-7.63
-3.27
1.61
6.39
10.48
13.44
15.11
15.63
15.36
14.74
14.13
13.70
13.48
13.36
13.19
12.84
12.33
11.75
11.22
10.87
10.68
10.57
10.41
10.11
9.64
9.02
8.24
7.24
5.98
4.49
2.88
1.35
0.05
-0.99
-1.92
-2.95
-4.29
-5.90
-7.50
-8.61
-8.70
-7.38
-4.59
-0.61
3.96
8.37
11.98
14.37
15.43
15.30
14.26
12.67
10.83
9.06
7.60
6.59
6.04
5.81
5.69
5.49
5.14
4.71
4.36
4.24
4.34
4.54
4.56
4.18
3.26
1.81
-0.00
-1.97
-3.89
-5.65
-7.29
-8.92
-10.76
-12.92
-15.33
-17.68
-19.46
-20.13
-19.27
-16.77
-12.88
-8.14
-3.26
1.10
4.55
6.93
8.42
9.30
9.85
10.23
10.45
10.40
10.00
9.30
8.42
7.58
6.90
6.44
6.15
5.95
5.78
5.61
5.39
4.99
4.21
2.92
1.08
-1.10
-3.34
-5.31
-6.89
-8.15
-9.36
-10.81
-12.66
-14.81
-16.83
-18.14
-18.19
-16.64
-13.52
-9.21
-4.39
0.25
4.18
7.15
9.18
10.47
11.23
11.57
11.51
11.08
10.31
9.32
8.31
7.41
6.67
6.06
5.45
4.78
4.06
3.31
2.61
1.99
1.41
0.83
0.23
-0.41
-1.12
-1.93
-2.95
-4.33
-6.20
-8.60
-11.41
-14.31
-16.82
-18.41
-18.64
-17.33
-14.64
-10.98
-6.90
-2.90
0.71
3.74
6.17
8.00
9.26
9.98
10.27
10.25
10.05
9.79
9.53
9.25
8.98
8.71
8.49
8.35
8.27
8.21
8.10
7.88
7.52
6.99
6.26
5.39
4.42
3.42
2.44
1.41
0.23
-1.22
-2.96
-4.96
-7.13
-9.37
-11.64
-13.84
-15.71
-16.86
-16.84
-15.34
-12.46
-8.68
-4.68
-1.09
1.79
4.01
5.82
7.46
8.98
10.31
11.32
11.99
12.43
12.77
13.07
13.25
13.15
12.61
11.63
10.41
9.24
8.44
8.11
8.14
8.26
8.15
7.63
6.70
5.50
4.19
2.81
1.31
-0.38
-2.23
-4.09
-5.74
-7.06
-8.09
-9.02
-10.05
-11.29
-12.73
-14.20
-15.61
-16.97
-18.33
-19.68
-20.85
-21.45
-21.04
-19.31
-16.29
-12.37
-8.23
-4.55
-1.80
-0.04
0.98
1.67
2.33
3.08
3.82
4.39
4.71
4.81
4.83
4.88
4.98
5.01
4.86
4.51
4.09
3.81
3.81
4.11
4.55
4.95
5.15
5.12
4.86
4.40
3.71
2.77
1.56
0.13
-1.40
-2.93
-4.41
-5.84
-7.23
-8.63
-10.10
-11.75
-13.69
-15.85
-17.95
-19.47
-19.86
-18.82
-16.42
-13.09
-9.44
-5.92
-2.74
0.16
2.88
5.36
7.45
8.97
9.82
10.14
10.21
10.27
10.43
10.66
10.84
10.89
10.87
10.91
11.13
11.58
12.16
12.65
12.81
12.53
11.84
10.97
10.14
9.51
9.07
8.66
8.07
7.20
6.05
4.75
3.44
2.21
1.09
0.00
-1.11
-2.32
-3.68
-5.16
-6.68
-8.13
-9.38
-10.34
-11.04
-11.66
-12.45
-13.64
-15.34
-17.50
-19.83
-21.94
-23.40
-23.86
-23.13
-21.19
-18.24
-14.52
-10.34
-6.02
-1.91
1.63
4.25
5.80
6.34
6.24
6.00
6.05
6.59
7.49
8.44
9.14
9.44
9.43
9.34
9.36
9.60
10.03
10.51
10.92
11.23
11.47
11.68
11.87
11.98
11.85
11.38
10.55
9.48
8.36
7.34
6.43
5.48
4.25
2.57
0.46
-1.89
-4.10
-5.86
-6.97
-7.50
-7.73
-8.00
-8.62
-9.74
-11.33
-13.27
-15.40
-17.60
-19.79
-21.81
-23.48
-24.51
-24.61
-23.60
-21.40
-18.18
-14.24
-9.95
-5.69
-1.80
1.48
4.05
5.86
6.98
7.50
7.53
7.22
6.75
6.32
6.08
6.10
6.36
6.79
7.32
7.93
8.57
9.24
9.90
10.50
10.99
11.32
11.42
11.18
10.55
9.48
8.04
6.39
4.71
3.15
1.73
0.40
-0.93
-2.32
-3.79
-5.31
-6.81
-8.31
-9.79
-11.34
-13.04
-14.90
-16.87
-18.76
-20.30
-21.22
-21.26
-20.27
-18.23
-15.24
-11.57
-7.53
-3.56
-0.03
2.77
4.68
5.75
6.20
6.32
6.39
6.55
6.75
6.87
6.74
6.31
5.71
5.12
4.80
4.82
5.10
5.41
5.54
5.37
5.00
4.61
4.33
4.14
3.84
3.17
1.94
0.21
-1.85
-3.99
-6.04
-8.02
-10.04
-12.25
-14.66
-17.14
-19.37
-21.04
-21.85
-21.62
-20.26
-17.78
-14.32
-10.16
-5.70
-1.38
2.42
5.52
7.87
9.56
10.68
11.30
11.45
11.11
10.38
9.43
8.46
7.63
7.00
6.53
6.18
5.96
5.96
6.27
6.82
7.39
7.61
7.17
5.93
4.01
1.72
-0.53
-2.48
-4.02
-5.28
-6.52
-8.03
-10.07
-12.79
-16.16
-19.90
-23.50
-26.28
-27.54
-26.77
-23.82
-19.01
-13.04
-6.82
-1.17
3.37
6.70
9.08
10.96
12.73
14.54
16.30
17.75
18.61
18.80
18.39
17.61
16.69
15.85
15.19
14.82
14.83
15.25
16.02
16.99
17.87
18.39
18.32
17.61
16.34
14.73
13.01
11.33
9.76
8.20
6.53
4.62
2.45
0.11
-2.25
-4.50
-6.62
-8.69
-10.86
-13.28
-16.11
-19.41
-23.14
-27.09
-30.86
-33.86
-35.44
-35.16
-32.86
-28.82
-23.59
-17.89
-12.36
-7.44
-3.32
0.06
2.89
5.42
7.82
10.17
12.37
14.31
15.90
17.07
17.82
18.20
18.22
18.01
17.72
17.58
17.75
18.27
18.97
19.60
19.93
19.84
19.42
18.77
17.95
16.91
15.53
13.76
11.65
9.38
7.08
4.82
2.57
0.27
-2.12
-4.53
-6.90
-9.17
-11.29
-13.31
-15.23
-17.08
-18.89
-20.70
-22.57
-24.62
-26.93
-29.54
-32.29
-34.84
-36.63
-37.06
-35.61
-32.12
-26.82
-20.29
-13.28
-6.47
-0.26
5.16
9.79
13.68
16.87
19.38
21.30
22.76
23.92
24.93
25.85
26.67
27.28
27.64
27.72
27.62
27.47
27.46
27.67
28.10
28.63
29.04
29.11
28.65
27.57
25.84
23.52
20.71
17.51
14.02
10.35
6.64
3.09
-0.06
-2.68
-4.75
-6.39
-7.84
-9.31
-10.97
-12.87
-14.93
-17.04
-19.10
-21.11
-23.14
-25.37
-27.98
-31.01
-34.23
-37.05
-38.70
-38.38
-35.63
-30.51
-23.66
-16.01
-8.56
-1.98
3.39
7.56
10.70
13.04
14.79
16.14
17.29
18.44
19.66
20.87
21.87
22.45
22.51
22.18
21.71
21.40
21.42
21.77
22.30
22.81
23.14
23.22
23.01
22.47
21.55
20.15
18.26
15.95
13.41
10.93
8.73
6.93
5.46
4.08
2.54
0.70
-1.38
-3.53
-5.56
-7.43
-9.21
-11.01
-12.88
-14.75
-16.48
-18.03
-19.49
-21.06
-22.95
-25.13
-27.32
-29.01
-29.61
-28.67
-26.01
-21.80
-16.44
-10.47
-4.49
1.05
5.83
9.68
12.55
14.46
15.47
15.70
15.38
14.74
14.06
13.51
13.12
12.86
12.65
12.50
12.52
12.82
13.41
14.14
14.72
14.89
14.57
13.88
13.12
12.56
12.32
12.33
12.33
12.08
11.41
10.34
8.92
7.32
5.67
4.09
2.64
1.39
0.30
-0.74
-1.88
-3.36
-5.28
-7.64
-10.27
-12.88
-15.21
-17.14
-18.76
-20.23
-21.69
-23.07
-24.08
-24.37
-23.64
-21.82
-19.05
-15.56
-11.58
-7.26
-2.82
1.43
5.04
7.66
9.16
9.73
9.76
9.66
9.56
9.39
8.98
8.31
7.58
7.13
7.20
7.77
8.56
9.16
9.35
9.19
8.98
9.04
9.45
10.00
10.30
10.01
9.05
7.66
6.27
5.25
4.74
4.56
4.39
3.91
2.97
1.58
-0.09
-1.85
-3.56
-5.11
-6.40
-7.34
-7.93
-8.28
-8.63
-9.32
-10.61
-12.57
-14.96
-17.36
-19.21
-20.11
-19.86
-18.51
-16.26
-13.34
-9.97
-6.34
-2.69
0.69
3.53
5.61
6.96
7.74
8.21
8.53
8.73
8.70
8.28
7.43
6.26
5.00
3.96
3.38
3.39
3.94
4.80
5.62
6.05
5.83
4.96
3.61
2.06
0.56
-0.72
-1.77
-2.62
-3.32
-3.90
-4.42
-4.97
-5.68
-6.65
-7.89
-9.28
-10.61
-11.76
-12.75
-13.75
-14.98
-16.57
-18.41
-20.18
-21.38
-21.56
-20.45
-18.04
-14.65
-10.77
-6.93
-3.56
-0.90
1.04
2.39
3.35
4.08
4.65
5.01
5.10
4.91
4.55
4.23
4.12
4.29
4.69
5.14
5.47
5.59
5.53
5.41
5.39
5.53
5.74
5.86
5.69
5.13
4.19
3.00
1.73
0.53
-0.57
-1.62
-2.70
-3.95
-5.42
-7.17
-9.17
-11.32
-13.39
-15.07
-16.00
-15.95
-14.88
-12.96
-10.52
-7.87
-5.25
-2.80
-0.60
1.31
2.85
4.01
4.88
5.60
6.24
6.70
6.79
6.28
5.16
3.67
2.20
1.13
0.65
0.68
1.01
1.41
1.78
2.07
2.25
2.21
1.79
0.92
-0.31
-1.69
-2.96
-3.98
-4.83
-5.74
-7.02
-8.87
-11.24
-13.85
-16.22
-17.84
-18.35
-17.66
-15.90
-13.38
-10.44
-7.35
-4.19
-1.01
2.10
4.95
7.27
8.80
9.41
9.18
8.39
7.41
6.53
5.90
5.52
5.25
5.02
4.74
4.45
4.15
3.87
3.57
3.24
2.83
2.33
1.72
0.95
-0.02
-1.22
-2.62
-4.17
-5.72
-7.17
-8.52
-9.86
-11.45
-13.50
-16.05
-18.85
-21.32
-22.73
-22.56
-20.62
-17.22
-12.96
-8.55
-4.50
-1.07
1.74
4.02
5.84
7.19
8.04
8.37
8.30
7.98
7.63
7.36
7.19
7.07
6.94
6.78
6.63
6.57
6.62
6.71
6.75
6.67
6.47
6.16
5.69
4.95
3.81
2.23
0.38
-1.48
-3.07
-4.22
-5.01
-5.67
-6.50
-7.75
-9.55
-11.89
-14.64
-17.54
-20.19
-22.11
-22.86
-22.15
-19.92
-16.39
-12.02
-7.40
-3.09
0.48
3.13
4.96
6.22
7.21
8.09
8.87
9.43
9.66
9.57
9.31
9.10
9.04
9.10
9.13
8.97
8.61
8.18
7.87
7.83
8.02
8.27
8.33
8.00
7.22
6.04
4.57
2.93
1.20
-0.56
-2.31
-4.03
-5.70
-7.34
-8.97
-10.66
-12.43
-14.34
-16.44
-18.69
-20.95
-22.89
-24.05
-23.98
-22.33
-19.04
-14.42
-9.04
-3.54
1.49
5.68
8.83
10.87
11.80
11.76
11.00
9.91
8.95
8.46
8.53
9.01
9.60
10.01
10.14
10.05
9.96
10.04
10.34
10.74
11.06
11.08
10.67
9.74
8.28
6.35
4.10
1.76
-0.45
-2.32
-3.81
-5.07
-6.39
-8.09
-10.40
-13.35
-16.73
-20.13
-23.01
-24.82
-25.10
-23.60
-20.36
-15.75
-10.39
-4.96
-0.03
4.07
7.29
9.78
11.72
13.23
14.33
14.98
15.24
15.20
15.07
15.00
15.08
15.31
15.65
16.04
16.45
16.85
17.19
17.36
17.29
16.93
16.33
15.56
14.71
13.80
12.78
11.61
10.22
8.63
6.80
4.73
2.39
-0.17
-2.82
-5.32
-7.46
-9.09
-10.31
-11.38
-12.66
-14.49
-17.02
-20.22
-23.78
-27.19
-29.79
-30.96
-30.22
-27.44
-22.88
-17.14
-10.99
-5.10
0.09
4.44
8.00
10.88
13.15
14.79
15.81
16.24
16.22
15.95
15.64
15.44
15.43
15.65
16.09
16.72
17.46
18.16
18.69
18.92
18.86
18.55
18.11
17.65
17.21
16.74
16.18
15.43
14.43
13.14
11.55
9.72
7.78
5.92
4.25
2.81
1.45
-0.05
-1.87
-4.00
-6.25
-8.35
-10.10
-11.49
-12.70
-13.96
-15.50
-17.47
-19.92
-22.87
-26.19
-29.55
-32.34
-33.84
-33.38
-30.69
-26.00
-20.07
-13.82
-8.06
-3.26
0.52
3.44
5.69
7.40
8.62
9.43
9.97
10.46
11.08
11.91
12.90
13.89
14.70
15.26
15.61
15.85
16.11
16.46
16.89
17.36
17.80
18.16
18.36
18.33
17.98
17.22
16.05
14.52
12.79
11.02
9.33
7.75
6.19
4.52
2.63
0.53
-1.64
-3.67
-5.39
-6.76
-7.88
-8.92
-10.00
-11.18
-12.47
-13.95
-15.77
-18.08
-20.90
-23.95
-26.66
-28.27
-28.12
-25.91
-21.85
-16.50
-10.60
-4.84
0.38
4.85
8.55
11.52
13.81
15.49
16.63
17.32
17.65
17.74
17.73
17.79
18.06
18.57
19.20
19.65
19.60
18.83
17.39
15.56
13.68
12.02
10.63
9.35
7.99
6.41
4.62
2.73
0.92
-0.68
-1.98
-3.02
-3.86
-4.62
-5.43
-6.39
-7.58
-9.03
-10.73
-12.62
-14.68
-16.89
-19.25
-21.74
-24.32
-26.83
-29.07
-30.71
-31.36
-30.71
-28.55
-24.85
-19.83
-13.87
-7.45
-1.11
4.61
9.31
12.72
14.79
15.67
15.66
15.09
14.28
13.45
12.74
12.24
11.95
11.86
11.88
11.86
11.67
11.23
10.55
9.77
9.08
8.61
8.45
8.48
8.52
8.30
7.60
6.34
4.56
2.46
0.31
-1.62
-3.17
-4.34
-5.28
-6.29
-7.67
-9.60
-12.11
-15.04
-18.08
-20.86
-23.00
-24.10
-23.82
-21.92
-18.36
-13.33
-7.35
-1.06
4.84
9.80
13.58
16.16
17.74
18.52
18.72
18.39
17.56
16.21
14.47
12.63
11.00
9.89
9.37
9.24
9.14
8.73
7.86
6.69
5.53
4.65
4.08
3.61
2.88
1.57
-0.37
-2.76
-5.24
-7.45
-9.23
-10.63
-11.86
-13.11
-14.49
-15.96
-17.42
-18.80
-20.16
-21.60
-23.16
-24.64
-25.59
-25.46
-23.82
-20.60
-16.10
-10.85
-5.45
-0.30
4.36
8.44
11.83
14.39
15.96
16.50
16.12
15.09
13.73
12.30
10.92
9.66
8.50
7.47
6.59
5.86
5.29
4.80
4.33
3.90
3.52
3.25
3.10
3.02
2.89
2.59
2.06
1.27
0.31
-0.76
-1.90
-3.13
-4.55
-6.37
-8.74
-11.76
-15.27
-18.91
-22.06
-24.11
-24.57
-23.26
-20.38
-16.37
-11.84
-7.38
-3.40
-0.12
2.41
4.31
5.68
6.65
7.30
7.69
7.83
7.77
7.53
7.18
6.84
6.62
6.66
7.00
7.65
8.48
9.30
9.92
10.12
9.81
8.95
7.63
5.97
4.19
2.45
0.89
-0.45
-1.65
-2.88
-4.37
-6.38
-9.10
-12.59
-16.67
-20.86
-24.42
-26.53
-26.58
-24.37
-20.19
-14.71
-8.73
-2.97
2.08
6.19
9.35
11.65
13.22
14.18
14.65
14.75
14.62
14.35
14.04
13.76
13.54
13.36
13.18
12.97
12.70
12.39
12.07
11.78
11.50
11.13
10.55
9.59
8.15
6.22
3.93
1.47
-1.00
-3.42
-5.83
-8.24
-10.64
-12.94
-15.09
-17.15
-19.30
-21.61
-23.96
-25.89
-26.72
-25.84
-23.00
-18.43
-12.76
-6.82
-1.36
3.12
6.41
8.62
10.00
10.86
11.42
11.74
11.81
11.55
10.97
10.24
9.62
9.32
9.38
9.64
9.82
9.77
9.50
9.25
9.26
9.63
10.14
10.42
10.06
8.85
6.92
4.62
2.33
0.34
-1.33
-2.86
-4.48
-6.33
-8.48
-10.87
-13.43
-16.05
-18.57
-20.70
-22.04
-22.18
-20.81
-17.87
-13.60
-8.46
-3.00
2.24
6.88
10.69
13.56
15.48
16.53
16.86
16.69
16.26
15.80
15.50
15.46
15.70
16.18
16.74
17.20
17.39
17.22
16.77
16.18
15.65
15.26
15.00
14.72
14.24
13.42
12.26
10.80
9.14
7.30
5.28
3.07
0.66
-1.85
-4.35
-6.71
-8.90
-10.99
-13.12
-15.43
-17.99
-20.79
-23.76
-26.87
-30.08
-33.32
-36.34
-38.71
-39.85
-39.23
-36.59
-32.09
-26.27
-19.90
-13.71
-8.23
-3.65
0.06
3.10
5.65
7.84
9.69
11.22
12.49
13.63
14.77
15.98
17.20
18.28
19.09
19.63
20.08
20.64
21.49
22.54
23.50
23.97
23.65
22.49
20.72
18.70
16.75
15.01
13.44
11.82
10.00
7.96
5.84
3.90
2.33
1.15
0.19
-0.85
-2.19
-3.88
-5.75
-7.53
-9.01
-10.19
-11.21
-12.23
-13.17
-13.71
-13.37
-11.84
-9.16
-5.82
-2.49
0.25
2.20
3.54
4.68
5.99
7.50
9.00
10.10
10.53
10.25
9.48
8.54
7.73
7.21
7.01
7.07
7.33
7.70
8.12
8.45
8.59
8.40
7.85
7.02
6.07
5.19
4.45
3.80
3.10
2.14
0.84
-0.72
-2.38
-3.91
-5.24
-6.45
-7.79
-9.49
-11.63
-13.99
-16.19
-17.74
-18.25
-17.53
-15.55
-12.45
-8.49
-4.11
0.15
3.75
6.30
7.69
8.10
7.93
7.54
7.18
6.91
6.72
6.58
6.52
6.58
6.73
6.85
6.85
6.63
6.23
5.71
5.15
4.59
4.03
3.44
2.79
2.06
1.16
0.01
-1.42
-3.10
-4.92
-6.70
-8.34
-9.87
-11.47
-13.35
-15.54
-17.82
-19.72
-20.70
-20.33
-18.52
-15.50
-11.76
-7.84
-4.19
-1.09
1.35
3.10
4.18
4.67
4.65
4.28
3.69
3.01
2.30
1.61
0.91
0.17
-0.61
-1.43
-2.20
-2.81
-3.17
-3.28
-3.26
-3.34
-3.72
-4.53
-5.71
-7.08
-8.45
-9.72
-10.92
-12.23
-13.78
-15.63
-17.63
-19.50
-20.81
-21.18
-20.29
-18.04
-14.53
-10.12
-5.35
-0.77
3.16
6.23
8.48
10.10
11.33
12.28
12.93
13.15
12.86
12.12
11.11
10.10
9.26
8.66
8.21
7.81
7.37
6.92
6.52
6.19
5.87
5.38
4.54
3.22
1.48
-0.52
-2.55
-4.46
-6.24
-8.01
-9.96
-12.27
-15.01
-18.04
-20.96
-23.17
-24.01
-23.03
-20.15
-15.79
-10.69
-5.72
-1.51
1.70
4.01
5.67
6.92
7.84
8.46
8.76
8.86
8.95
9.20
9.68
10.32
10.97
11.47
11.73
11.73
11.55
11.26
10.91
10.51
9.99
9.28
8.36
7.23
5.93
4.55
3.12
1.65
0.08
-1.64
-3.58
-5.72
-7.96
-10.19
-12.30
-14.33
-16.41
-18.66
-21.09
-23.44
-25.23
-25.91
-25.06
-22.59
-18.79
-14.21
-9.45
-5.02
-1.16
2.10
4.88
7.27
9.32
10.98
12.16
12.83
13.08
13.06
12.97
12.94
13.00
13.08
13.12
13.09
13.07
13.16
13.41
13.75
14.02
14.04
13.68
12.94
11.99
10.98
10.08
9.34
8.74
8.18
7.52
6.65
5.46
3.90
1.94
-0.35
-2.85
-5.32
-7.53
-9.31
-10.61
-11.55
-12.31
-13.13
-14.17
-15.56
-17.37
-19.62
-22.19
-24.77
-26.85
-27.87
-27.33
-25.08
-21.36
-16.74
-11.91
-7.39
-3.50
-0.25
2.44
4.69
6.54
7.99
9.03
9.72
10.17
10.50
10.83
11.20
11.63
12.06
12.46
12.79
13.08
13.37
13.74
14.24
14.86
15.48
15.89
15.91
15.43
14.54
13.43
12.35
11.45
10.74
10.07
9.29
8.30
7.09
5.77
4.43
3.15
1.93
0.69
-0.64
-2.14
-3.79
-5.52
-7.18
-8.64
-9.83
-10.84
-11.87
-13.14
-14.80
-16.83
-19.06
-21.21
-23.01
-24.20
-24.62
-24.15
-22.73
-20.40
-17.29
-13.64
-9.74
-5.89
-2.33
0.79
3.38
5.42
6.91
7.95
8.63
9.09
9.47
9.84
10.21
10.59
10.92
11.18
11.35
11.40
11.34
11.20
11.06
11.03
11.13
11.33
11.48
11.44
11.13
10.59
9.96
9.31
8.65
7.86
6.82
5.52
4.09
2.75
1.65
0.79
0.00
-0.92
-2.12
-3.59
-5.20
-6.78
-8.22
-9.52
-10.71
-11.87
-13.13
-14.57
-16.30
-18.32
-20.48
-22.47
-23.82
-24.09
-22.96
-20.41
-16.70
-12.33
-7.88
-3.83
-0.45
2.17
4.14
5.64
6.86
7.89
8.70
9.24
9.42
9.26
8.88
8.48
8.25
8.34
8.74
9.33
9.88
10.19
10.10
9.56
8.62
7.40
6.04
4.63
3.22
1.85
0.54
-0.64
-1.54
-2.08
-2.28
-2.33
-2.54
-3.17
-4.32
-5.89
-7.64
-9.32
-10.74
-11.78
-12.39
-12.61
-12.57
-12.50
-12.71
-13.42
-14.66
-16.11
-17.20
-17.36
-16.24
-13.86
-10.56
-6.82
-3.06
0.46
3.59
6.26
8.35
9.74
10.33
10.14
9.28
8.00
6.55
5.23
4.22
3.64
3.48
3.63
3.93
4.19
4.31
4.22
3.89
3.37
2.74
2.16
1.75
1.61
1.70
1.84
1.85
1.55
0.90
-0.01
-1.07
-2.23
-3.55
-5.10
-6.98
-9.26
-11.90
-14.79
-17.70
-20.26
-21.99
-22.45
-21.39
-18.84
-15.18
-10.91
-6.59
-2.58
0.92
3.92
6.47
8.61
10.32
11.52
12.11
12.07
11.49
10.55
9.52
8.60
7.94
7.57
7.46
7.57
7.85
8.25
8.72
9.13
9.33
9.24
8.76
7.90
6.67
5.10
3.26
1.27
-0.71
-2.50
-3.98
-5.15
-6.12
-7.07
-8.20
-9.66
-11.57
-14.00
-16.90
-20.14
-23.38
-26.10
-27.70
-27.68
-25.81
-22.21
-17.35
-11.88
-6.47
-1.66
2.23
5.10
7.04
8.27
9.03
9.56
9.99
10.41
10.79
11.14
11.49
11.83
12.19
12.50
12.68
12.68
12.54
12.42
12.50
12.82
13.30
13.68
13.66
13.10
12.05
10.73
9.40
8.18
7.00
5.65
3.95
1.81
-0.64
-3.15
-5.48
-7.41
-8.86
-9.93
-10.88
-12.06
-13.84
-16.41
-19.65
-23.12
-26.10
-27.87
-27.94
-26.17
-22.80
-18.30
-13.25
-8.17
-3.41
0.81
4.45
7.50
9.95
11.78
12.91
13.33
13.13
12.56
11.94
11.57
11.60
11.98
12.53
13.02
13.41
13.76
14.19
14.78
15.43
15.91
15.96
15.45
14.41
13.02
11.46
9.87
8.22
6.48
4.65
2.78
0.94
-0.87
-2.76
-4.83
-7.09
-9.41
-11.57
-13.40
-14.94
-16.39
-18.12
-20.34
-23.05
-25.88
-28.20
-29.28
-28.52
-25.70
-21.05
-15.23
-9.08
-3.42
1.26
4.81
7.37
9.17
10.40
11.16
11.50
11.48
11.17
10.72
10.27
9.93
9.80
9.89
10.14
10.47
10.75
10.90
10.95
10.96
11.02
11.16
11.26
11.15
10.62
9.54
7.91
5.86
3.60
1.32
-0.83
-2.82
-4.72
-6.62
-8.60
-10.68
-12.83
-15.06
-17.40
-19.79
-22.00
-23.55
-23.84
-22.39
-19.10
-14.31
-8.70
-3.04
2.11
6.43
9.82
12.32
13.91
14.64
14.62
14.12
13.45
12.89
12.53
12.32
12.18
12.04
11.97
12.09
12.44
12.94
13.40
13.57
13.32
12.63
11.61
10.37
9.01
7.59
6.10
4.58
3.03
1.43
-0.25
-2.07
-4.07
-6.21
-8.44
-10.65
-12.87
-15.23
-17.92
-21.02
-24.43
-27.72
-30.29
-31.49
-30.85
-28.26
-23.98
-18.58
-12.72
-6.98
-1.73
2.85
6.70
9.77
12.05
13.51
14.27
14.49
14.43
14.33
14.35
14.54
14.87
15.25
15.65
16.06
16.44
16.78
17.02
17.10
16.98
16.68
16.24
15.69
15.00
14.07
12.80
11.09
8.94
6.45
3.79
1.10
-1.47
-3.87
-6.10
-8.19
-10.18
-12.20
-14.41
-17.02
-20.16
-23.67
-27.12
-29.81
-31.00
-30.15
-27.15
-22.33
-16.42
-10.25
-4.53
0.34
4.27
7.37
9.85
11.84
13.41
14.57
15.33
15.78
16.05
16.30
16.64
17.13
17.75
18.43
19.06
19.52
19.73
19.67
19.41
19.11
18.91
18.86
18.86
18.65
18.02
16.87
15.32
13.63
12.07
10.70
9.40
7.87
5.87
3.29
0.29
-2.83
-5.74
-8.20
-10.16
-11.72
-13.09
-14.48
-16.13
-18.22
-20.85
-23.93
-27.10
-29.78
-31.30
-31.13
-29.09
-25.43
-20.64
-15.32
-9.97
-4.90
-0.29
3.73
7.11
9.83
12.00
13.75
15.17
16.22
16.82
16.90
16.58
16.13
15.84
15.88
16.18
16.52
16.67
16.62
16.51
16.57
16.92
17.44
17.82
17.72
16.96
15.65
14.08
12.54
11.17
9.88
8.47
6.72
4.61
2.31
0.08
-1.85
-3.45
-4.87
-6.35
-8.05
-9.98
-12.02
-13.95
-15.65
-17.19
-18.70
-20.41
-22.46
-24.79
-27.09
-28.87
-29.54
-28.62
-25.89
-21.49
-15.89
-9.79
-3.95
1.01
4.76
7.23
8.63
9.27
9.47
9.54
9.69
10.04
10.64
11.40
12.11
12.56
12.62
12.35
11.99
11.85
12.13
12.75
13.43
13.87
13.86
13.42
12.73
11.94
11.11
10.18
9.05
7.66
6.02
4.18
2.15
-0.08
-2.50
-5.01
-7.42
-9.48
-11.07
-12.26
-13.30
-14.51
-16.21
-18.49
-21.26
-24.14
-26.64
-28.16
-28.25
-26.67
-23.52
-19.21
-14.32
-9.42
-4.92
-0.98
2.44
5.41
7.95
9.99
11.40
12.17
12.36
12.18
11.87
11.59
11.40
11.29
11.21
11.11
11.00
10.94
11.01
11.28
11.76
12.35
12.80
12.79
12.09
10.63
8.58
6.31
4.20
2.48
1.13
-0.07
-1.45
-3.17
-5.20
-7.30
-9.23
-10.88
-12.38
-13.98
-15.97
-18.40
-21.11
-23.73
-25.84
-27.02
-26.99
-25.58
-22.82
-18.89
-14.17
-9.17
-4.42
-0.33
2.90
5.30
7.03
8.30
9.23
9.92
10.44
10.88
11.32
11.82
12.37
12.87
13.24
13.41
13.47
13.52
13.67
13.93
14.18
14.24
13.98
13.38
12.51
11.53
10.53
9.52
8.44
7.14
5.50
3.48
1.12
-1.45
-4.01
-6.38
-8.43
-10.13
-11.56
-12.90
-14.35
-16.08
-18.23
-20.81
-23.64
-26.31
-28.26
-28.89
-27.78
-24.89
-20.56
-15.47
-10.34
-5.75
-2.00
0.92
3.18
5.04
6.68
8.13
9.39
10.40
11.15
11.73
12.22
12.66
13.05
13.34
13.52
13.68
13.94
14.35
14.84
15.22
15.27
14.92
14.28
13.48
12.64
11.71
10.55
9.11
7.47
5.79
4.21
2.74
1.21
-0.59
-2.71
-5.02
-7.21
-9.04
-10.41
-11.43
-12.39
-13.57
-15.22
-17.41
-20.08
-22.96
-25.68
-27.77
-28.75
-28.23
-26.04
-22.31
-17.44
-12.05
-6.77
-2.15
1.51
4.15
5.88
6.94
7.56
7.96
8.28
8.60
8.92
9.22
9.46
9.62
9.72
9.78
9.86
9.94
10.02
10.07
10.10
10.14
10.15
10.08
9.78
9.10
7.98
6.43
4.61
2.77
1.12
-0.23
-1.34
-2.42
-3.70
-5.31
-7.21
-9.24
-11.25
-13.16
-14.99
-16.86
-18.82
-20.75
-22.38
-23.29
-23.07
-21.45
-18.42
-14.25
-9.45
-4.62
-0.24
3.41
6.32
8.65
10.52
11.90
12.65
12.64
11.95
10.88
9.87
9.30
9.27
9.65
10.12
10.44
10.57
10.65
10.86
11.28
11.77
12.04
11.79
10.89
9.37
7.49
5.55
3.77
2.20
0.76
-0.71
-2.32
-4.09
-5.90
-7.63
-9.17
-10.53
-11.84
-13.30
-15.10
-17.31
-19.84
-22.41
-24.60
-25.94
-26.05
-24.70
-21.92
-17.94
-13.13
-7.92
-2.74
2.04
6.06
9.07
10.95
11.79
11.93
11.80
11.81
12.19
12.87
13.61
14.11
14.23
13.97
13.49
12.99
12.66
12.60
12.85
13.39
14.06
14.60
14.67
13.97
12.42
10.18
7.64
5.23
3.28
1.82
0.68
-0.47
-1.85
-3.51
-5.35
-7.16
-8.79
-10.22
-11.56
-12.95
-14.49
-16.22
-18.10
-20.05
-21.89
-23.36
-24.12
-23.77
-22.00
-18.76
-14.30
-9.12
-3.87
0.92
4.87
7.81
9.74
10.79
11.12
10.91
10.42
9.84
9.37
9.12
9.16
9.46
9.97
10.58
11.24
11.88
12.52
13.21
13.98
14.83
15.62
16.13
16.17
15.65
14.64
13.34
11.96
10.64
9.36
7.99
6.37
4.43
2.25
0.01
-2.10
-3.99
-5.70
-7.39
-9.22
-11.33
-13.73
-16.42
-19.33
-22.40
-25.43
-28.08
-29.81
-30.10
-28.61
-25.39
-20.86
-15.67
-10.42
-5.52
-1.12
2.74
6.01
8.58
10.32
11.23
11.43
11.20
10.78
10.35
9.95
9.53
9.08
8.61
8.22
8.02
8.09
8.48
9.14
9.98
10.82
11.44
11.66
11.38
10.61
9.50
8.25
7.07
6.10
5.36
4.75
4.05
3.01
1.47
-0.56
-2.89
-5.29
-7.56
-9.66
-11.76
-14.06
-16.71
-19.68
-22.75
-25.57
-27.71
-28.72
-28.23
-26.07
-22.31
-17.40
-12.01
-6.86
-2.46
0.99
3.56
5.52
7.07
8.31
9.26
9.96
10.45
10.82
11.15
11.44
11.64
11.69
11.61
11.47
11.44
11.63
12.06
12.63
13.17
13.47
13.37
12.83
11.82
10.41
8.68
6.72
4.68
2.76
1.10
-0.28
-1.46
-2.64
-4.01
-5.66
-7.59
-9.71
-11.92
-14.14
-16.36
-18.60
-20.85
-22.96
-24.63
-25.50
-25.21
-23.56
-20.61
-16.63
-12.04
-7.27
-2.72
1.31
4.58
6.96
8.39
8.98
8.95
8.60
8.18
7.85
7.63
7.52
7.54
7.79
8.35
9.25
10.36
11.44
12.21
12.50
12.29
11.69
10.91
10.15
9.56
9.25
9.17
9.23
9.23
8.90
8.03
6.44
4.17
1.38
-1.61
-4.45
-6.89
-8.82
-10.30
-11.50
-12.66
-14.01
-15.69
-17.74
-20.05
-22.38
-24.32
-25.40
-25.17
-23.37
-20.00
-15.46
-10.35
-5.36
-1.01
2.44
4.97
6.76
8.00
8.84
9.39
9.73
9.93
10.03
10.06
10.01
9.84
9.55
9.18
8.83
8.61
8.65
9.00
9.63
10.38
11.05
11.40
11.32
10.80
9.97
8.94
7.81
6.56
5.12
3.40
1.44
-0.71
-2.89
-5.01
-7.00
-8.88
-10.69
-12.41
-14.03
-15.52
-16.97
-18.52
-20.29
-22.22
-23.96
-24.94
-24.58
-22.60
-19.16
-14.82
-10.24
-5.91
-2.02
1.51
4.71
7.46
9.48
10.56
10.72
10.33
9.87
9.74
10.06
10.63
11.12
11.28
11.10
10.82
10.76
11.13
11.87
12.68
13.16
13.00
12.15
10.84
9.40
8.11
7.00
5.93
4.71
3.26
1.68
0.15
-1.20
-2.43
-3.73
-5.25
-7.04
-9.01
-10.99
-12.87
-14.67
-16.52
-18.48
-20.50
-22.29
-23.41
-23.43
-22.09
-19.40
-15.60
-11.13
-6.47
-2.03
1.87
5.02
7.33
8.80
9.50
9.66
9.53
9.38
9.40
9.64
10.01
10.40
10.67
10.77
10.72
10.63
10.66
10.97
11.60
12.44
13.23
13.59
13.25
12.15
10.47
8.58
6.81
5.37
4.21
3.12
1.86
0.27
-1.59
-3.53
-5.32
-6.85
-8.17
-9.48
-11.02
-12.94
-15.18
-17.56
-19.79
-21.59
-22.72
-22.98
-22.22
-20.34
-17.35
-13.42
-8.87
-4.15
0.33
4.19
7.16
9.16
10.19
10.46
10.24
9.90
9.70
9.79
10.16
10.67
11.19
11.63
11.94
12.13
12.22
12.25
12.26
12.26
12.20
12.02
11.60
10.90
9.95
8.85
7.70
6.57
5.42
4.16
2.72
1.05
-0.78
-2.67
-4.54
-6.30
-7.94
-9.50
-11.05
-12.70
-14.57
-16.75
-19.16
-21.58
-23.59
-24.73
-24.62
-23.11
-20.27
-16.40
-11.94
-7.35
-3.05
0.65
3.58
5.71
7.13
8.02
8.60
9.00
9.29
9.50
9.66
9.87
10.19
10.62
11.08
11.47
11.74
11.94
12.15
12.41
12.66
12.76
12.55
11.92
10.90
9.56
8.03
6.38
4.70
3.09
1.61
0.32
-0.86
-2.02
-3.28
-4.69
-6.21
-7.81
-9.52
-11.42
-13.63
-16.19
-18.93
-21.53
-23.57
-24.63
-24.40
-22.77
-19.83
-15.89
-11.39
-6.85
-2.69
0.83
3.65
5.82
7.43
8.56
9.26
9.61
9.70
9.72
9.80
10.04
10.44
10.91
11.34
11.66
11.83
11.92
11.98
12.07
12.24
12.42
12.46
12.20
11.53
10.46
9.18
7.92
6.84
5.92
5.00
3.87
2.36
0.46
-1.71
-3.96
-6.12
-8.08
-9.79
-11.24
-12.54
-13.86
-15.40
-17.33
-19.58
-21.80
-23.41
-23.85
-22.72
-19.99
-15.98
-11.25
-6.39
-1.92
1.85
4.83
7.04
8.59
9.59
10.07
10.09
9.71
9.13
8.61
8.40
8.61
9.13
9.71
10.05
10.03
9.71
9.35
9.16
9.25
9.48
9.60
9.29
8.43
7.10
5.56
4.10
2.93
2.06
1.28
0.30
-1.14
-3.07
-5.25
-7.34
-9.05
-10.34
-11.44
-12.70
-14.37
-16.42
-18.54
-20.22
-21.02
-20.63
-18.99
-16.22
-12.60
-8.49
-4.26
-0.26
3.24
6.07
8.13
9.35
9.73
9.37
8.50
7.49
6.75
6.55
6.91
7.61
8.31
8.72
8.74
8.43
7.98
7.59
7.38
7.37
7.39
7.22
6.57
5.29
3.39
1.07
-1.37
-3.64
-5.64
-7.44
-9.18
-10.97
-12.85
-14.81
-16.81
-18.85
-20.86
-22.65
-23.81
-23.86
-22.42
-19.37
-14.97
-9.76
-4.40
0.49
4.53
7.53
9.50
10.54
10.87
10.78
10.58
10.53
10.77
11.30
11.97
12.60
12.99
13.01
12.61
11.81
10.77
9.74
8.96
8.59
8.64
8.88
8.97
8.58
7.55
5.90
3.84
1.56
-0.79
-3.11
-5.35
-7.39
-9.16
-10.65
-11.99
-13.41
-15.19
-17.43
-19.98
-22.46
-24.38
-25.33
-25.06
-23.49
-20.67
-16.72
-11.85
-6.41
-0.91
4.09
8.18
11.19
13.22
14.49
15.22
15.50
15.41
15.02
14.56
14.26
14.23
14.43
14.61
14.58
14.25
13.77
13.36
13.17
13.14
13.09
12.77
12.08
11.12
10.07
9.05
8.03
6.83
5.18
2.99
0.38
-2.32
-4.73
-6.63
-8.07
-9.31
-10.73
-12.59
-14.99
-17.85
-20.92
-23.84
-26.21
-27.56
-27.50
-25.79
-22.45
-17.78
-12.30
-6.63
-1.40
2.93
6.13
8.25
9.59
10.59
11.60
12.79
14.04
15.10
15.72
15.87
15.69
15.41
15.26
15.33
15.59
15.97
16.37
16.68
16.78
16.58
16.06
15.24
14.18
12.94
11.56
10.09
8.58
7.10
5.72
4.39
2.99
1.32
-0.76
-3.25
-5.98
-8.73
-11.29
-13.63
-15.81
-17.98
-20.29
-22.77
-25.33
-27.72
-29.54
-30.29
-29.49
-26.85
-22.46
-16.76
-10.52
-4.57
0.45
4.22
6.81
8.53
9.73
10.70
11.52
12.18
12.60
12.78
12.81
12.83
13.01
13.40
13.92
14.42
14.76
14.90
14.91
14.91
14.89
14.74
14.26
13.36
12.12
10.76
9.52
8.43
7.30
5.87
3.93
1.54
-1.08
-3.62
-5.88
-7.82
-9.51
-11.11
-12.76
-14.60
-16.71
-19.15
-21.80
-24.35
-26.34
-27.18
-26.41
-23.81
-19.57
-14.18
-8.37
-2.91
1.66
5.11
7.59
9.49
11.13
12.64
13.82
14.37
14.09
13.10
11.80
10.69
10.11
10.13
10.51
10.99
11.32
11.44
11.40
11.24
10.96
10.49
9.78
8.81
7.61
6.19
4.58
2.78
0.81
-1.25
-3.32
-5.33
-7.33
-9.42
-11.78
-14.48
-17.48
-20.49
-23.04
-24.60
-24.71
-23.18
-20.13
-15.94
-11.12
-6.15
-1.45
2.70
6.15
8.85
10.83
12.18
13.07
13.61
13.87
13.88
13.67
13.29
12.82
12.30
11.74
11.07
10.22
9.27
8.37
7.78
7.59
7.72
7.84
7.55
6.56
4.82
2.55
0.07
-2.31
-4.45
-6.40
-8.30
-10.29
-12.49
-14.92
-17.55
-20.23
-22.66
-24.32
-24.63
-23.14
-19.74
-14.86
-9.24
-3.77
0.85
4.35
6.87
8.77
10.40
11.91
13.20
14.02
14.18
13.63
12.53
11.25
10.16
9.60
9.65
10.18
10.83
11.26
11.23
10.74
9.99
9.26
8.74
8.48
8.27
7.82
6.83
5.17
2.91
0.32
-2.24
-4.46
-6.21
-7.62
-9.03
-10.87
-13.46
-16.79
-20.54
-24.09
-26.70
-27.76
-26.95
-24.29
-20.11
-14.90
-9.28
-3.79
1.11
5.16
8.32
10.71
12.53
13.91
14.88
15.34
15.18
14.46
13.39
12.35
11.72
11.70
12.22
13.00
13.67
13.93
13.66
12.97
12.05
11.12
10.30
9.54
8.73
7.71
6.37
4.61
2.42
-0.14
-2.94
-5.79
-8.49
-10.88
-12.94
-14.79
-16.62
-18.65
-20.93
-23.28
-25.29
-26.42
-26.20
-24.37
-20.98
-16.38
-11.09
-5.67
-0.58
3.84
7.30
9.58
10.57
10.31
9.11
7.52
6.10
5.30
5.25
5.76
6.48
7.07
7.36
7.35
7.19
6.98
6.80
6.61
6.36
6.00
5.52
4.87
4.02
2.93
1.53
-0.21
-2.24
-4.46
-6.69
-8.83
-10.81
-12.72
-14.75
-17.11
-19.89
-22.94
-25.86
-28.08
-29.08
-28.49
-26.26
-22.64
-18.11
-13.17
-8.25
-3.66
0.43
3.95
6.87
9.22
11.01
12.21
12.86
13.01
12.77
12.32
11.80
11.30
10.81
10.29
9.75
9.26
8.92
8.81
8.86
8.88
8.60
7.82
6.57
5.03
3.48
2.14
0.99
-0.16
-1.61
-3.53
-5.89
-8.43
-10.87
-13.03
-15.01
-17.06
-19.44
-22.17
-24.86
-26.84
-27.32
-25.79
-22.17
-16.88
-10.65
-4.28
1.60
6.63
10.70
13.88
16.26
17.90
18.84
19.18
19.11
18.86
18.69
18.71
18.89
19.02
18.84
18.17
17.00
15.47
13.84
12.41
11.35
10.69
10.31
9.93
9.25
8.02
6.14
3.73
1.07
-1.52
-3.79
-5.67
-7.26
-8.79
-10.54
-12.65
-15.20
-18.09
-21.09
-23.86
-25.99
-27.07
-26.77
-24.93
-21.60
-17.07
-11.78
-6.28
-1.08
3.43
7.03
9.72
11.64
12.96
13.85
14.38
14.56
14.38
13.85
13.09
12.30
11.71
11.48
11.64
12.08
12.59
12.97
13.15
13.16
13.07
12.96
12.76
12.31
11.41
9.92
7.84
5.29
2.51
-0.27
-2.82
-4.99
-6.75
-8.17
-9.45
-10.82
-12.53
-14.78
-17.61
-20.86
-24.10
-26.76
-28.13
-27.66
-25.15
-20.85
-15.39
-9.60
-4.25
0.24
3.78
6.51
8.68
10.43
11.76
12.62
12.96
12.86
12.48
12.01
11.62
11.34
11.16
11.06
11.01
11.05
11.15
11.27
11.33
11.29
11.17
11.02
10.82
10.47
9.74
8.45
6.55
4.22
1.76
-0.48
-2.33
-3.87
-5.29
-6.84
-8.67
-10.82
-13.26
-15.95
-18.84
-21.76
-24.40
-26.26
-26.82
-25.66
-22.64
-17.92
-12.03
-5.68
0.37
5.53
9.44
12.09
13.71
14.66
15.27
15.73
16.02
16.04
15.65
14.84
13.75
12.61
11.68
11.11
10.94
11.06
11.28
11.42
11.40
11.17
10.76
10.21
9.49
8.61
7.57
6.34
4.94
3.34
1.48
-0.59
-2.81
-4.99
-7.00
-8.76
-10.37
-11.99
-13.83
-16.02
-18.60
-21.47
-24.38
-26.95
-28.71
-29.14
-27.89
-24.87
-20.38
-14.98
-9.35
-4.10
0.42
4.11
7.04
9.38
11.26
12.76
13.87
14.53
14.71
14.44
13.82
13.05
12.34
11.86
11.72
11.90
12.32
12.88
13.47
14.01
14.40
14.52
14.24
13.47
12.25
10.76
9.26
7.95
6.88
5.86
4.56
2.69
0.17
-2.76
-5.69
-8.20
-10.07
-11.37
-12.37
-13.43
-14.83
-16.70
-19.04
-21.66
-24.21
-26.24
-27.24
-26.79
-24.66
-20.91
-15.87
-10.05
-4.03
1.65
6.51
10.17
12.42
13.26
12.95
11.94
10.77
9.86
9.46
9.56
9.99
10.50
10.88
11.05
11.08
11.11
11.27
11.60
11.95
12.11
11.86
11.14
10.08
8.87
7.69
6.55
5.37
4.02
2.45
0.69
-1.12
-2.90
-4.59
-6.20
-7.72
-9.16
-10.56
-12.10
-14.03
-16.53
-19.55
-22.70
-25.36
-26.83
-26.64
-24.66
-21.17
-16.64
-11.61
-6.53
-1.78
2.38
5.74
8.22
9.80
10.59
10.77
10.51
10.02
9.44
8.87
8.35
7.83
7.28
6.70
6.20
5.88
5.84
6.04
6.31
6.45
6.33
6.04
5.74
5.57
5.46
5.18
4.40
2.91
0.77
-1.68
-4.05
-6.04
-7.60
-8.86
-10.07
-11.46
-13.18
-15.21
-17.41
-19.49
-21.09
-21.81
-21.38
-19.62
-16.61
-12.56
-7.83
-2.83
2.04
6.38
9.90
12.36
13.68
13.95
13.44
12.47
11.42
10.55
10.02
9.80
9.75
9.70
9.52
9.17
8.69
8.19
7.72
7.30
6.85
6.33
5.65
4.79
3.76
2.60
1.32
-0.12
-1.78
-3.67
-5.77
-7.95
-10.06
-12.01
-13.84
-15.76
-18.02
-20.79
-24.00
-27.26
-29.93
-31.35
-30.98
-28.67
-24.61
-19.30
-13.39
-7.54
-2.23
2.24
5.76
8.33
10.06
11.10
11.59
11.72
11.63
11.44
11.24
11.12
11.17
11.46
11.93
12.39
12.61
12.44
11.94
11.35
10.90
10.71
10.58
10.21
9.28
7.76
5.89
3.99
2.31
0.79
-0.83
-2.81
-5.22
-7.94
-10.68
-13.23
-15.60
-17.97
-20.51
-23.21
-25.72
-27.46
-27.83
-26.41
-23.21
-18.57
-13.10
-7.51
-2.36
2.00
5.49
8.19
10.27
11.87
13.07
13.87
14.25
14.22
13.87
13.34
12.81
12.45
12.36
12.58
13.05
13.57
13.94
13.87
13.26
12.16
10.78
9.41
8.26
7.38
6.67
5.93
4.95
3.60
1.83
-0.35
-2.84
-5.45
-8.02
-10.41
-12.60
-14.65
-16.71
-18.88
-21.25
-23.76
-26.21
-28.25
-29.40
-29.18
-27.26
-23.58
-18.51
-12.65
-6.71
-1.30
3.26
6.84
9.45
11.10
11.90
12.01
11.78
11.59
11.73
12.25
12.89
13.28
13.14
12.51
11.70
11.17
11.23
11.91
12.92
13.83
14.27
14.07
13.25
11.93
10.25
8.26
6.01
3.59
1.16
-1.08
-3.00
-4.63
-6.10
-7.64
-9.40
-11.46
-13.74
-16.14
-18.55
-20.88
-23.01
-24.74
-25.76
-25.71
-24.28
-21.40
-17.23
-12.20
-6.85
-1.69
2.95
6.85
9.97
12.29
13.87
14.80
15.25
15.40
15.34
15.13
14.71
14.05
13.19
12.31
11.63
11.40
11.67
12.34
13.18
13.90
14.24
14.04
13.29
12.05
10.48
8.78
7.12
5.57
4.09
2.58
0.94
-0.84
-2.73
-4.68
-6.68
-8.80
-11.08
-13.54
-16.15
-18.85
-21.64
-24.49
-27.33
-29.93
-31.89
-32.70
-31.91
-29.31
-25.00
-19.42
-13.17
-6.90
-1.08
3.94
8.02
11.11
13.22
14.41
14.83
14.76
14.54
14.50
14.78
15.33
15.90
16.24
16.29
16.18
16.15
16.40
16.93
17.56
18.02
18.12
17.82
17.17
16.28
15.24
14.10
12.92
11.74
10.57
9.37
8.01
6.35
4.25
1.72
-1.15
-4.15
-7.06
-9.66
-11.85
-13.66
-15.30
-17.09
-19.33
-22.16
-25.44
-28.70
-31.26
-32.39
-31.58
-28.67
-23.95
-18.05
-11.79
-5.92
-0.99
2.78
5.48
7.36
8.74
9.84
10.79
11.66
12.53
13.44
14.37
15.24
15.90
16.23
16.23
16.04
15.85
15.86
16.18
16.75
17.41
17.89
17.94
17.33
16.02
14.16
12.07
10.12
8.59
7.46
6.48
5.29
3.59
1.37
-1.16
-3.67
-5.90
-7.77
-9.41
-10.99
-12.63
-14.32
-15.99
-17.60
-19.29
-21.31
-23.79
-26.61
-29.24
-30.88
-30.76
-28.45
-24.05
-18.11
-11.46
-4.96
0.78
5.41
8.84
11.15
12.52
13.17
13.32
13.17
12.87
12.48
12.09
11.76
11.56
11.54
11.75
12.21
12.90
13.75
14.56
15.10
15.15
14.62
13.57
12.22
10.79
9.50
8.43
7.54
6.72
5.82
4.69
3.23
1.42
-0.69
-2.97
-5.22
-7.33
-9.22
-10.97
-12.74
-14.72
-17.06
-19.73
-22.46
-24.79
-26.12
-25.93
-23.98
-20.45
-15.90
-11.02
-6.42
-2.43
0.94
3.80
6.25
8.27
9.80
10.79
11.28
11.43
11.42
11.37
11.36
11.41
11.58
11.94
12.57
13.41
14.29
14.98
15.31
15.24
14.83
14.20
13.40
12.36
10.94
9.02
6.64
3.95
1.16
-1.53
-4.06
-6.47
-8.84
-11.27
-13.73
-16.11
-18.30
-20.22
-21.94
-23.65
-25.51
-27.51
-29.31
-30.34
-29.92
-27.57
-23.24
-17.38
-10.78
-4.32
1.31
5.76
9.00
11.22
12.64
13.50
13.92
13.95
13.59
12.85
11.80
10.66
9.69
9.14
9.13
9.61
10.37
11.21
11.96
12.56
12.95
13.05
12.70
11.72
10.00
7.61
4.77
1.88
-0.70
-2.73
-4.19
-5.24
-6.12
-7.15
-8.59
-10.57
-13.12
-16.10
-19.21
-22.03
-24.07
-24.84
-24.00
-21.45
-17.36
-12.17
-6.49
-0.91
4.06
8.10
11.10
13.12
14.33
14.91
15.01
14.73
14.08
13.14
12.00
10.83
9.79
9.06
8.69
8.65
8.82
9.06
9.27
9.37
9.29
8.99
8.40
7.54
6.45
5.29
4.18
3.20
2.27
1.19
-0.26
-2.22
-4.74
-7.70
-10.88
-14.11
-17.25
-20.27
-23.21
-26.07
-28.73
-30.82
-31.79
-31.07
-28.30
-23.59
-17.54
-11.04
-4.99
0.04
3.91
6.82
9.08
10.94
12.45
13.58
14.32
14.70
14.84
14.88
14.91
14.94
14.96
14.96
14.90
14.76
14.52
14.17
13.73
13.27
12.83
12.39
11.90
11.22
10.21
8.72
6.75
4.35
1.71
-1.00
-3.61
-6.00
-8.13
-10.05
-11.89
-13.76
-15.84
-18.23
-20.94
-23.86
-26.70
-28.93
-29.97
-29.28
-26.58
-22.02
-16.12
-9.65
-3.37
2.13
6.60
10.03
12.57
14.37
15.59
16.35
16.81
17.15
17.49
17.91
18.34
18.68
18.82
18.68
18.34
17.91
17.55
17.41
17.54
17.89
18.27
18.45
18.21
17.44
16.16
14.50
12.60
10.56
8.36
5.95
3.30
0.46
-2.41
-5.11
-7.47
-9.41
-10.98
-12.34
-13.71
-15.30
-17.28
-19.71
-22.51
-25.40
-27.99
-29.78
-30.32
-29.29
-26.62
-22.48
-17.26
-11.54
-5.90
-0.84
3.32
6.47
8.69
10.11
10.91
11.24
11.22
10.97
10.58
10.16
9.80
9.56
9.55
9.84
10.53
11.59
12.85
13.97
14.63
14.61
13.94
12.82
11.52
10.20
8.87
7.44
5.86
4.18
2.51
0.93
-0.55
-2.06
-3.74
-5.65
-7.81
-10.17
-12.76
-15.61
-18.67
-21.75
-24.42
-26.12
-26.34
-24.78
-21.53
-16.97
-11.67
-6.23
-1.12
3.32
6.90
9.56
11.36
12.46
13.03
13.23
13.17
12.91
12.51
12.04
11.59
11.22
10.93
10.69
10.46
10.27
10.22
10.41
10.83
11.32
11.60
11.40
10.53
9.06
7.19
5.21
3.38
1.85
0.57
-0.58
-1.81
-3.30
-5.12
-7.26
-9.62
-12.07
-14.51
-16.90
-19.28
-21.63
-23.91
-25.89
-27.20
-27.43
-26.26
-23.63
-19.75
-15.02
-9.96
-4.99
-0.49
3.38
6.46
8.74
10.24
11.08
11.45
11.55
11.61
11.79
12.19
12.80
13.53
14.18
14.54
14.45
13.90
13.07
12.28
11.87
12.01
12.62
13.41
13.92
13.83
13.01
11.56
9.71
7.67
5.54
3.36
1.13
-1.08
-3.11
-4.78
-5.99
-6.77
-7.28
-7.78
-8.53
-9.77
-11.68
-14.27
-17.30
-20.28
-22.49
-23.24
-22.13
-19.25
-15.14
-10.57
-6.21
-2.41
0.77
3.50
5.88
7.88
9.37
10.25
10.51
10.34
9.97
9.66
9.51
9.52
9.62
9.66
9.53
9.20
8.74
8.29
8.00
7.91
7.93
7.81
7.37
6.55
5.51
4.50
3.71
3.13
2.53
1.64
0.31
-1.41
-3.30
-5.11
-6.73
-8.18
-9.61
-11.13
-12.74
-14.34
-15.85
-17.22
-18.57
-20.02
-21.65
-23.34
-24.78
-25.52
-25.14
-23.42
-20.39
-16.36
-11.81
-7.29
-3.23
0.11
2.67
4.52
5.84
6.76
7.38
7.72
7.76
7.51
6.98
6.25
5.48
4.84
4.50
4.57
5.04
5.75
6.50
7.08
7.34
7.29
7.01
6.62
6.20
5.70
5.03
4.05
2.72
1.10
-0.63
-2.30
-3.77
-5.01
-6.11
-7.21
-8.49
-10.10
-12.08
-14.40
-16.88
-19.18
-20.82
-21.32
-20.29
-17.67
-13.71
-8.94
-4.02
0.45
4.10
6.78
8.53
9.53
9.94
9.89
9.53
8.97
8.41
7.98
7.80
7.88
8.10
8.28
8.24
7.90
7.32
6.67
6.18
6.00
6.16
6.50
6.75
6.61
5.83
4.34
2.30
-0.03
-2.34
-4.44
-6.25
-7.80
-9.20
-10.55
-11.94
-13.47
-15.21
-17.22
-19.39
-21.42
-22.85
-23.14
-21.91
-19.10
-15.05
-10.40
-5.86
-1.91
1.27
3.79
5.86
7.63
9.07
10.10
10.67
10.82
10.67
10.39
10.11
9.93
9.89
10.03
10.32
10.72
11.10
11.33
11.32
11.01
10.42
9.56
8.48
7.26
6.04
4.89
3.79
2.65
1.31
-0.27
-2.04
-3.83
-5.48
-7.01
-8.62
-10.56
-13.02
-15.92
-18.90
-21.44
-23.03
-23.31
-22.11
-19.49
-15.70
-11.13
-6.26
-1.58
2.51
5.73
8.04
9.54
10.42
10.91
11.19
11.36
11.48
11.53
11.49
11.32
11.00
10.56
10.07
9.61
9.30
9.17
9.21
9.39
9.63
9.83
9.91
9.80
9.46
8.83
7.89
6.60
4.97
2.99
0.74
-1.64
-3.91
-5.85
-7.33
-8.38
-9.21
-10.17
-11.57
-13.65
-16.37
-19.52
-22.67
-25.26
-26.72
-26.57
-24.57
-20.80
-15.64
-9.74
-3.85
1.37
5.46
8.27
9.90
10.62
10.71
10.41
9.89
9.22
8.50
7.83
7.33
7.09
7.11
7.28
7.42
7.43
7.30
7.17
7.21
7.42
7.66
7.69
7.29
6.41
5.22
3.93
2.69
1.50
0.24
-1.22
-2.90
-4.67
-6.39
-7.98
-9.51
-11.18
-13.14
-15.44
-17.90
-20.18
-21.86
-22.51
-21.79
-19.57
-15.95
-11.31
-6.24
-1.35
2.87
6.18
8.59
10.26
11.33
11.85
11.80
11.14
9.98
8.61
7.38
6.60
6.42
6.75
7.35
7.94
8.28
8.25
7.79
6.89
5.59
3.94
2.04
0.03
-1.98
-3.91
-5.79
-7.78
-10.07
-12.85
-16.16
-19.88
-23.75
-27.46
-30.82
-33.80
-36.63
-39.65
-43.12
-47.06
-51.08
-54.46
-56.31
-55.88
-52.74
-46.96
-38.98
-29.53
-19.37
-9.18
0.53
9.48
17.54
24.71
31.00
36.32
40.49
43.33
44.74
44.88
44.11
42.93
41.72
40.67
39.71
38.65
37.24
35.45
33.39
31.31
29.41
27.75
26.24
24.66
22.79
20.56
18.03
15.33
12.60
9.87
7.09
4.22
1.29
-1.55
-4.16
-6.50
-8.74
-11.20
-14.14
-17.55
-21.08
-24.05
-25.75
-25.63
-23.53
-19.69
-14.64
-9.00
-3.36
1.84
6.30
9.88
12.50
14.22
15.18
15.58
15.66
15.63
15.57
15.55
15.56
15.57
15.59
15.65
15.72
15.81
15.90
15.98
16.05
16.09
16.04
15.81
15.33
14.57
13.55
12.37
11.10
9.73
8.21
6.42
4.30
1.93
-0.51
-2.74
-4.58
-6.00
-7.20
-8.50
-10.21
-12.55
-15.52
-18.91
-22.36
-25.40
-27.51
-28.22
-27.20
-24.41
-20.13
-14.96
-9.66
-4.92
-1.10
1.80
4.08
6.05
7.90
9.52
10.69
11.17
10.89
9.98
8.73
7.45
6.46
5.98
6.12
6.89
8.16
9.64
10.97
11.80
11.94
11.39
10.34
8.98
7.47
5.86
4.16
2.39
0.60
-1.16
-2.86
-4.53
-6.17
-7.78
-9.32
-10.80
-12.30
-14.05
-16.27
-18.99
-21.97
-24.58
-26.01
-25.57
-22.93
-18.36
-12.56
-6.48
-0.95
3.55
6.91
9.37
11.23
12.72
13.90
14.71
15.03
14.86
14.29
13.55
12.87
12.44
12.27
12.29
12.36
12.35
12.20
11.93
11.58
11.14
10.60
9.88
8.92
7.70
6.25
4.61
2.84
0.91
-1.17
-3.36
-5.58
-7.66
-9.48
-11.05
-12.49
-14.07
-16.09
-18.73
-21.93
-25.36
-28.52
-30.81
-31.77
-31.10
-28.73
-24.76
-19.50
-13.38
-7.01
-1.00
4.06
7.83
10.32
11.79
12.70
13.46
14.23
14.94
15.40
15.43
15.04
14.37
13.68
13.19
13.04
13.27
13.85
14.69
15.64
16.51
17.05
17.06
16.44
15.25
13.69
12.01
10.37
8.81
7.24
5.51
3.47
1.12
-1.43
-3.90
-5.99
-7.55
-8.65
-9.58
-10.80
-12.69
-15.42
-18.84
-22.51
-25.83
-28.20
-29.14
-28.44
-26.13
-22.45
-17.79
-12.58
-7.27
-2.22
2.33
6.20
9.27
11.52
12.95
13.69
13.92
13.87
13.77
13.74
13.83
14.02
14.25
14.49
14.73
15.01
15.37
15.79
16.20
16.46
16.47
16.19
15.66
14.93
14.05
13.00
11.74
10.23
8.44
6.45
4.29
2.03
-0.29
-2.65
-5.00
-7.18
-9.08
-10.64
-11.96
-13.33
-15.08
-17.39
-20.19
-23.09
-25.54
-26.98
-27.01
-25.47
-22.49
-18.38
-13.57
-8.58
-3.90
0.11
3.31
5.73
7.51
8.75
9.44
9.46
8.77
7.53
6.11
4.93
4.30
4.25
4.60
5.09
5.54
5.92
6.24
6.47
6.50
6.19
5.45
4.32
2.91
1.34
-0.31
-2.04
-3.82
-5.61
-7.31
-8.86
-10.25
-11.59
-13.02
-14.69
-16.71
-19.09
-21.67
-24.09
-25.81
-26.23
-24.86
-21.57
-16.64
-10.73
-4.64
0.91
5.48
8.93
11.37
12.97
13.89
14.21
13.93
13.11
11.94
10.73
9.83
9.47
9.68
10.20
10.68
10.80
10.48
9.92
9.40
9.16
9.21
9.29
9.04
8.15
6.47
4.12
1.37
-1.45
-4.10
-6.44
-8.51
-10.40
-12.26
-14.20
-16.31
-18.62
-21.13
-23.70
-26.01
-27.53
-27.70
-26.04
-22.43
-17.18
-10.97
-4.62
1.16
5.93
9.57
12.15
13.87
14.89
15.42
15.62
15.65
15.63
15.62
15.57
15.43
15.10
14.56
13.85
13.11
12.52
12.24
12.33
12.70
13.12
13.23
12.72
11.39
9.30
6.68
3.92
1.37
-0.71
-2.27
-3.47
-4.54
-5.78
-7.41
-9.56
-12.26
-15.44
-18.88
-22.20
-24.83
-26.18
-25.76
-23.36
-19.18
-13.75
-7.82
-2.12
2.83
6.75
9.67
11.79
13.37
14.61
15.63
16.38
16.78
16.80
16.50
16.05
15.65
15.45
15.48
15.65
15.83
15.94
15.98
15.98
16.01
16.04
15.98
15.69
15.05
14.03
12.65
11.03
9.34
7.73
6.25
4.86
3.44
1.85
0.02
-1.99
-4.05
-5.97
-7.65
-9.12
-10.50
-11.98
-13.67
-15.68
-17.99
-20.57
-23.32
-26.02
-28.26
-29.52
-29.27
-27.20
-23.35
-18.20
-12.48
-6.99
-2.28
1.44
4.24
6.36
7.97
9.20
10.03
10.48
10.66
10.75
10.90
11.21
11.64
12.12
12.65
13.21
13.78
14.29
14.63
14.74
14.66
14.54
14.53
14.64
14.69
14.42
13.63
12.34
10.77
9.24
7.94
6.84
5.75
4.47
2.90
1.14
-0.65
-2.31
-3.84
-5.32
-6.87
-8.51
-10.14
-11.58
-12.74
-13.72
-14.80
-16.32
-18.42
-20.90
-23.21
-24.62
-24.53
-22.74
-19.50
-15.35
-10.90
-6.56
-2.53
1.10
4.24
6.68
8.20
8.74
8.49
7.86
7.30
7.07
7.08
7.08
6.76
6.09
5.26
4.58
4.27
4.36
4.65
4.93
5.10
5.21
5.37
5.63
5.89
5.91
5.45
4.38
2.72
0.65
-1.61
-3.86
-5.97
-7.91
-9.71
-11.45
-13.22
-15.07
-16.97
-18.81
-20.42
-21.59
-22.15
-21.97
-20.96
-19.07
-16.33
-12.85
-8.84
-4.61
-0.53
2.99
5.67
7.31
7.93
7.69
6.86
5.78
4.72
3.89
3.33
2.98
2.69
2.33
1.89
1.47
1.26
1.47
2.17
3.21
4.30
5.04
5.10
4.31
2.72
0.56
-1.83
-4.15
-6.20
-7.93
-9.48
-11.13
-13.13
-15.60
-18.38
-21.00
-22.86
-23.42
-22.40
-19.85
-16.11
-11.69
-7.08
-2.74
1.05
4.13
6.45
8.07
9.06
9.54
9.62
9.39
8.91
8.23
7.41
6.52
5.60
4.73
3.96
3.39
3.11
3.15
3.48
3.91
4.18
4.01
3.16
1.64
-0.37
-2.49
-4.34
-5.71
-6.67
-7.51
-8.62
-10.33
-12.74
-15.72
-18.87
-21.65
-23.52
-24.01
-22.84
-20.00
-15.78
-10.66
-5.26
-0.15
4.23
7.63
10.03
11.56
12.48
13.08
13.58
14.04
14.44
14.64
14.55
14.10
13.33
12.34
11.26
10.25
9.43
8.93
8.77
8.85
8.91
8.69
7.92
6.57
4.78
2.89
1.20
-0.15
-1.23
-2.31
-3.74
-5.77
-8.50
-11.81
-15.40
-18.81
-21.47
-22.84
-22.52
-20.41
-16.71
-11.95
-6.74
-1.64
2.94
6.81
9.90
12.22
13.80
14.72
15.09
15.08
14.83
14.53
14.27
14.11
14.03
13.97
13.83
13.54
13.10
12.56
12.01
11.52
11.07
10.63
10.14
9.57
8.92
8.12
7.10
5.73
3.96
1.82
-0.53
-2.85
-4.91
-6.58
-7.86
-8.87
-9.77
-10.76
-12.02
-13.71
-15.92
-18.56
-21.29
-23.58
-24.77
-24.30
-21.96
-17.96
-12.90
-7.53
-2.49
1.85
5.35
8.09
10.14
11.54
12.30
12.49
12.25
11.79
11.30
10.95
10.80
10.84
11.01
11.23
11.43
11.59
11.75
12.02
12.47
13.09
13.74
14.14
14.02
13.21
11.75
9.85
7.86
6.10
4.75
3.75
2.95
2.07
0.92
-0.54
-2.19
-3.86
-5.37
-6.65
-7.77
-8.84
-9.96
-11.15
-12.43
-13.86
-15.51
-17.41
-19.38
-21.04
-21.83
-21.25
-19.07
-15.47
-11.02
-6.40
-2.18
1.37
4.34
6.93
9.35
11.55
13.30
14.27
14.29
13.41
11.93
10.34
9.05
8.34
8.23
8.57
9.17
9.88
10.64
11.44
12.27
12.96
13.30
13.07
12.19
10.79
9.16
7.63
6.40
5.43
4.46
3.24
1.61
-0.33
-2.29
-3.97
-5.15
-5.85
-6.26
-6.65
-7.28
-8.26
-9.58
-11.15
-12.87
-14.60
-16.20
-17.43
-18.01
-17.59
-15.97
-13.17
-9.50
-5.48
-1.66
1.57
4.06
5.87
7.15
8.03
8.52
8.65
8.44
8.00
7.48
6.99
6.60
6.32
6.17
6.18
6.45
7.08
8.04
9.15
10.08
10.51
10.23
9.31
8.04
6.83
6.00
5.66
5.63
5.56
5.14
4.18
2.73
0.99
-0.74
-2.29
-3.58
-4.64
-5.56
-6.43
-7.35
-8.35
-9.45
-10.59
-11.60
-12.26
-12.31
-11.59
-10.07
-7.92
-5.49
-3.16
-1.29
-0.13
0.21
-0.26
-1.43
-3.11
-5.07
-7.04
-8.72
-9.88
-10.31
-9.96
-8.90
-7.33
-5.44
-3.42
-1.42
0.44
1.97
2.99
3.29
2.78
1.55
-0.17
-2.02
-3.61
-4.67
-5.11
-5.03
-4.74
-4.56
-4.78
-5.54
-6.79
-8.34
-9.98
-11.48
-12.66
-13.34
-13.28
-12.25
-10.16
-7.16
-3.64
-0.12
2.98
5.47
7.41
8.99
10.29
11.23
11.59
11.20
10.14
8.77
7.52
6.73
6.48
6.51
6.47
6.10
5.40
4.59
3.92
3.55
3.42
3.31
3.00
2.32
1.25
-0.14
-1.71
-3.32
-4.84
-6.16
-7.27
-8.19
-9.11
-10.25
-11.82
-13.92
-16.39
-18.84
-20.75
-21.61
-21.08
-19.10
-15.88
-11.83
-7.44
-3.22
0.43
3.26
5.18
6.22
6.54
6.32
5.81
5.24
4.76
4.51
4.45
4.50
4.55
4.52
4.49
4.57
4.89
5.43
6.02
6.41
6.42
6.01
5.26
4.28
3.13
1.82
0.32
-1.28
-2.83
-4.17
-5.24
-6.15
-7.15
-8.49
-10.24
-12.25
-14.12
-15.35
-15.51
-14.40
-12.10
-8.93
-5.36
-1.86
1.25
3.80
5.81
7.33
8.49
9.39
10.16
10.85
11.43
11.84
11.98
11.80
11.30
10.58
9.75
8.94
8.20
7.57
7.08
6.77
6.67
6.77
6.97
7.08
6.88
6.21
5.05
3.54
1.86
0.23
-1.24
-2.55
-3.75
-4.90
-5.99
-7.00
-7.90
-8.81
-9.93
-11.49
-13.60
-16.07
-18.42
-20.01
-20.28
-18.96
-16.16
-12.34
-8.11
-4.06
-0.58
2.18
4.22
5.64
6.58
7.20
7.62
7.97
8.34
8.70
9.00
9.14
9.04
8.66
8.05
7.35
6.75
6.40
6.37
6.60
6.94
7.20
7.23
6.97
6.41
5.58
4.50
3.18
1.68
0.12
-1.27
-2.30
-2.92
-3.25
-3.56
-4.13
-5.10
-6.44
-8.00
-9.63
-11.23
-12.79
-14.23
-15.38
-15.93
-15.54
-13.99
-11.28
-7.67
-3.61
0.40
3.93
6.64
8.38
9.09
8.85
7.83
6.36
4.82
3.61
2.99
3.05
3.68
4.61
5.58
6.35
6.81
6.94
6.80
6.52
6.23
6.04
6.01
6.08
6.06
5.75
5.03
3.86
2.36
0.70
-0.96
-2.48
-3.80
-4.90
-5.83
-6.69
-7.66
-8.88
-10.41
-12.10
-13.66
-14.71
-14.90
-14.04
-12.12
-9.33
-5.98
-2.45
0.85
3.59
5.61
6.95
7.82
8.48
9.14
9.79
10.27
10.39
10.05
9.36
8.58
7.97
7.67
7.65
7.80
8.00
8.19
8.34
8.41
8.30
7.97
7.38
6.62
5.83
5.10
4.37
3.50
2.31
0.75
-1.02
-2.70
-4.01
-4.85
-5.36
-5.90
-6.85
-8.42
-10.56
-12.96
-15.13
-16.62
-17.05
-16.26
-14.27
-11.31
-7.72
-3.97
-0.50
2.35
4.44
5.80
6.62
7.11
7.44
7.68
7.85
7.96
8.00
7.99
7.94
7.84
7.76
7.74
7.85
8.06
8.29
8.40
8.28
7.91
7.38
6.83
6.37
6.05
5.86
5.73
5.56
5.25
4.67
3.68
2.23
0.39
-1.59
-3.43
-4.88
-5.86
-6.49
-6.98
-7.55
-8.29
-9.24
-10.34
-11.50
-12.61
-13.46
-13.83
-13.43
-12.11
-9.90
-7.04
-3.95
-1.07
1.31
3.02
4.09
4.59
4.71
4.59
4.42
4.33
4.37
4.51
4.71
4.90
5.10
5.35
5.67
6.02
6.26
6.27
6.04
5.70
5.46
5.45
5.65
5.83
5.67
4.98
3.79
2.34
0.93
-0.23
-1.17
-2.03
-3.01
-4.17
-5.43
-6.61
-7.60
-8.43
-9.27
-10.34
-11.72
-13.31
-14.80
-15.77
-15.85
-14.87
-12.89
-10.17
-7.06
-3.90
-0.94
1.65
3.73
5.21
6.05
6.24
5.85
5.03
4.02
3.08
2.45
2.28
2.57
3.17
3.82
4.27
4.31
3.94
3.33
2.69
2.24
2.04
2.04
2.10
2.12
2.02
1.81
1.46
0.95
0.25
-0.66
-1.78
-3.08
-4.48
-5.88
-7.16
-8.27
-9.27
-10.29
-11.52
-13.03
-14.67
-16.05
-16.63
-15.96
-13.92
-10.80
-7.18
-3.75
-0.94
1.09
2.52
3.62
4.61
5.57
6.37
6.90
7.09
7.00
6.76
6.52
6.34
6.19
5.99
5.71
5.41
5.16
5.06
5.10
5.21
5.25
5.12
4.79
4.30
3.75
3.23
2.78
2.40
2.00
1.49
0.78
-0.15
-1.29
-2.60
-4.02
-5.49
-6.96
-8.41
-9.81
-11.13
-12.37
-13.51
-14.49
-15.15
-15.25
-14.61
-13.13
-10.94
-8.30
-5.55
-2.94
-0.60
1.41
3.02
4.14
4.67
4.67
4.39
4.23
4.55
5.42
6.62
7.69
8.22
8.06
7.41
6.66
6.21
6.22
6.62
7.16
7.59
7.76
7.66
7.34
6.88
6.35
5.79
5.19
4.53
3.74
2.76
1.57
0.24
-1.09
-2.30
-3.30
-4.15
-5.02
-6.13
-7.64
-9.60
-11.86
-14.19
-16.30
-17.89
-18.74
-18.70
-17.68
-15.71
-12.92
-9.60
-6.18
-3.13
-0.79
0.71
1.59
2.18
2.88
3.83
4.94
5.93
6.49
6.43
5.82
4.88
3.89
3.10
2.65
2.60
2.94
3.62
4.57
5.65
6.72
7.57
8.02
7.92
7.21
5.99
4.46
2.89
1.49
0.30
-0.77
-1.88
-3.16
-4.54
-5.87
-6.99
-7.93
-8.88
-10.13
-11.84
-13.81
-15.57
-16.53
-16.29
-14.82
-12.43
-9.57
-6.59
-3.67
-0.82
1.92
4.39
6.35
7.57
7.96
7.63
6.89
6.02
5.24
4.61
4.14
3.87
3.86
4.15
4.70
5.37
5.98
6.41
6.62
6.65
6.59
6.45
6.15
5.57
4.63
3.34
1.81
0.24
-1.20
-2.46
-3.58
-4.66
-5.81
-7.08
-8.49
-10.05
-11.82
-13.79
-15.93
-18.01
-19.72
-20.68
-20.62
-19.43
-17.23
-14.25
-10.77
-7.07
-3.40
0.06
3.12
5.66
7.61
8.95
9.73
10.00
9.86
9.46
8.95
8.45
8.02
7.63
7.26
6.88
6.55
6.35
6.33
6.48
6.68
6.84
6.89
6.85
6.75
6.58
6.24
5.62
4.54
2.93
0.89
-1.36
-3.49
-5.23
-6.49
-7.40
-8.32
-9.58
-11.41
-13.71
-16.10
-18.05
-19.04
-18.78
-17.22
-14.59
-11.22
-7.48
-3.67
-0.02
3.31
6.19
8.50
10.16
11.19
11.70
11.91
12.02
12.15
12.27
12.26
12.02
11.53
10.95
10.49
10.30
10.38
10.61
10.77
10.74
10.54
10.28
10.05
9.81
9.36
8.49
7.12
5.41
3.67
2.21
1.21
0.54
-0.15
-1.26
-3.06
-5.59
-8.68
-12.01
-15.17
-17.80
-19.52
-20.04
-19.22
-17.11
-13.99
-10.31
-6.47
-2.83
0.45
3.30
5.70
7.58
8.83
9.35
9.18
8.51
7.65
6.89
6.41
6.21
6.18
6.17
6.10
6.01
6.01
6.23
6.65
7.15
7.48
7.42
6.84
5.78
4.36
2.74
1.04
-0.70
-2.49
-4.31
-6.11
-7.87
-9.56
-11.26
-13.06
-15.04
-17.12
-19.03
-20.34
-20.62
-19.55
-17.08
-13.40
-8.96
-4.28
0.17
4.04
7.17
9.55
11.27
12.43
13.14
13.46
13.44
13.15
12.68
12.19
11.80
11.61
11.61
11.71
11.74
11.63
11.37
11.05
10.79
10.65
10.54
10.29
9.68
8.59
7.02
5.11
3.08
1.13
-0.62
-2.14
-3.48
-4.70
-5.91
-7.23
-8.83
-10.90
-13.49
-16.45
-19.38
-21.66
-22.68
-21.99
-19.53
-15.64
-10.92
-6.05
-1.58
2.14
5.04
7.26
9.02
10.55
11.96
13.20
14.09
14.44
14.17
13.42
12.51
11.76
11.43
11.51
11.85
12.21
12.46
12.60
12.73
12.92
13.11
13.14
12.82
12.02
10.73
9.04
7.08
4.92
2.57
0.06
-2.55
-5.10
-7.42
-9.40
-11.10
-12.74
-14.56
-16.64
-18.83
-20.72
-21.77
-21.56
-19.92
-16.99
-13.12
-8.72
-4.15
0.26
4.25
7.60
10.14
11.81
12.69
12.97
12.85
12.49
11.99
11.41
10.80
10.20
9.73
9.46
9.48
9.75
10.16
10.59
10.90
11.01
10.89
10.52
9.86
8.85
7.40
5.50
3.27
0.88
-1.40
-3.41
-5.12
-6.65
-8.23
-10.06
-12.25
-14.71
-17.16
-19.16
-20.25
-20.03
-18.32
-15.20
-11.00
-6.19
-1.31
3.17
6.90
9.69
11.50
12.45
12.74
12.63
12.29
11.87
11.43
11.06
10.83
10.78
10.89
11.02
10.99
10.71
10.24
9.72
9.31
9.06
8.81
8.35
7.46
6.06
4.22
2.12
-0.02
-1.99
-3.68
-5.02
-6.12
-7.21
-8.62
-10.58
-13.12
-15.94
-18.47
-20.05
-20.19
-18.73
-15.87
-12.03
-7.71
-3.34
0.73
4.25
7.08
9.18
10.66
11.69
12.47
13.10
13.55
13.69
13.39
12.66
11.70
10.84
10.35
10.34
10.69
11.13
11.42
11.44
11.21
10.84
10.40
9.83
9.03
7.83
6.17
4.10
1.82
-0.38
-2.29
-3.75
-4.81
-5.66
-6.53
-7.69
-9.28
-11.41
-14.01
-16.90
-19.74
-22.04
-23.24
-22.88
-20.75
-17.02
-12.18
-6.94
-1.91
2.49
6.07
8.82
10.83
12.14
12.79
12.82
12.35
11.51
10.45
9.34
8.29
7.44
6.87
6.67
6.82
7.23
7.74
8.12
8.20
7.88
7.22
6.38
5.51
4.72
3.98
3.18
2.20
1.00
-0.39
-1.90
-3.48
-5.12
-6.85
-8.66
-10.48
-12.26
-13.96
-15.62
-17.31
-19.00
-20.48
-21.32
-21.02
-19.24
-15.90
-11.37
-6.31
-1.46
2.60
5.64
7.69
8.96
9.69
10.00
9.96
9.62
9.08
8.52
8.13
8.01
8.16
8.49
8.89
9.29
9.60
9.80
9.84
9.72
9.42
8.95
8.32
7.51
6.50
5.26
3.78
2.08
0.27
-1.56
-3.32
-4.97
-6.53
-8.07
-9.64
-11.20
-12.72
-14.16
-15.61
-17.19
-18.99
-20.94
-22.66
-23.65
-23.36
-21.46
-18.02
-13.44
-8.41
-3.61
0.45
3.53
5.70
7.18
8.23
9.01
9.56
9.81
9.71
9.31
8.81
8.46
8.45
8.87
9.59
10.42
11.13
11.55
11.60
11.29
10.71
9.97
9.17
8.38
7.63
6.88
6.08
5.14
3.96
2.43
0.50
-1.77
-4.21
-6.58
-8.62
-10.22
-11.43
-12.53
-13.89
-15.79
-18.23
-20.84
-22.92
-23.71
-22.67
-19.71
-15.23
-10.03
-4.97
-0.70
2.53
4.81
6.44
7.70
8.75
9.59
10.19
10.48
10.44
10.11
9.57
8.92
8.34
8.02
8.07
8.49
9.10
9.66
9.92
9.76
9.24
8.54
7.85
7.28
6.80
6.30
5.62
4.67
3.43
1.95
0.29
-1.52
-3.44
-5.44
-7.44
-9.37
-11.10
-12.63
-13.99
-15.36
-16.90
-18.66
-20.52
-22.05
-22.71
-21.96
-19.54
-15.54
-10.49
-5.14
-0.23
3.71
6.49
8.19
9.00
9.14
8.79
8.14
7.44
6.97
6.91
7.30
7.95
8.55
8.86
8.82
8.54
8.24
8.06
7.97
7.81
7.45
6.83
6.07
5.33
4.67
4.06
3.37
2.44
1.19
-0.38
-2.21
-4.21
-6.27
-8.33
-10.33
-12.27
-14.22
-16.23
-18.30
-20.27
-21.78
-22.41
-21.82
-19.90
-16.83
-12.95
-8.69
-4.45
-0.56
2.68
5.06
6.50
7.08
7.04
6.65
6.14
5.65
5.24
5.00
5.01
5.38
6.09
6.99
7.82
8.33
8.42
8.20
7.84
7.47
7.04
6.36
5.27
3.73
1.91
0.13
-1.36
-2.44
-3.20
-3.90
-4.81
-6.12
-7.87
-9.98
-12.30
-14.75
-17.25
-19.73
-22.03
-23.86
-24.77
-24.34
-22.28
-18.66
-13.93
-8.76
-3.81
0.44
3.85
6.56
8.73
10.50
11.82
12.54
12.54
11.86
10.73
9.58
8.83
8.74
9.34
10.38
11.50
12.37
12.78
12.71
12.30
11.65
10.85
9.93
8.89
7.76
6.62
5.49
4.27
2.83
1.03
-1.17
-3.62
-6.06
-8.24
-10.03
-11.53
-12.95
-14.56
-16.49
-18.68
-20.82
-22.51
-23.29
-22.88
-21.17
-18.28
-14.48
-10.07
-5.40
-0.78
3.46
7.01
9.66
11.31
12.08
12.20
11.97
11.64
11.38
11.20
11.10
11.03
10.99
11.01
11.14
11.46
11.99
12.64
13.26
13.67
13.76
13.52
13.02
12.34
11.51
10.47
9.17
7.62
5.92
4.19
2.53
0.91
-0.80
-2.65
-4.59
-6.41
-7.86
-8.86
-9.57
-10.40
-11.79
-13.98
-16.78
-19.64
-21.86
-22.82
-22.27
-20.25
-17.09
-13.16
-8.80
-4.32
-0.06
3.61
6.40
8.23
9.27
9.88
10.39
10.94
11.40
11.56
11.31
10.77
10.25
10.06
10.32
10.87
11.41
11.63
11.39
10.79
10.01
9.23
8.58
8.05
7.61
7.18
6.64
5.86
4.70
3.10
1.13
-1.01
-3.04
-4.73
-5.97
-6.89
-7.72
-8.69
-9.98
-11.62
-13.52
-15.52
-17.35
-18.67
-19.08
-18.26
-16.05
-12.60
-8.36
-3.97
-0.05
3.06
5.32
6.94
8.20
9.25
10.01
10.31
10.02
9.17
8.01
6.89
6.10
5.78
5.86
6.17
6.56
6.95
7.30
7.58
7.68
7.50
6.97
6.13
5.02
3.77
2.38
0.81
-0.98
-3.01
-5.17
-7.33
-9.34
-11.13
-12.80
-14.47
-16.23
-18.05
-19.76
-21.11
-21.87
-21.88
-21.11
-19.57
-17.28
-14.28
-10.62
-6.47
-2.11
2.06
5.65
8.40
10.19
11.13
11.35
11.05
10.42
9.64
8.91
8.46
8.41
8.76
9.38
10.02
10.46
10.61
10.50
10.29
10.08
9.85
9.44
8.65
7.38
5.69
3.75
1.83
0.09
-1.45
-2.91
-4.47
-6.19
-8.06
-9.95
-11.75
-13.37
-14.78
-15.96
-16.83
-17.23
-16.91
-15.67
-13.44
-10.36
-6.73
-2.99
0.39
3.09
4.99
6.18
6.89
7.36
7.74
8.04
8.24
8.29
8.24
8.15
8.13
8.25
8.53
8.92
9.32
9.64
9.80
9.78
9.55
9.14
8.56
7.77
6.71
5.34
3.68
1.84
-0.00
-1.70
-3.16
-4.38
-5.39
-6.24
-6.99
-7.77
-8.74
-10.03
-11.57
-13.07
-14.04
-13.94
-12.51
-9.83
-6.35
-2.65
0.76
3.63
5.91
7.65
8.93
9.73
10.01
9.74
8.99
7.91
6.74
5.68
4.90
4.40
4.13
3.96
3.77
3.52
3.23
2.98
2.85
2.82
2.81
2.67
2.28
1.56
0.53
-0.72
-2.08
-3.42
-4.60
-5.53
-6.21
-6.81
-7.58
-8.79
-10.58
-12.80
-15.02
-16.60
-16.95
-15.73
-13.04
-9.39
-5.48
-1.94
0.83
2.81
4.27
5.53
6.74
7.87
8.69
8.98
8.71
8.08
7.39
6.93
6.79
6.85
6.89
6.73
6.34
5.85
5.42
5.15
5.03
4.97
4.79
4.38
3.67
2.64
1.32
-0.23
-1.93
-3.69
-5.38
-6.85
-7.95
-8.65
-9.09
-9.57
-10.48
-12.08
-14.38
-16.99
-19.27
-20.49
-20.14
-18.10
-14.71
-10.60
-6.41
-2.63
0.54
3.16
5.33
7.20
8.74
9.91
10.62
10.87
10.74
10.41
10.05
9.77
9.59
9.48
9.36
9.22
9.10
9.05
9.12
9.29
9.43
9.36
8.95
8.16
7.10
5.94
4.88
4.01
3.27
2.50
1.56
0.41
-0.89
-2.14
-3.22
-4.13
-5.02
-6.11
-7.61
-9.54
-11.76
-13.99
-15.86
-17.05
-17.29
-16.40
-14.37
-11.27
-7.40
-3.22
0.75
4.08
6.52
8.08
8.93
9.32
9.45
9.40
9.21
8.92
8.64
8.50
8.57
8.82
9.09
9.27
9.32
9.28
9.28
9.41
9.67
9.95
10.13
10.06
9.62
8.76
7.54
6.18
4.96
4.14
3.82
3.80
3.67
3.00
1.53
-0.63
-3.09
-5.37
-7.10
-8.21
-8.83
-9.25
-9.71
-10.42
-11.45
-12.78
-14.21
-15.37
-15.85
-15.33
-13.71
-11.19
-8.14
-4.98
-2.02
0.56
2.68
4.23
5.08
5.18
4.66
3.88
3.30
3.25
3.75
4.54
5.28
5.71
5.87
5.96
6.18
6.55
6.90
7.00
6.73
6.17
5.54
5.08
4.85
4.70
4.40
3.77
2.78
1.56
0.29
-0.89
-1.93
-2.89
-3.82
-4.74
-5.62
-6.41
-7.16
-7.96
-8.93
-10.07
-11.24
-12.14
-12.39
-11.74
-10.16
-7.85
-5.17
-2.51
-0.18
1.62
2.84
3.51
3.77
3.78
3.71
3.73
3.87
4.12
4.40
4.62
4.73
4.73
4.64
4.48
4.26
4.04
3.82
3.69
3.68
3.80
3.99
4.10
3.94
3.32
2.18
0.61
-1.17
-2.85
-4.19
-5.12
-5.73
-6.24
-6.87
-7.79
-9.00
-10.45
-12.02
-13.54
-14.88
-15.83
-16.24
-15.95
-14.90
-13.11
-10.70
-7.91
-4.99
-2.21
0.18
2.05
3.38
4.27
4.86
5.27
5.59
5.83
5.97
5.97
5.83
5.58
5.32
5.15
5.23
5.67
6.44
7.42
8.35
8.97
9.13
8.77
7.98
6.86
5.51
4.01
2.47
0.99
-0.31
-1.41
-2.36
-3.31
-4.37
-5.56
-6.76
-7.86
-8.82
-9.79
-10.98
-12.47
-14.15
-15.65
-16.52
-16.42
-15.26
-13.21
-10.60
-7.79
-5.02
-2.47
-0.22
1.69
3.24
4.46
5.36
5.95
6.22
6.14
5.73
5.14
4.64
4.49
4.84
5.59
6.47
7.10
7.26
6.92
6.28
5.59
4.99
4.47
3.98
3.40
2.75
2.07
1.40
0.67
-0.26
-1.54
-3.16
-4.99
-6.74
-8.18
-9.19
-9.78
-10.09
-10.31
-10.64
-11.26
-12.27
-13.63
-15.10
-16.26
-16.67
-15.98
-14.11
-11.26
-7.87
-4.37
-1.15
1.62
3.85
5.49
6.48
6.79
6.44
5.62
4.60
3.68
3.06
2.78
2.76
2.87
3.02
3.19
3.43
3.78
4.23
4.68
5.02
5.13
4.94
4.47
3.77
2.93
1.99
0.98
-0.09
-1.19
-2.26
-3.20
-3.96
-4.62
-5.34
-6.37
-7.89
-9.83
-11.92
-13.75
-14.89
-15.08
-14.24
-12.51
-10.17
-7.48
-4.66
-1.84
0.88
3.42
5.67
7.52
8.83
9.55
9.66
9.28
8.58
7.76
6.97
6.31
5.83
5.53
5.39
5.41
5.53
5.69
5.80
5.77
5.52
5.02
4.29
3.40
2.44
1.46
0.49
-0.47
-1.48
-2.51
-3.53
-4.49
-5.43
-6.42
-7.60
-9.15
-11.10
-13.35
-15.57
-17.28
-18.01
-17.48
-15.75
-13.15
-10.17
-7.21
-4.45
-1.87
0.66
3.19
5.62
7.76
9.42
10.55
11.24
11.65
11.90
12.05
12.04
11.84
11.45
10.96
10.43
9.96
9.52
9.11
8.72
8.38
8.18
8.14
8.17
8.10
7.68
6.74
5.29
3.49
1.56
-0.28
-1.94
-3.40
-4.70
-5.91
-7.15
-8.57
-10.31
-12.39
-14.60
-16.52
-17.62
-17.51
-16.05
-13.44
-10.11
-6.58
-3.27
-0.42
1.90
3.73
5.19
6.37
7.37
8.23
8.95
9.45
9.70
9.69
9.52
9.29
9.10
8.96
8.85
8.77
8.75
8.92
9.38
10.06
10.72
11.00
10.61
9.43
7.65
5.61
3.65
1.99
0.68
-0.33
-1.11
-1.78
-2.46
-3.33
-4.57
-6.26
-8.31
-10.46
-12.34
-13.64
-14.20
-13.97
-12.99
-11.34
-9.11
-6.44
-3.58
-0.87
1.41
3.12
4.29
5.08
5.63
5.94
5.92
5.47
4.62
3.56
2.57
1.85
1.48
1.40
1.50
1.76
2.23
2.97
3.97
5.03
5.87
6.20
5.88
4.96
3.69
2.37
1.21
0.32
-0.36
-1.00
-1.82
-3.00
-4.67
-6.79
-9.20
-11.59
-13.60
-14.89
-15.22
-14.49
-12.72
-10.05
-6.74
-3.09
0.51
3.72
6.29
8.14
9.36
10.13
10.63
10.96
11.17
11.29
11.33
11.32
11.29
11.24
11.18
11.18
11.29
11.53
11.80
11.94
11.82
11.36
10.65
9.80
8.93
8.02
6.94
5.58
3.91
2.06
0.20
-1.51
-3.05
-4.53
-6.13
-8.03
-10.33
-12.99
-15.84
-18.55
-20.67
-21.74
-21.43
-19.65
-16.65
-12.91
-9.01
-5.43
-2.44
-0.09
1.72
3.13
4.26
5.17
5.86
6.31
6.50
6.45
6.24
5.95
5.68
5.49
5.38
5.32
5.30
5.34
5.51
5.86
6.35
6.84
7.12
7.01
6.46
5.57
4.52
3.53
2.69
1.95
1.18
0.22
-0.98
-2.41
-3.94
-5.49
-7.03
-8.60
-10.22
-11.75
-12.91
-13.35
-12.77
-11.11
-8.57
-5.54
-2.46
0.34
2.71
4.61
6.07
7.14
7.87
8.31
8.51
8.53
8.42
8.18
7.81
7.34
6.84
6.38
6.04
5.86
5.85
5.97
6.20
6.47
6.70
6.79
6.65
6.25
5.60
4.77
3.81
2.70
1.42
-0.04
-1.60
-3.17
-4.62
-5.91
-7.12
-8.39
-9.80
-11.33
-12.86
-14.17
-15.05
-15.33
-14.91
-13.72
-11.78
-9.17
-6.10
-2.88
0.13
2.57
4.20
4.98
5.04
4.63
4.04
3.45
2.93
2.47
2.03
1.63
1.37
1.34
1.56
1.95
2.38
2.77
3.12
3.48
3.89
4.27
4.41
4.14
3.39
2.26
0.97
-0.24
-1.30
-2.22
-3.10
-4.03
-5.05
-6.17
-7.42
-8.87
-10.51
-12.22
-13.67
-14.43
-14.10
-12.53
-9.88
-6.61
-3.30
-0.42
1.77
3.27
4.25
4.88
5.28
5.44
5.35
5.04
4.62
4.28
4.17
4.33
4.67
5.02
5.21
5.20
5.06
4.90
4.84
4.94
5.11
5.23
5.19
4.87
4.25
3.31
2.05
0.56
-1.04
-2.58
-3.90
-4.96
-5.86
-6.81
-8.01
-9.55
-11.39
-13.36
-15.24
-16.81
-17.89
-18.27
-17.74
-16.12
-13.37
-9.72
-5.66
-1.76
1.48
3.84
5.41
6.47
7.26
7.93
8.43
8.67
8.56
8.15
7.61
7.16
6.98
7.13
7.55
8.10
8.61
8.92
8.96
8.74
8.30
7.67
6.88
5.91
4.81
3.68
2.63
1.72
0.91
0.09
-0.82
-1.84
-2.86
-3.79
-4.61
-5.45
-6.49
-7.85
-9.48
-11.17
-12.62
-13.50
-13.64
-12.91
-11.28
-8.87
-5.90
-2.72
0.27
2.79
4.76
6.30
7.62
8.79
9.73
10.22
10.14
9.50
8.59
7.76
7.22
6.98
6.88
6.75
6.58
6.48
6.55
6.81
7.13
7.26
7.02
6.32
5.23
3.88
2.40
0.91
-0.51
-1.76
-2.81
-3.67
-4.40
-5.13
-6.03
-7.24
-8.86
-10.87
-13.12
-15.28
-16.91
-17.60
-17.09
-15.45
-12.97
-10.10
-7.22
-4.53
-2.08
0.15
2.13
3.76
4.89
5.46
5.51
5.19
4.72
4.29
4.10
4.21
4.63
5.24
5.83
6.18
6.15
5.73
5.10
4.49
4.07
3.85
3.68
3.29
2.48
1.18
-0.50
-2.32
-4.04
-5.48
-6.59
-7.49
-8.43
-9.65
-11.35
-13.54
-15.95
-18.07
-19.33
-19.25
-17.68
-14.88
-11.38
-7.77
-4.51
-1.77
0.47
2.32
3.84
5.03
5.81
6.22
6.37
6.46
6.67
7.04
7.46
7.71
7.58
7.02
6.14
5.19
4.44
4.11
4.26
4.80
5.51
6.12
6.35
5.99
4.97
3.42
1.62
-0.11
-1.54
-2.62
-3.47
-4.32
-5.35
-6.67
-8.30
-10.17
-12.16
-14.05
-15.49
-16.06
-15.45
-13.53
-10.53
-6.89
-3.13
0.33
3.29
5.75
7.75
9.35
10.51
11.20
11.43
11.25
10.78
10.17
9.54
9.03
8.74
8.74
8.96
9.29
9.52
9.52
9.23
8.74
8.15
7.57
6.97
6.25
5.35
4.29
3.24
2.43
1.93
1.61
1.11
0.09
-1.65
-3.94
-6.44
-8.74
-10.58
-11.93
-12.91
-13.62
-13.96
-13.72
-12.69
-10.80
-8.28
-5.47
-2.76
-0.35
1.76
3.68
5.55
7.36
8.97
10.20
10.90
11.01
10.58
9.71
8.58
7.41
6.48
6.00
6.10
6.67
7.39
7.88
7.83
7.17
6.06
4.83
3.75
2.93
2.33
1.75
1.03
0.13
-0.89
-1.93
-2.92
-3.88
-4.90
-6.07
-7.39
-8.76
-10.02
-10.97
-11.48
-11.46
-10.84
-9.59
-7.73
-5.35
-2.65
0.06
2.48
4.40
5.79
6.76
7.49
8.06
8.48
8.68
8.59
8.24
7.77
7.34
7.10
7.12
7.37
7.73
8.06
8.25
8.22
7.96
7.50
6.87
6.13
5.31
4.42
3.49
2.53
1.55
0.56
-0.40
-1.34
-2.30
-3.39
-4.75
-6.52
-8.67
-10.96
-12.91
-14.01
-13.91
-12.61
-10.48
-8.04
-5.70
-3.56
-1.47
0.77
3.17
5.46
7.22
8.16
8.23
7.71
6.99
6.41
6.10
6.04
6.12
6.26
6.42
6.53
6.49
6.21
5.70
5.01
4.35
3.88
3.65
3.61
3.60
3.47
3.15
2.65
2.02
1.33
0.56
-0.32
-1.38
-2.61
-3.98
-5.39
-6.73
-7.95
-9.02
-9.90
-10.47
-10.58
-10.10
-9.00
-7.39
-5.48
-3.47
-1.52
0.32
2.01
3.52
4.76
5.67
6.22
6.43
6.38
6.14
5.79
5.43
5.20
5.22
5.53
6.05
6.56
6.87
6.88
6.61
6.18
5.71
5.20
4.61
3.91
3.09
2.18
1.22
0.22
-0.83
-1.86
-2.73
-3.30
-3.47
-3.32
-3.16
-3.40
-4.32
-6.00
-8.15
-10.25
-11.79
-12.36
-11.86
-10.51
-8.67
-6.73
-4.90
-3.22
-1.55
0.20
2.01
3.64
4.75
5.09
4.64
3.71
2.76
2.24
2.36
3.00
3.84
4.46
4.62
4.29
3.59
2.77
2.07
1.59
1.30
1.11
0.89
0.54
0.05
-0.54
-1.16
-1.80
-2.54
-3.42
-4.44
-5.53
-6.51
-7.29
-7.88
-8.41
-9.06
-9.87
-10.69
-11.22
-11.17
-10.42
-9.04
-7.29
-5.42
-3.58
-1.81
-0.07
1.56
2.89
3.68
3.78
3.23
2.35
1.55
1.16
1.31
1.87
2.59
3.23
3.64
3.81
3.80
3.64
3.29
2.74
2.02
1.24
0.58
0.15
-0.09
-0.27
-0.57
-1.12
-1.88
-2.74
-3.57
-4.31
-5.04
-5.90
-7.03
-8.42
-9.95
-11.34
-12.27
-12.41
-11.57
-9.75
-7.20
-4.37
-1.73
0.31
1.64
2.37
2.74
2.98
3.20
3.38
3.49
3.51
3.49
3.51
3.58
3.67
3.71
3.71
3.72
3.79
3.97
4.24
4.52
4.70
4.70
4.45
3.89
2.99
1.79
0.46
-0.75
-1.59
-1.96
-2.04
-2.14
-2.65
-3.83
-5.66
-7.88
-10.09
-11.85
-12.86
-12.95
-12.12
-10.53
-8.44
-6.19
-4.09
-2.31
-0.84
0.50
1.91
3.44
5.00
6.33
7.18
7.40
7.06
6.39
5.70
5.22
5.04
5.07
5.17
5.16
4.98
4.70
4.45
4.40
4.57
4.91
5.22
5.27
4.94
4.20
3.12
1.85
0.56
-0.65
-1.69
-2.59
-3.45
-4.39
-5.59
-7.10
-8.88
-10.71
-12.31
-13.34
-13.61
-13.07
-11.78
-9.97
-7.87
-5.68
-3.56
-1.59
0.18
1.75
3.06
4.07
4.77
5.19
5.40
5.49
5.50
5.39
5.16
4.76
4.26
3.75
3.33
3.11
3.13
3.37
3.78
4.24
4.55
4.52
3.99
2.91
1.42
-0.23
-1.74
-2.95
-3.86
-4.61
-5.43
-6.52
-7.96
-9.68
-11.47
-13.06
-14.14
-14.53
-14.13
-12.97
-11.23
-9.08
-6.76
-4.46
-2.32
-0.46
1.10
2.35
3.32
4.00
4.40
4.51
4.40
4.21
4.09
4.16
4.37
4.57
4.53
4.13
3.43
2.61
1.94
1.55
1.38
1.22
0.83
0.11
-0.88
-1.96
-2.93
-3.73
-4.43
-5.18
-6.11
-7.29
-8.71
-10.31
-12.02
-13.68
-15.01
-15.65
-15.30
-13.84
-11.48
-8.63
-5.78
-3.29
-1.28
0.36
1.76
3.01
4.11
5.03
5.77
6.46
7.20
8.03
8.85
9.45
9.63
9.32
8.61
7.71
6.84
6.18
5.77
5.56
5.40
5.16
4.69
3.92
2.84
1.56
0.21
-1.05
-2.14
-3.08
-3.98
-4.95
-6.12
-7.53
-9.18
-11.00
-12.77
-14.19
-14.92
-14.67
-13.40
-11.26
-8.61
-5.74
-2.89
-0.16
2.40
4.71
6.68
8.25
9.43
10.29
10.87
11.14
11.04
10.52
9.67
8.73
8.00
7.69
7.82
8.24
8.76
9.25
9.64
9.87
9.85
9.44
8.55
7.15
5.41
3.56
1.89
0.58
-0.35
-1.00
-1.64
-2.48
-3.71
-5.42
-7.57
-9.95
-12.22
-13.93
-14.66
-14.13
-12.33
-9.53
-6.19
-2.77
0.39
3.19
5.62
7.69
9.35
10.46
10.97
10.92
10.49
9.93
9.43
9.07
8.86
8.75
8.70
8.73
8.83
8.94
8.98
8.90
8.66
8.29
7.78
7.10
6.20
5.12
3.90
2.67
1.48
0.36
-0.72
-1.77
-2.77
-3.73
-4.75
-6.09
-7.94
-10.35
-13.01
-15.29
-16.49
-16.12
-14.16
-11.00
-7.29
-3.62
-0.36
2.36
4.56
6.24
7.41
8.02
8.04
7.56
6.71
5.76
4.95
4.53
4.58
5.03
5.66
6.21
6.47
6.37
6.00
5.52
5.06
4.67
4.33
3.94
3.40
2.61
1.52
0.12
-1.50
-3.19
-4.78
-6.14
-7.32
-8.48
-9.85
-11.49
-13.27
-14.77
-15.47
-14.97
-13.15
-10.19
-6.57
-2.86
0.50
3.21
5.20
6.58
7.47
8.00
8.25
8.24
8.02
7.73
7.56
7.71
8.28
9.15
10.00
10.48
10.36
9.65
8.61
7.62
6.96
6.64
6.47
6.14
5.48
4.47
3.26
2.00
0.73
-0.58
-2.03
-3.63
-5.26
-6.80
-8.17
-9.47
-10.91
-12.64
-14.60
-16.42
-17.59
-17.64
-16.40
-13.98
-10.76
-7.16
-3.54
-0.12
2.96
5.56
7.57
8.85
9.42
9.42
9.13
8.82
8.68
8.76
8.98
9.21
9.32
9.25
9.03
8.72
8.40
8.11
7.86
7.64
7.48
7.38
7.30
7.09
6.54
5.49
3.95
2.16
0.44
-0.93
-1.87
-2.53
-3.20
-4.09
-5.31
-6.83
-8.57
-10.48
-12.41
-14.11
-15.18
-15.18
-13.88
-11.37
-8.08
-4.57
-1.30
1.51
3.84
5.82
7.54
8.93
9.91
10.36
10.28
9.80
9.12
8.49
8.09
8.02
8.27
8.73
9.28
9.77
10.07
10.06
9.69
8.98
8.04
7.02
6.05
5.16
4.30
3.39
2.38
1.27
0.10
-1.12
-2.47
-4.01
-5.74
-7.54
-9.23
-10.67
-11.90
-13.07
-14.34
-15.66
-16.73
-17.10
-16.35
-14.33
-11.30
-7.79
-4.42
-1.64
0.41
1.91
3.12
4.25
5.30
6.08
6.40
6.24
5.75
5.24
4.98
5.04
5.30
5.52
5.48
5.13
4.57
3.96
3.43
3.02
2.62
2.13
1.44
0.58
-0.33
-1.12
-1.66
-1.97
-2.19
-2.58
-3.35
-4.61
-6.31
-8.31
-10.47
-12.59
-14.43
-15.70
-16.06
-15.23
-13.15
-10.04
-6.38
-2.77
0.28
2.48
3.84
4.57
4.94
5.18
5.37
5.54
5.68
5.80
5.89
5.89
5.66
5.09
4.17
3.08
2.15
1.70
1.92
2.67
3.57
4.14
4.05
3.22
1.82
0.15
-1.54
-3.06
-4.33
-5.38
-6.28
-7.10
-8.04
-9.24
-10.86
-12.90
-15.15
-17.18
-18.49
-18.65
-17.45
-15.02
-11.74
-8.07
-4.39
-0.99
1.96
4.38
6.21
7.43
8.14
8.49
8.64
8.72
8.73
8.57
8.17
7.51
6.70
5.95
5.46
5.27
5.34
5.51
5.63
5.59
5.30
4.69
3.68
2.26
0.48
-1.46
-3.28
-4.75
-5.77
-6.46
-7.14
-8.17
-9.78
-11.95
-14.36
-16.45
-17.61
-17.36
-15.54
-12.37
-8.40
-4.26
-0.50
2.60
5.01
6.90
8.41
9.62
10.49
10.99
11.12
10.99
10.72
10.39
10.00
9.49
8.82
8.03
7.25
6.68
6.46
6.65
7.08
7.49
7.58
7.12
6.07
4.57
2.89
1.32
0.03
-0.91
-1.61
-2.26
-3.10
-4.40
-6.31
-8.80
-11.58
-14.12
-15.83
-16.22
-15.08
-12.61
-9.24
-5.52
-1.88
1.41
4.27
6.66
8.49
9.66
10.05
9.74
8.93
7.96
7.16
6.71
6.62
6.72
6.84
6.84
6.76
6.67
6.63
6.57
6.37
5.91
5.14
4.15
3.10
2.09
1.13
0.16
-0.89
-2.04
-3.23
-4.42
-5.60
-6.84
-8.29
-10.00
-11.90
-13.72
-15.05
-15.45
-14.68
-12.69
-9.79
-6.44
-3.13
-0.23
2.10
3.89
5.26
6.34
7.17
7.74
8.05
8.15
8.11
8.03
7.95
7.86
7.69
7.39
6.99
6.58
6.30
6.26
6.49
6.85
7.12
7.04
6.43
5.24
3.59
1.69
-0.20
-1.87
-3.23
-4.35
-5.36
-6.48
-7.80
-9.32
-10.90
-12.28
-13.26
-13.67
-13.40
-12.42
-10.79
-8.57
-5.91
-3.00
-0.04
2.75
5.16
7.06
8.36
9.05
9.24
9.13
8.91
8.74
8.66
8.57
8.39
8.10
7.83
7.75
7.93
8.35
8.81
9.09
9.03
8.60
7.88
6.96
5.87
4.59
3.05
1.28
-0.56
-2.24
-3.48
-4.20
-4.49
-4.70
-5.22
-6.37
-8.22
-10.58
-13.02
-14.98
-15.98
-15.72
-14.14
-11.42
-7.98
-4.30
-0.85
2.01
4.11
5.50
6.33
6.80
7.11
7.35
7.56
7.69
7.68
7.44
6.99
6.41
5.86
5.50
5.39
5.50
5.68
5.74
5.58
5.25
4.93
4.83
5.08
5.58
6.07
6.17
5.65
4.50
2.97
1.45
0.28
-0.41
-0.71
-0.82
-1.00
-1.42
-2.16
-3.22
-4.52
-5.87
-7.00
-7.62
-7.54
-6.74
-5.38
-3.69
-1.90
-0.11
1.65
3.38
5.03
6.46
7.49
7.93
7.78
7.14
6.28
5.47
4.96
4.84
5.04
5.37
5.60
5.60
5.33
4.85
4.26
3.64
3.02
2.38
1.66
0.85
-0.07
-1.03
-1.95
-2.69
-3.20
-3.50
-3.74
-4.05
-4.56
-5.26
-6.10
-7.02
-8.02
-9.15
-10.45
-11.83
-13.05
-13.80
-13.76
-12.78
-10.93
-8.43
-5.64
-2.94
-0.64
1.07
2.12
2.64
2.86
2.99
3.14
3.27
3.20
2.83
2.16
1.41
0.84
0.66
0.84
1.18
1.38
1.28
0.88
0.36
-0.10
-0.40
-0.62
-0.93
-1.49
-2.32
-3.34
-4.34
-5.19
-5.81
-6.26
-6.70
-7.28
-8.15
-9.32
-10.69
-12.00
-12.98
-13.35
-12.97
-11.83
-10.05
-7.85
-5.50
-3.24
-1.28
0.28
1.45
2.33
3.04
3.71
4.33
4.83
5.11
5.07
4.75
4.29
3.84
3.52
3.36
3.26
3.17
3.06
2.97
3.00
3.17
3.40
3.53
3.34
2.67
1.55
0.10
-1.40
-2.73
-3.71
-4.30
-4.61
-4.85
-5.30
-6.19
-7.62
-9.47
-11.38
-12.84
-13.39
-12.75
-10.96
-8.39
-5.57
-3.03
-1.03
0.44
1.61
2.79
4.16
5.68
7.14
8.25
8.82
8.85
8.52
8.03
7.56
7.17
6.84
6.58
6.42
6.45
6.69
7.01
7.20
7.00
6.26
5.07
3.66
2.39
1.49
1.02
0.80
0.58
0.13
-0.64
-1.65
-2.77
-3.91
-5.05
-6.29
-7.71
-9.32
-10.99
-12.45
-13.37
-13.49
-12.70
-11.09
-8.88
-6.35
-3.79
-1.45
0.44
1.75
2.45
2.69
2.71
2.78
3.05
3.50
3.92
4.06
3.79
3.19
2.44
1.81
1.43
1.30
1.33
1.45
1.63
1.87
2.16
2.35
2.24
1.61
0.39
-1.22
-2.86
-4.14
-4.86
-5.13
-5.31
-5.80
-6.88
-8.55
-10.61
-12.74
-14.62
-16.01
-16.71
-16.59
-15.56
-13.68
-11.12
-8.18
-5.16
-2.30
0.31
2.57
4.43
5.77
6.53
6.70
6.44
5.95
5.43
5.03
4.77
4.59
4.49
4.46
4.56
4.82
5.22
5.66
5.97
6.05
5.80
5.23
4.39
3.36
2.20
0.96
-0.34
-1.62
-2.83
-3.88
-4.79
-5.69
-6.76
-8.17
-9.97
-11.96
-13.76
-14.96
-15.22
-14.46
-12.86
-10.74
-8.43
-6.08
-3.70
-1.23
1.36
3.92
6.21
7.93
8.91
9.14
8.83
8.34
7.99
7.97
8.25
8.62
8.87
8.85
8.59
8.21
7.87
7.66
7.54
7.45
7.29
7.01
6.55
5.86
4.88
3.63
2.18
0.72
-0.59
-1.63
-2.47
-3.30
-4.37
-5.86
-7.80
-10.03
-12.25
-14.08
-15.16
-15.19
-14.03
-11.76
-8.64
-5.09
-1.53
1.70
4.40
6.53
8.16
9.39
10.30
10.94
11.33
11.46
11.32
10.91
10.29
9.52
8.73
8.05
7.59
7.47
7.67
8.08
8.55
8.92
9.06
8.93
8.56
7.97
7.18
6.18
5.02
3.77
2.50
1.26
0.04
-1.25
-2.71
-4.35
-6.11
-7.84
-9.42
-10.86
-12.17
-13.37
-14.30
-14.66
-14.04
-12.15
-9.01
-5.05
-0.94
2.66
5.34
7.04
8.02
8.64
9.10
9.40
9.39
8.98
8.20
7.28
6.48
5.93
5.63
5.44
5.26
5.07
4.96
5.01
5.21
5.41
5.39
4.96
4.06
2.77
1.31
-0.07
-1.20
-2.00
-2.55
-2.96
-3.40
-4.04
-5.05
-6.56
-8.60
-10.99
-13.32
-15.05
-15.70
-14.97
-12.90
-9.83
-6.21
-2.53
0.82
3.57
5.51
6.53
6.70
6.25
5.52
4.86
4.52
4.54
4.84
5.30
5.79
6.18
6.36
6.25
5.83
5.14
4.34
3.60
3.08
2.81
2.71
2.59
2.24
1.49
0.30
-1.24
-2.88
-4.35
-5.45
-6.15
-6.59
-7.06
-7.87
-9.19
-11.01
-13.06
-14.87
-15.94
-15.86
-14.47
-11.93
-8.66
-5.19
-1.97
0.77
3.03
4.92
6.52
7.82
8.70
9.11
9.13
8.92
8.70
8.60
8.60
8.60
8.50
8.28
8.03
7.85
7.75
7.63
7.34
6.76
5.94
5.01
4.12
3.33
2.64
1.97
1.27
0.60
0.03
-0.37
-0.71
-1.18
-1.97
-3.19
-4.82
-6.74
-8.82
-10.94
-12.99
-14.71
-15.72
-15.62
-14.19
-11.57
-8.25
-4.90
-2.05
0.12
1.78
3.25
4.80
6.44
7.99
9.23
10.00
10.30
10.21
9.89
9.44
8.95
8.51
8.20
8.09
8.17
8.37
8.64
8.92
9.14
9.23
9.10
8.68
7.96
7.03
6.08
5.30
4.81
4.62
4.61
4.54
4.18
3.34
1.93
0.05
-2.04
-3.97
-5.46
-6.38
-6.90
-7.40
-8.27
-9.73
-11.66
-13.69
-15.29
-15.99
-15.57
-14.05
-11.68
-8.82
-5.83
-3.00
-0.55
1.47
3.06
4.32
5.34
6.13
6.65
6.78
6.46
5.75
4.85
4.04
3.59
3.62
4.10
4.86
5.71
6.49
7.15
7.67
8.01
8.13
7.96
7.48
6.74
5.83
4.87
3.96
3.15
2.49
1.96
1.49
1.00
0.37
-0.50
-1.66
-3.02
-4.46
-5.82
-7.03
-8.16
-9.35
-10.76
-12.42
-14.12
-15.50
-16.12
-15.72
-14.25
-11.94
-9.14
-6.19
-3.35
-0.74
1.57
3.49
4.92
5.75
5.98
5.67
4.99
4.14
3.32
2.69
2.42
2.60
3.20
4.05
4.91
5.53
5.73
5.54
5.11
4.62
4.26
4.07
4.02
3.99
3.91
3.70
3.33
2.77
2.00
1.03
-0.12
-1.35
-2.56
-3.70
-4.75
-5.76
-6.83
-8.08
-9.55
-11.20
-12.88
-14.35
-15.37
-15.68
-15.12
-13.66
-11.39
-8.57
-5.60
-2.84
-0.57
1.13
2.42
3.53
4.66
5.80
6.79
7.38
7.44
7.01
6.37
5.83
5.61
5.71
5.96
6.10
5.98
5.63
5.19
4.78
4.48
4.25
4.01
3.70
3.36
3.02
2.68
2.26
1.65
0.76
-0.39
-1.68
-2.95
-4.08
-5.03
-5.82
-6.52
-7.20
-7.94
-8.83
-9.95
-11.30
-12.69
-13.76
-14.08
-13.36
-11.53
-8.84
-5.72
-2.69
-0.09
1.94
3.41
4.46
5.19
5.67
5.93
6.04
6.10
6.22
6.47
6.85
7.25
7.53
7.55
7.26
6.76
6.21
5.81
5.66
5.73
5.87
5.97
5.96
5.85
5.69
5.46
5.08
4.42
3.47
2.28
0.99
-0.28
-1.47
-2.63
-3.86
-5.16
-6.51
-7.82
-9.07
-10.30
-11.61
-13.04
-14.47
-15.62
-16.15
-15.79
-14.48
-12.37
-9.83
-7.21
-4.77
-2.61
-0.68
1.09
2.68
4.00
4.86
5.16
4.92
4.39
3.88
3.72
4.05
4.70
5.37
5.69
5.52
4.94
4.30
3.90
3.91
4.21
4.51
4.54
4.22
3.65
3.02
2.38
1.67
0.72
-0.55
-2.03
-3.46
-4.56
-5.21
-5.55
-5.91
-6.63
-7.94
-9.81
-11.98
-14.05
-15.65
-16.50
-16.45
-15.52
-13.78
-11.39
-8.56
-5.56
-2.69
-0.23
1.69
3.10
4.15
5.04
5.84
6.49
6.80
6.67
6.10
5.26
4.42
3.80
3.51
3.54
3.81
4.23
4.76
5.40
6.07
6.66
6.94
6.70
5.84
4.39
2.57
0.64
-1.15
-2.68
-3.92
-4.96
-5.92
-6.94
-8.16
-9.65
-11.44
-13.47
-15.57
-17.48
-18.91
-19.61
-19.40
-18.23
-16.13
-13.27
-9.94
-6.48
-3.19
-0.30
2.15
4.19
5.89
7.24
8.17
8.59
8.53
8.13
7.64
7.26
7.10
7.08
7.06
6.97
6.81
6.70
6.73
6.91
7.16
7.30
7.24
6.94
6.42
5.75
4.93
3.95
2.73
1.27
-0.36
-2.02
-3.52
-4.75
-5.71
-6.57
-7.61
-9.07
-11.08
-13.58
-16.32
-18.86
-20.73
-21.51
-20.94
-19.03
-16.02
-12.34
-8.44
-4.64
-1.13
2.06
4.90
7.28
9.03
10.01
10.23
9.92
9.46
9.23
9.44
10.09
11.00
11.97
12.81
13.47
13.94
14.22
14.30
14.14
13.70
12.97
12.00
10.90
9.81
8.87
8.15
7.65
7.29
6.89
6.27
5.28
3.86
2.08
0.11
-1.85
-3.63
-5.14
-6.39
-7.47
-8.50
-9.65
-11.01
-12.70
-14.73
-17.00
-19.25
-21.05
-21.91
-21.44
-19.54
-16.40
-12.50
-8.38
-4.47
-0.99
1.96
4.39
6.33
7.81
8.92
9.76
10.44
11.01
11.48
11.87
12.19
12.55
13.04
13.65
14.31
14.85
15.14
15.13
14.87
14.45
13.89
13.16
12.20
11.02
9.74
8.53
7.57
6.87
6.29
5.59
4.48
2.84
0.73
-1.61
-3.84
-5.66
-6.94
-7.76
-8.32
-8.87
-9.61
-10.65
-12.04
-13.74
-15.66
-17.61
-19.27
-20.32
-20.40
-19.35
-17.20
-14.18
-10.60
-6.78
-2.99
0.57
3.72
6.29
8.14
9.22
9.59
9.40
8.89
8.31
7.94
7.94
8.38
9.15
10.01
10.68
10.97
10.91
10.70
10.67
11.03
11.77
12.64
13.26
13.29
12.61
11.35
9.81
8.29
6.92
5.66
4.33
2.77
0.99
-0.88
-2.65
-4.23
-5.60
-6.89
-8.15
-9.43
-10.71
-12.00
-13.45
-15.24
-17.52
-20.19
-22.87
-24.96
-25.82
-25.03
-22.53
-18.61
-13.90
-9.08
-4.69
-1.04
1.90
4.34
6.51
8.48
10.17
11.41
12.08
12.24
12.13
12.01
12.06
12.29
12.56
12.73
12.72
12.61
12.53
12.61
12.87
13.19
13.41
13.36
13.00
12.39
11.67
10.96
10.29
9.58
8.73
7.69
6.44
5.05
3.53
1.89
0.09
-1.85
-3.83
-5.74
-7.42
-8.81
-9.96
-11.06
-12.36
-14.11
-16.43
-19.23
-22.17
-24.68
-26.15
-26.07
-24.28
-21.01
-16.74
-12.12
-7.62
-3.51
0.15
3.41
6.29
8.73
10.62
11.82
12.34
12.28
11.89
11.42
11.05
10.87
10.87
10.97
11.13
11.33
11.59
11.87
12.09
12.15
11.98
11.56
10.96
10.27
9.47
8.46
7.09
5.25
2.99
0.49
-2.01
-4.32
-6.41
-8.33
-10.13
-11.85
-13.46
-14.98
-16.50
-18.10
-19.85
-21.59
-22.97
-23.48
-22.68
-20.38
-16.74
-12.21
-7.41
-2.87
1.04
4.18
6.61
8.45
9.81
10.72
11.16
11.13
10.73
10.20
9.86
9.93
10.46
11.32
12.22
12.87
13.06
12.78
12.13
11.31
10.47
9.72
9.03
8.31
7.45
6.34
4.96
3.33
1.54
-0.29
-2.10
-3.90
-5.77
-7.84
-10.19
-12.83
-15.62
-18.26
-20.31
-21.32
-20.91
-18.93
-15.50
-11.03
-6.04
-1.10
3.36
7.04
9.81
11.68
12.77
13.23
13.24
12.95
12.45
11.82
11.10
10.35
9.62
8.95
8.43
8.09
7.95
7.96
7.98
7.88
7.56
7.04
6.40
5.75
5.12
4.41
3.43
2.01
0.11
-2.12
-4.39
-6.38
-7.89
-8.93
-9.76
-10.71
-12.12
-14.19
-16.91
-20.05
-23.27
-26.15
-28.27
-29.24
-28.75
-26.62
-22.90
-17.98
-12.49
-7.20
-2.70
0.73
3.20
5.10
6.82
8.53
10.21
11.61
12.48
12.68
12.28
11.55
10.83
10.42
10.50
11.03
11.86
12.77
13.58
14.24
14.77
15.25
15.64
15.80
15.48
14.47
12.76
10.57
8.29
6.31
4.77
3.57
2.43
1.10
-0.50
-2.26
-3.99
-5.64
-7.27
-9.06
-11.09
-13.35
-15.74
-18.19
-20.75
-23.49
-26.29
-28.78
-30.26
-30.08
-27.85
-23.65
-18.03
-11.77
-5.60
-0.04
4.60
8.16
10.59
11.94
12.44
12.46
12.43
12.66
13.26
14.06
14.82
15.29
15.41
15.22
14.88
14.53
14.24
14.10
14.19
14.54
15.12
15.70
15.98
15.63
14.49
12.66
10.50
8.40
6.72
5.48
4.51
3.49
2.14
0.37
-1.73
-3.94
-6.03
-7.88
-9.52
-11.03
-12.51
-14.06
-15.81
-17.91
-20.48
-23.47
-26.53
-29.04
-30.20
-29.35
-26.24
-21.15
-14.82
-8.19
-2.07
3.02
6.88
9.64
11.55
12.85
13.69
14.13
14.15
13.77
13.08
12.31
11.72
11.54
11.83
12.51
13.39
14.23
14.87
15.19
15.12
14.63
13.75
12.59
11.35
10.20
9.26
8.46
7.60
6.42
4.76
2.63
0.24
-2.07
-4.05
-5.60
-6.84
-8.06
-9.59
-11.64
-14.27
-17.31
-20.46
-23.27
-25.22
-25.79
-24.60
-21.53
-16.86
-11.18
-5.28
0.11
4.53
7.84
10.12
11.55
12.23
12.19
11.42
9.99
8.12
6.18
4.56
3.57
3.34
3.79
4.65
5.62
6.44
6.98
7.19
7.07
6.67
5.97
4.99
3.75
2.29
0.65
-1.14
-3.06
-5.06
-7.04
-8.91
-10.64
-12.34
-14.28
-16.71
-19.70
-22.99
-25.96
-27.83
-27.93
-26.01
-22.31
-17.44
-12.12
-6.93
-2.16
2.07
5.73
8.70
10.85
12.04
12.33
11.93
11.16
10.30
9.52
8.85
8.24
7.66
7.14
6.75
6.55
6.50
6.54
6.56
6.50
6.37
6.24
6.17
6.11
5.87
5.18
3.82
1.70
-0.99
-3.88
-6.55
-8.71
-10.35
-11.79
-13.50
-15.93
-19.26
-23.28
-27.41
-30.83
-32.70
-32.46
-29.94
-25.43
-19.61
-13.26
-7.09
-1.57
3.12
6.98
10.06
12.42
14.09
15.16
15.82
16.29
16.73
17.13
17.35
17.17
16.51
15.50
14.44
13.74
13.63
14.15
15.06
15.99
16.58
16.59
16.00
14.91
13.48
11.76
9.75
7.35
4.52
1.34
-1.97
-5.06
-7.61
-9.48
-10.72
-11.67
-12.76
-14.46
-17.03
-20.48
-24.47
-28.43
-31.64
-33.43
-33.31
-31.10
-26.93
-21.21
-14.53
-7.58
-1.04
4.60
9.02
12.16
14.15
15.25
15.77
16.04
16.28
16.69
17.34
18.22
19.27
20.34
21.27
21.90
22.12
21.92
21.36
20.64
19.93
19.34
18.89
18.48
18.02
17.44
16.72
15.87
14.87
13.63
12.03
10.07
7.91
5.80
3.98
2.49
1.19
-0.22
-1.97
-4.11
-6.47
-8.81
-10.95
-12.82
-14.49
-16.06
-17.62
-19.24
-21.01
-23.05
-25.47
-28.21
-30.94
-33.10
-34.04
-33.24
-30.52
-26.05
-20.30
-13.87
-7.33
-1.16
4.26
8.68
11.95
14.03
15.02
15.12
14.62
13.85
13.13
12.68
12.62
12.89
13.32
13.69
13.85
13.79
13.61
13.49
13.59
13.96
14.53
15.09
15.39
15.20
14.38
12.94
11.04
8.97
7.00
5.27
3.77
2.33
0.76
-1.03
-3.00
-5.05
-7.09
-9.09
-11.02
-12.85
-14.52
-16.01
-17.44
-19.05
-21.11
-23.73
-26.76
-29.71
-31.90
-32.71
-31.71
-28.80
-24.19
-18.32
-11.78
-5.19
0.88
6.00
9.94
12.70
14.46
15.47
16.02
16.34
16.58
16.80
17.05
17.32
17.59
17.86
18.16
18.51
18.92
19.33
19.66
19.75
19.51
18.91
18.04
17.09
16.26
15.65
15.15
14.53
13.53
12.02
10.06
7.88
5.75
3.89
2.33
0.92
-0.48
-2.02
-3.71
-5.51
-7.34
-9.19
-11.08
-13.05
-15.08
-17.13
-19.19
-21.32
-23.69
-26.47
-29.61
-32.72
-35.09
-35.92
-34.61
-31.09
-25.83
-19.68
-13.49
-7.84
-2.94
1.24
4.84
7.87
10.28
11.97
12.94
13.40
13.65
13.97
14.57
15.45
16.52
17.59
18.51
19.19
19.63
19.84
19.86
19.75
19.55
19.27
18.91
18.40
17.71
16.83
15.84
14.86
13.97
13.20
12.41
11.44
10.11
8.39
6.41
4.40
2.62
1.24
0.23
-0.55
-1.35
-2.43
-3.95
-5.95
-8.29
-10.74
-13.05
-15.04
-16.66
-18.00
-19.26
-20.68
-22.44
-24.62
-27.09
-29.56
-31.59
-32.65
-32.24
-30.05
-26.11
-20.77
-14.67
-8.55
-3.01
1.59
5.22
8.03
10.20
11.89
13.17
14.06
14.63
14.95
15.10
15.14
15.08
14.96
14.82
14.77
14.94
15.41
16.18
17.14
18.10
18.83
19.10
18.75
17.76
16.26
14.53
12.88
11.50
10.36
9.28
8.01
6.44
4.63
2.79
1.15
-0.19
-1.29
-2.33
-3.45
-4.74
-6.19
-7.72
-9.26
-10.81
-12.40
-14.10
-15.97
-18.05
-20.36
-22.87
-25.43
-27.78
-29.54
-30.29
-29.66
-27.45
-23.72
-18.83
-13.37
-7.97
-3.16
0.77
3.71
5.70
6.82
7.13
6.80
6.05
5.17
4.40
3.92
3.74
3.77
3.87
3.97
4.02
4.05
4.10
4.15
4.18
4.19
4.16
4.10
3.94
3.61
3.02
2.12
0.93
-0.51
-2.11
-3.77
-5.43
-6.97
-8.38
-9.64
-10.81
-11.99
-13.29
-14.83
-16.72
-18.98
-21.50
-24.01
-26.07
-27.13
-26.69
-24.44
-20.44
-15.11
-9.18
-3.38
1.63
5.47
8.03
9.46
10.04
10.10
9.93
9.73
9.57
9.44
9.29
9.10
8.88
8.71
8.66
8.78
9.05
9.42
9.79
10.04
10.01
9.58
8.73
7.54
6.17
4.78
3.39
1.91
0.21
-1.74
-3.87
-5.94
-7.77
-9.37
-10.90
-12.62
-14.72
-17.24
-20.08
-23.10
-26.04
-28.58
-30.29
-30.66
-29.25
-25.93
-21.00
-15.06
-8.92
-3.30
1.33
4.82
7.25
8.84
9.88
10.64
11.35
12.07
12.81
13.46
13.95
14.26
14.43
14.52
14.50
14.33
13.94
13.37
12.77
12.31
12.09
12.03
11.91
11.50
10.64
9.40
7.93
6.45
5.02
3.58
1.99
0.13
-2.01
-4.32
-6.69
-9.01
-11.29
-13.59
-16.02
-18.64
-21.40
-24.15
-26.53
-28.08
-28.29
-26.79
-23.48
-18.67
-12.97
-7.07
-1.59
3.13
7.04
10.28
13.01
15.28
17.02
18.15
18.67
18.71
18.50
18.29
18.23
18.29
18.36
18.32
18.13
17.87
17.68
17.66
17.81
18.02
18.11
17.93
17.38
16.42
15.11
13.51
11.74
9.94
8.22
6.65
5.22
3.81
2.29
0.52
-1.54
-3.83
-6.20
-8.42
-10.36
-11.92
-13.20
-14.45
-16.01
-18.20
-21.19
-24.85
-28.67
-31.85
-33.52
-33.03
-30.19
-25.34
-19.25
-12.83
-6.85
-1.76
2.35
5.63
8.27
10.34
11.77
12.46
12.41
11.82
11.04
10.44
10.21
10.35
10.68
10.97
11.13
11.22
11.44
11.91
12.60
13.30
13.66
13.43
12.54
11.10
9.37
7.59
5.98
4.61
3.48
2.53
1.58
0.44
-1.07
-3.07
-5.48
-8.05
-10.47
-12.52
-14.17
-15.69
-17.42
-19.64
-22.34
-25.17
-27.52
-28.71
-28.27
-26.02
-22.16
-17.20
-11.74
-6.39
-1.56
2.57
5.92
8.54
10.48
11.80
12.58
12.90
12.94
12.88
12.86
12.98
13.23
13.56
13.87
14.08
14.10
13.93
13.62
13.35
13.28
13.50
13.87
14.13
13.92
13.03
11.46
9.51
7.58
5.96
4.76
3.80
2.75
1.35
-0.52
-2.78
-5.22
-7.65
-9.98
-12.18
-14.30
-16.41
-18.56
-20.82
-23.27
-25.94
-28.73
-31.32
-33.17
-33.65
-32.30
-28.95
-23.90
-17.76
-11.33
-5.29
-0.12
3.99
7.04
9.22
10.78
11.89
12.73
13.38
13.88
14.26
14.63
15.10
15.75
16.56
17.41
18.07
18.40
18.41
18.26
18.20
18.37
18.71
19.01
19.02
18.60
17.80
16.77
15.63
14.34
12.76
10.74
8.29
5.64
3.16
1.13
-0.44
-1.73
-3.07
-4.67
-6.51
-8.36
-9.98
-11.26
-12.25
-13.16
-14.23
-15.69
-17.69
-20.33
-23.58
-27.20
-30.67
-33.25
-34.18
-32.94
-29.47
-24.18
-17.78
-11.09
-4.79
0.64
4.97
8.15
10.32
11.73
12.67
13.39
14.02
14.55
14.91
15.03
14.94
14.75
14.60
14.63
14.88
15.33
15.89
16.48
17.03
17.47
17.68
17.54
16.96
15.97
14.67
13.27
11.92
10.72
9.59
8.41
7.12
5.72
4.32
3.01
1.75
0.40
-1.23
-3.19
-5.35
-7.41
-9.17
-10.59
-11.87
-13.31
-15.22
-17.71
-20.70
-23.95
-27.08
-29.64
-31.14
-31.12
-29.33
-25.81
-20.96
-15.41
-9.83
-4.72
-0.33
3.28
6.10
8.08
9.16
9.38
8.90
8.01
7.07
6.32
5.89
5.76
5.87
6.14
6.56
7.10
7.77
8.47
9.09
9.49
9.62
9.49
9.16
8.64
7.88
6.82
5.45
3.81
2.01
0.14
-1.80
-3.84
-5.99
-8.17
-10.18
-11.89
-13.33
-14.75
-16.52
-18.93
-21.95
-25.15
-27.84
-29.25
-28.83
-26.39
-22.15
-16.70
-10.78
-5.10
-0.13
3.91
7.07
9.50
11.41
12.90
14.00
14.71
15.01
14.88
14.35
13.51
12.54
11.76
11.46
11.83
12.83
14.16
15.35
15.97
15.78
14.83
13.35
11.62
9.82
8.03
6.22
4.34
2.42
0.50
-1.36
-3.21
-5.14
-7.30
-9.76
-12.46
-15.24
-17.93
-20.50
-23.07
-25.84
-28.88
-31.93
-34.38
-35.43
-34.40
-31.10
-25.92
-19.68
-13.25
-7.31
-2.15
2.23
5.94
9.02
11.46
13.19
14.28
14.89
15.28
15.66
16.09
16.54
16.91
17.17
17.36
17.56
17.81
18.06
18.18
18.03
17.54
16.75
15.75
14.67
13.58
12.50
11.40
10.25
9.01
7.61
5.96
4.00
1.69
-0.85
-3.47
-5.99
-8.29
-10.37
-12.32
-14.26
-16.29
-18.53
-21.05
-23.87
-26.90
-29.80
-32.03
-32.91
-31.89
-28.79
-23.86
-17.73
-11.19
-4.93
0.59
5.17
8.81
11.59
13.64
15.11
16.09
16.66
16.88
16.83
16.60
16.40
16.39
16.69
17.30
18.10
18.97
19.76
20.37
20.75
20.79
20.46
19.77
18.83
17.77
16.71
15.62
14.35
12.71
10.66
8.35
6.09
4.20
2.81
1.74
0.65
-0.88
-3.03
-5.68
-8.46
-10.94
-12.86
-14.31
-15.57
-17.07
-19.12
-21.84
-25.09
-28.57
-31.74
-33.99
-34.64
-33.22
-29.57
-24.03
-17.38
-10.57
-4.45
0.54
4.33
7.15
9.27
10.85
11.94
12.57
12.80
12.75
12.54
12.27
11.94
11.64
11.46
11.56
12.04
12.85
13.72
14.34
14.52
14.25
13.76
13.25
12.82
12.34
11.56
10.28
8.51
6.43
4.31
2.33
0.49
-1.37
-3.41
-5.65
-8.00
-10.26
-12.27
-14.03
-15.67
-17.37
-19.29
-21.52
-24.00
-26.48
-28.60
-29.81
-29.55
-27.41
-23.33
-17.67
-11.18
-4.73
0.98
5.59
9.09
11.72
13.67
15.05
15.83
15.99
15.59
14.88
14.19
13.82
13.91
14.39
15.08
15.73
16.24
16.63
17.01
17.44
17.88
18.15
18.04
17.43
16.34
14.97
13.47
11.94
10.38
8.70
6.89
4.96
2.99
1.01
-1.04
-3.26
-5.73
-8.41
-11.10
-13.53
-15.52
-17.05
-18.32
-19.67
-21.45
-23.85
-26.80
-29.89
-32.52
-33.94
-33.57
-31.08
-26.58
-20.54
-13.69
-6.83
-0.58
4.70
8.93
12.23
14.78
16.68
17.95
18.60
18.72
18.47
18.13
17.92
18.00
18.31
18.67
18.85
18.67
18.16
17.49
16.96
16.80
17.10
17.71
18.30
18.47
17.89
16.43
14.22
11.60
8.99
6.79
5.20
4.18
3.48
2.72
1.59
-0.00
-1.97
-4.07
-6.10
-7.98
-9.77
-11.53
-13.29
-14.93
-16.35
-17.47
-18.41
-19.42
-20.76
-22.60
-24.92
-27.48
-29.88
-31.65
-32.29
-31.37
-28.63
-24.12
-18.20
-11.54
-4.97
0.79
5.26
8.30
10.11
11.00
11.33
11.34
11.20
11.04
10.93
10.97
11.23
11.70
12.29
12.88
13.40
13.83
14.24
14.75
15.40
16.18
16.91
17.34
17.19
16.28
14.60
12.33
9.78
7.30
5.15
3.42
2.05
0.82
-0.52
-2.18
-4.23
-6.53
-8.87
-11.01
-12.86
-14.49
-16.09
-17.85
-19.89
-22.23
-24.79
-27.39
-29.72
-31.39
-31.88
-30.72
-27.67
-22.84
-16.75
-10.15
-3.85
1.53
5.71
8.67
10.56
11.59
11.92
11.65
10.86
9.72
8.50
7.49
6.95
6.99
7.51
8.23
8.90
9.30
9.42
9.33
9.22
9.15
9.11
8.99
8.62
7.87
6.61
4.82
2.51
-0.23
-3.21
-6.18
-8.90
-11.19
-12.99
-14.40
-15.69
-17.18
-19.23
-22.00
-25.42
-29.07
-32.25
-34.10
-33.89
-31.22
-26.23
-19.60
-12.28
-5.29
0.64
5.16
8.30
10.37
11.73
12.72
13.52
14.17
14.61
14.81
14.79
14.66
14.55
14.52
14.53
14.46
14.19
13.67
12.98
12.23
11.52
10.84
10.11
9.19
7.99
6.50
4.77
2.86
0.82
-1.35
-3.61
-5.91
-8.14
-10.20
-12.08
-13.82
-15.61
-17.70
-20.33
-23.59
-27.31
-31.02
-34.04
-35.66
-35.32
-32.81
-28.29
-22.27
-15.44
-8.51
-2.04
3.54
8.08
11.59
14.28
16.39
18.17
19.71
20.97
21.85
22.30
22.36
22.21
21.99
21.82
21.69
21.53
21.34
21.21
21.28
21.68
22.37
23.10
23.47
23.08
21.74
19.54
16.84
14.06
11.50
9.22
7.05
4.74
2.10
-0.90
-4.10
-7.28
-10.23
-12.85
-15.17
-17.32
-19.53
-22.01
-24.92
-28.28
-31.82
-34.88
-36.62
-36.20
-33.15
-27.59
-20.31
-12.43
-5.05
1.13
5.93
9.61
12.57
15.05
17.07
18.51
19.27
19.38
19.06
18.53
17.98
17.47
17.04
16.75
16.66
16.87
17.41
18.20
19.05
19.72
20.00
19.74
18.88
17.45
15.58
13.46
11.32
9.39
7.76
6.38
4.99
3.30
1.09
-1.63
-4.62
-7.53
-10.07
-12.12
-13.79
-15.31
-16.92
-18.78
-21.00
-23.67
-26.79
-30.17
-33.35
-35.59
-36.05
-34.09
-29.60
-23.01
-15.29
-7.52
-0.63
4.88
8.92
11.65
13.35
14.24
14.52
14.34
13.90
13.41
13.02
12.77
12.66
12.58
12.49
12.39
12.34
12.41
12.59
12.84
13.08
13.22
13.20
12.94
12.37
11.40
10.02
8.27
6.29
4.18
2.06
-0.03
-2.05
-4.01
-5.83
-7.51
-9.05
-10.53
-12.11
-13.97
-16.25
-19.02
-22.14
-25.25
-27.78
-29.05
-28.50
-25.84
-21.16
-14.98
-8.03
-1.13
4.98
9.83
13.18
15.09
15.85
15.87
15.60
15.33
15.15
15.00
14.73
14.27
13.70
13.21
12.97
13.05
13.35
13.73
14.03
14.20
14.20
14.01
13.56
12.74
11.50
9.90
8.06
6.15
4.26
2.35
0.35
-1.85
-4.21
-6.63
-8.96
-11.14
-13.17
-15.15
-17.27
-19.67
-22.44
-25.55
-28.72
-31.48
-33.15
-33.06
-30.79
-26.39
-20.40
-13.71
-7.26
-1.67
2.85
6.46
9.48
12.10
14.31
15.94
16.84
17.04
16.73
16.22
15.77
15.49
15.32
15.18
15.02
14.92
15.04
15.43
16.00
16.50
16.57
15.98
14.70
12.94
11.03
9.23
7.64
6.16
4.63
2.93
1.06
-0.92
-2.98
-5.13
-7.37
-9.65
-11.78
-13.58
-14.98
-16.17
-17.55
-19.50
-22.14
-25.13
-27.69
-28.91
-28.11
-25.13
-20.37
-14.65
-8.85
-3.66
0.65
4.10
6.90
9.27
11.31
12.99
14.27
15.11
15.56
15.73
15.70
15.55
15.25
14.76
14.10
13.40
12.86
12.72
13.06
13.76
14.55
15.06
14.99
14.23
12.89
11.21
9.44
7.80
6.35
5.08
3.89
2.62
1.14
-0.65
-2.78
-5.15
-7.61
-9.98
-12.04
-13.69
-14.91
-15.86
-16.89
-18.40
-20.74
-23.98
-27.71
-31.08
-33.09
-32.90
-30.20
-25.31
-19.03
-12.37
-6.16
-0.93
3.18
6.21
8.26
9.41
9.74
9.41
8.64
7.70
6.82
6.11
5.61
5.36
5.42
5.81
6.53
7.45
8.42
9.29
9.99
10.51
10.84
10.86
10.47
9.53
8.08
6.30
4.41
2.57
0.75
-1.15
-3.25
-5.50
-7.73
-9.77
-11.53
-13.14
-14.83
-16.87
-19.37
-22.25
-25.14
-27.49
-28.70
-28.23
-25.82
-21.57
-15.92
-9.59
-3.33
2.22
6.63
9.76
11.70
12.67
12.98
12.97
12.89
12.91
13.07
13.29
13.45
13.42
13.11
12.51
11.77
11.06
10.61
10.60
11.04
11.78
12.51
12.84
12.45
11.22
9.28
6.98
4.71
2.77
1.25
-0.00
-1.24
-2.68
-4.45
-6.47
-8.59
-10.67
-12.65
-14.56
-16.50
-18.59
-20.92
-23.54
-26.40
-29.21
-31.45
-32.47
-31.62
-28.65
-23.77
-17.69
-11.34
-5.51
-0.61
3.34
6.57
9.23
11.34
12.79
13.55
13.73
13.62
13.49
13.52
13.73
14.01
14.30
14.56
14.86
15.23
15.69
16.19
16.70
17.14
17.44
17.46
17.07
16.17
14.79
13.12
11.38
9.77
8.35
7.07
5.78
4.35
2.70
0.80
-1.31
-3.52
-5.69
-7.69
-9.46
-11.06
-12.67
-14.49
-16.70
-19.36
-22.40
-25.62
-28.74
-31.36
-33.06
-33.39
-32.00
-28.78
-23.90
-17.79
-11.06
-4.36
1.75
6.83
10.66
13.14
14.40
14.70
14.40
13.84
13.30
12.96
12.90
13.10
13.47
13.89
14.20
14.29
14.16
13.92
13.79
13.91
14.33
14.89
15.34
15.39
14.89
13.87
12.44
10.83
9.19
7.62
6.11
4.61
3.02
1.31
-0.56
-2.57
-4.73
-7.04
-9.44
-11.82
-14.07
-16.07
-17.85
-19.62
-21.67
-24.20
-27.09
-29.79
-31.40
-31.09
-28.38
-23.52
-17.34
-10.92
-5.19
-0.60
2.89
5.58
7.75
9.49
10.71
11.23
10.98
10.09
8.84
7.52
6.42
5.69
5.44
5.65
6.29
7.28
8.46
9.69
10.75
11.44
11.59
11.11
10.00
8.43
6.61
4.75
2.97
1.27
-0.45
-2.30
-4.29
-6.35
-8.30
-10.06
-11.68
-13.41
-15.61
-18.51
-22.07
-25.89
-29.24
-31.34
-31.61
-29.84
-26.20
-21.16
-15.28
-9.10
-3.01
2.68
7.72
11.89
14.98
16.93
17.79
17.82
17.34
16.63
15.89
15.18
14.52
13.98
13.70
13.79
14.26
14.93
15.48
15.67
15.41
14.84
14.21
13.64
13.04
12.06
10.37
7.87
4.75
1.48
-1.45
-3.74
-5.38
-6.64
-7.89
-9.47
-11.59
-14.32
-17.63
-21.38
-25.28
-28.88
-31.63
-32.95
-32.44
-29.95
-25.66
-20.01
-13.64
-7.19
-1.27
3.73
7.63
10.48
12.51
13.99
15.15
16.07
16.73
17.01
16.84
16.26
15.41
14.51
13.78
13.36
13.27
13.42
13.65
13.83
13.81
13.52
12.90
11.89
10.47
8.66
6.52
4.19
1.79
-0.56
-2.84
-5.05
-7.26
-9.52
-11.89
-14.41
-17.14
-20.06
-23.04
-25.77
-27.77
-28.49
-27.51
-24.66
-20.13
-14.43
-8.26
-2.25
3.13
7.67
11.34
14.17
16.21
17.45
17.91
17.64
16.83
15.72
14.60
13.71
13.13
12.80
12.59
12.37
12.09
11.80
11.58
11.48
11.44
11.25
10.66
9.42
7.45
4.87
2.03
-0.68
-2.95
-4.70
-6.12
-7.61
-9.57
-12.28
-15.77
-19.74
-23.69
-26.92
-28.75
-28.66
-26.38
-22.03
-16.11
-9.43
-2.83
3.02
7.80
11.54
14.43
16.68
18.37
19.43
19.79
19.48
18.70
17.76
16.95
16.42
16.15
16.01
15.91
15.89
16.05
16.52
17.24
17.92
18.13
17.50
15.89
13.48
10.74
8.22
6.28
5.00
4.12
3.19
1.84
-0.16
-2.71
-5.55
-8.35
-10.87
-13.06
-15.03
-17.01
-19.23
-21.82
-24.72
-27.66
-30.17
-31.64
-31.49
-29.34
-25.15
-19.31
-12.51
-5.57
0.82
6.19
10.31
13.18
14.91
15.68
15.72
15.29
14.60
13.82
13.03
12.28
11.64
11.25
11.23
11.63
12.32
13.07
13.61
13.80
13.68
13.40
13.11
12.78
12.26
11.34
9.90
7.99
5.83
3.63
1.50
-0.55
-2.64
-4.79
-6.97
-9.00
-10.74
-12.13
-13.29
-14.49
-16.06
-18.23
-21.03
-24.21
-27.26
-29.50
-30.26
-29.07
-25.84
-20.86
-14.73
-8.20
-1.99
3.41
7.71
10.88
12.99
14.21
14.71
14.67
14.31
13.80
13.28
12.78
12.28
11.73
11.10
10.47
9.94
9.65
9.69
10.07
10.68
11.28
11.60
11.36
10.45
8.97
7.20
5.47
3.96
2.63
1.19
-0.67
-3.11
-5.95
-8.85
-11.43
-13.49
-15.14
-16.66
-18.37
-20.49
-23.05
-25.88
-28.69
-31.03
-32.39
-32.30
-30.45
-26.78
-21.64
-15.63
-9.43
-3.66
1.35
5.51
8.86
11.51
13.53
14.95
15.80
16.16
16.15
15.89
15.50
15.03
14.50
13.97
13.50
13.19
13.11
13.27
13.58
13.91
14.08
14.02
13.67
13.01
12.03
10.68
8.96
6.94
4.78
2.70
0.78
-1.01
-2.79
-4.70
-6.75
-8.79
-10.65
-12.25
-13.72
-15.36
-17.53
-20.42
-23.94
-27.58
-30.59
-32.15
-31.64
-28.85
-24.09
-18.01
-11.48
-5.23
0.26
4.89
8.75
11.97
14.60
16.53
17.69
18.07
17.81
17.15
16.37
15.67
15.15
14.82
14.64
14.60
14.70
14.98
15.45
16.05
16.59
16.83
16.52
15.57
14.01
12.08
10.12
8.42
7.09
6.00
4.87
3.40
1.39
-1.14
-3.96
-6.73
-9.08
-10.85
-12.12
-13.18
-14.44
-16.26
-18.75
-21.71
-24.65
-26.95
-27.99
-27.36
-24.94
-20.94
-15.83
-10.20
-4.65
0.35
4.49
7.64
9.80
11.02
11.40
11.04
10.15
9.01
7.89
6.97
6.29
5.78
5.33
4.90
4.53
4.32
4.36
4.61
4.97
5.31
5.55
5.64
5.55
5.10
4.10
2.42
0.10
-2.54
-5.11
-7.27
-8.97
-10.41
-11.92
-13.80
-16.15
-18.85
-21.71
-24.47
-26.83
-28.39
-28.68
-27.28
-24.04
-19.20
-13.41
-7.45
-2.03
2.47
5.98
8.62
10.53
11.78
12.39
12.41
11.96
11.23
10.39
9.60
8.95
8.48
8.24
8.20
8.32
8.49
8.61
8.63
8.54
8.37
8.08
7.58
6.71
5.38
3.52
1.19
-1.50
-4.39
-7.31
-10.10
-12.61
-14.78
-16.64
-18.43
-20.52
-23.25
-26.69
-30.54
-34.05
-36.26
-36.27
-33.62
-28.45
-21.48
-13.76
-6.35
-0.02
4.89
8.46
11.04
13.01
14.62
15.90
16.76
17.10
16.93
16.44
15.90
15.54
15.49
15.73
16.18
16.74
17.34
17.94
18.47
18.86
19.00
18.81
18.21
17.16
15.63
13.61
11.08
8.10
4.84
1.50
-1.67
-4.46
-6.78
-8.70
-10.44
-12.34
-14.72
-17.75
-21.35
-25.15
-28.57
-30.94
-31.68
-30.47
-27.31
-22.53
-16.66
-10.26
-3.91
1.93
6.89
10.71
13.29
14.71
15.21
15.13
14.75
14.30
13.84
13.43
13.14
13.07
13.29
13.75
14.30
14.70
14.84
14.74
14.56
14.47
14.49
14.48
14.17
13.32
11.85
9.87
7.60
5.26
2.92
0.54
-1.98
-4.67
-7.41
-9.97
-12.18
-13.97
-15.52
-17.13
-19.14
-21.70
-24.71
-27.78
-30.30
-31.60
-31.08
-28.40
-23.57
-17.04
-9.58
-2.12
4.51
9.78
13.58
16.11
17.72
18.73
19.39
19.74
19.80
19.53
18.98
18.22
17.36
16.53
15.88
15.53
15.56
15.95
16.57
17.21
17.64
17.69
17.27
16.34
14.96
13.23
11.33
9.46
7.76
6.28
4.93
3.50
1.76
-0.37
-2.84
-5.41
-7.85
-9.99
-11.83
-13.54
-15.36
-17.53
-20.23
-23.50
-27.26
-31.20
-34.82
-37.41
-38.22
-36.68
-32.64
-26.51
-19.19
-11.75
-5.07
0.42
4.74
8.23
11.22
13.82
15.96
17.48
18.32
18.57
18.41
18.09
17.74
17.43
17.20
17.05
17.07
17.31
17.86
18.72
19.80
20.88
21.71
21.97
21.48
20.21
18.29
15.97
13.53
11.17
8.98
6.99
5.18
3.52
1.92
0.26
-1.63
-3.86
-6.41
-9.06
-11.49
-13.41
-14.71
-15.60
-16.54
-18.06
-20.50
-23.80
-27.48
-30.72
-32.60
-32.42
-29.93
-25.38
-19.43
-12.90
-6.53
-0.81
4.07
8.10
11.36
13.89
15.69
16.73
17.03
16.70
15.99
15.18
14.54
14.25
14.38
14.89
15.70
16.71
17.82
18.91
19.79
20.33
20.41
20.05
19.35
18.42
17.33
16.10
14.67
13.04
11.28
9.51
7.84
6.33
4.89
3.41
1.71
-0.25
-2.38
-4.52
-6.45
-8.04
-9.29
-10.36
-11.47
-12.87
-14.71
-17.05
-19.83
-22.88
-25.88
-28.35
-29.76
-29.59
-27.57
-23.78
-18.66
-12.93
-7.31
-2.35
1.67
4.71
6.90
8.43
9.40
9.84
9.74
9.17
8.24
7.20
6.32
5.85
5.86
6.27
6.88
7.48
8.00
8.52
9.21
10.15
11.23
12.11
12.42
11.95
10.78
9.24
7.77
6.61
5.73
4.83
3.58
1.79
-0.40
-2.68
-4.68
-6.22
-7.28
-8.05
-8.76
-9.58
-10.63
-11.96
-13.64
-15.67
-17.95
-20.20
-21.95
-22.67
-21.95
-19.69
-16.07
-11.60
-6.87
-2.39
1.48
4.58
6.89
8.44
9.27
9.41
8.86
7.69
6.06
4.27
2.73
1.78
1.59
2.09
2.97
3.84
4.43
4.64
4.56
4.36
4.16
3.97
3.75
3.43
2.95
2.22
1.17
-0.28
-2.12
-4.23
-6.36
-8.26
-9.77
-10.94
-11.99
-13.21
-14.86
-17.03
-19.59
-22.27
-24.58
-26.00
-26.00
-24.26
-20.78
-15.99
-10.62
-5.52
-1.29
1.85
4.13
5.97
7.71
9.35
10.63
11.18
10.82
9.78
8.54
7.66
7.51
8.14
9.30
10.62
11.74
12.38
12.44
11.91
10.90
9.60
8.22
6.94
5.86
4.97
4.14
3.19
1.93
0.21
-1.96
-4.38
-6.77
-8.84
-10.50
-11.89
-13.39
-15.33
-17.85
-20.71
-23.38
-25.23
-25.78
-24.79
-22.37
-18.77
-14.36
-9.52
-4.63
-0.06
3.92
7.17
9.68
11.55
12.91
13.82
14.28
14.26
13.78
12.98
12.06
11.26
10.73
10.53
10.61
10.84
11.11
11.35
11.51
11.59
11.49
11.13
10.42
9.33
7.92
6.29
4.51
2.59
0.48
-1.83
-4.26
-6.61
-8.62
-10.18
-11.37
-12.48
-13.83
-15.66
-17.95
-20.48
-22.89
-24.78
-25.84
-25.75
-24.33
-21.49
-17.35
-12.24
-6.68
-1.28
3.44
7.17
9.83
11.50
12.41
12.73
12.60
12.11
11.34
10.43
9.58
8.97
8.74
8.83
9.07
9.20
9.04
8.52
7.79
7.06
6.54
6.29
6.22
6.12
5.74
4.94
3.69
2.08
0.23
-1.73
-3.72
-5.73
-7.75
-9.72
-11.56
-13.21
-14.73
-16.32
-18.20
-20.45
-22.82
-24.74
-25.49
-24.49
-21.60
-17.19
-11.95
-6.65
-1.80
2.37
5.87
8.74
10.96
12.45
13.16
13.17
12.68
11.97
11.27
10.70
10.27
9.93
9.69
9.58
9.68
10.03
10.54
11.02
11.27
11.08
10.44
9.41
8.21
7.03
6.02
5.23
4.57
3.85
2.88
1.52
-0.27
-2.46
-4.92
-7.48
-9.99
-12.37
-14.60
-16.75
-18.93
-21.25
-23.70
-26.07
-27.97
-28.87
-28.29
-25.94
-21.94
-16.75
-11.02
-5.47
-0.60
3.35
6.41
8.79
10.82
12.68
14.40
15.82
16.66
16.72
15.98
14.65
13.15
11.89
11.19
11.16
11.73
12.74
13.95
15.14
16.08
16.55
16.40
15.51
13.97
11.96
9.81
7.84
6.23
4.97
3.87
2.68
1.24
-0.48
-2.37
-4.28
-6.11
-7.87
-9.61
-11.47
-13.58
-16.00
-18.75
-21.67
-24.38
-26.30
-26.83
-25.54
-22.34
-17.53
-11.75
-5.75
-0.21
4.39
7.86
10.32
12.07
13.45
14.67
15.72
16.41
16.55
16.07
15.19
14.25
13.56
13.27
13.31
13.49
13.70
13.90
14.12
14.38
14.56
14.51
14.11
13.36
12.35
11.19
9.91
8.46
6.77
4.81
2.63
0.40
-1.67
-3.44
-4.86
-5.99
-7.00
-8.07
-9.38
-11.07
-13.24
-15.93
-19.06
-22.38
-25.40
-27.48
-28.00
-26.57
-23.20
-18.34
-12.72
-7.07
-2.01
2.22
5.56
8.12
10.04
11.40
12.29
12.71
12.66
12.13
11.14
9.81
8.41
7.24
6.58
6.55
7.09
8.01
9.11
10.21
11.13
11.68
11.65
10.87
9.37
7.37
5.31
3.63
2.52
1.90
1.39
0.55
-0.91
-2.96
-5.32
-7.61
-9.53
-11.04
-12.32
-13.69
-15.47
-17.76
-20.38
-22.90
-24.70
-25.21
-24.06
-21.21
-16.94
-11.77
-6.24
-0.87
3.91
7.75
10.38
11.70
11.82
11.12
10.07
9.18
8.73
8.75
9.07
9.41
9.58
9.52
9.27
8.90
8.51
8.13
7.80
7.56
7.44
7.42
7.46
7.39
7.05
6.26
4.97
3.23
1.20
-0.96
-3.08
-5.05
-6.79
-8.27
-9.50
-10.57
-11.71
-13.15
-15.14
-17.75
-20.81
-23.87
-26.27
-27.33
-26.53
-23.74
-19.18
-13.49
-7.47
-1.90
2.65
5.97
8.11
9.33
9.99
10.40
10.78
11.25
11.79
12.30
12.64
12.71
12.46
11.94
11.30
10.70
10.28
10.15
10.29
10.55
10.76
10.71
10.30
9.56
8.60
7.57
6.56
5.58
4.56
3.36
1.89
0.05
-2.12
-4.48
-6.82
-8.95
-10.75
-12.28
-13.76
-15.47
-17.65
-20.26
-22.99
-25.31
-26.59
-26.36
-24.37
-20.73
-15.85
-10.34
-4.85
0.06
4.04
7.01
9.12
10.61
11.71
12.52
13.05
13.28
13.26
13.10
12.90
12.74
12.52
12.15
11.57
10.92
10.44
10.40
10.91
11.86
12.93
13.70
13.84
13.18
11.82
10.02
8.10
6.35
4.86
3.55
2.15
0.43
-1.68
-4.02
-6.29
-8.24
-9.77
-11.06
-12.41
-14.12
-16.33
-18.98
-21.80
-24.35
-26.13
-26.71
-25.74
-23.16
-19.15
-14.14
-8.71
-3.44
1.21
4.93
7.69
9.54
10.66
11.20
11.26
10.93
10.30
9.50
8.74
8.18
7.89
7.85
7.92
8.01
8.14
8.42
8.87
9.39
9.69
9.49
8.66
7.38
6.02
4.98
4.46
4.31
4.09
3.33
1.70
-0.76
-3.68
-6.52
-8.82
-10.40
-11.42
-12.27
-13.38
-15.05
-17.30
-19.90
-22.42
-24.36
-25.29
-24.83
-22.85
-19.42
-14.87
-9.68
-4.41
0.45
4.59
7.82
10.14
11.64
12.41
12.62
12.38
11.84
11.13
10.40
9.78
9.41
9.40
9.72
10.28
10.90
11.38
11.62
11.59
11.33
10.86
10.20
9.36
8.43
7.51
6.73
6.07
5.33
4.21
2.44
-0.03
-2.96
-5.89
-8.39
-10.28
-11.68
-12.93
-14.43
-16.41
-18.90
-21.73
-24.53
-26.80
-28.00
-27.59
-25.24
-21.00
-15.30
-8.93
-2.72
2.68
6.92
9.99
12.07
13.37
14.11
14.44
14.52
14.46
14.36
14.23
14.00
13.62
13.12
12.60
12.25
12.17
12.36
12.67
12.84
12.71
12.24
11.53
10.74
9.96
9.15
8.13
6.72
4.89
2.72
0.46
-1.72
-3.74
-5.68
-7.62
-9.62
-11.62
-13.55
-15.40
-17.31
-19.45
-21.84
-24.22
-25.98
-26.42
-24.98
-21.53
-16.48
-10.61
-4.77
0.35
4.46
7.56
9.84
11.44
12.43
12.83
12.69
12.17
11.49
10.88
10.46
10.26
10.20
10.21
10.27
10.42
10.66
10.94
11.18
11.25
11.07
10.63
9.98
9.14
8.09
6.73
4.99
2.89
0.51
-2.02
-4.58
-7.10
-9.59
-12.04
-14.41
-16.67
-18.78
-20.81
-22.84
-24.90
-26.92
-28.60
-29.42
-28.84
-26.45
-22.21
-16.44
-9.85
-3.24
2.63
7.32
10.67
12.80
13.94
14.40
14.38
14.08
13.63
13.19
12.88
12.80
12.95
13.22
13.48
13.60
13.55
13.41
13.27
13.21
13.18
13.00
12.48
11.51
10.15
8.63
7.21
6.01
4.89
3.56
1.71
-0.80
-3.82
-6.93
-9.69
-11.82
-13.33
-14.58
-16.03
-18.10
-20.94
-24.28
-27.54
-29.98
-30.90
-29.87
-26.86
-22.21
-16.49
-10.39
-4.50
0.73
5.10
8.56
11.17
13.10
14.49
15.48
16.13
16.48
16.59
16.55
16.44
16.34
16.26
16.14
15.97
15.74
15.60
15.72
16.17
16.92
17.66
18.04
17.74
16.64
14.91
12.94
11.12
9.73
8.73
7.86
6.70
4.92
2.46
-0.48
-3.48
-6.16
-8.30
-9.97
-11.49
-13.26
-15.62
-18.72
-22.42
-26.38
-30.08
-32.95
-34.43
-34.12
-31.85
-27.77
-22.29
-16.03
-9.65
-3.74
1.27
5.15
7.90
9.66
10.64
11.11
11.21
11.05
10.65
10.11
9.61
9.37
9.61
10.36
11.49
12.68
13.60
14.03
13.90
13.27
12.25
10.94
9.51
8.15
7.03
6.23
5.67
5.09
4.20
2.79
0.85
-1.47
-3.93
-6.38
-8.70
-10.88
-12.96
-15.01
-17.11
-19.35
-21.79
-24.32
-26.64
-28.23
-28.53
-27.09
-23.75
-18.75
-12.62
-6.14
-0.08
4.97
8.75
11.30
12.91
13.88
14.43
14.59
14.37
13.78
12.91
12.00
11.28
10.94
11.06
11.57
12.32
13.14
13.90
14.48
14.84
14.92
14.70
14.12
13.13
11.75
10.05
8.20
6.36
4.58
2.76
0.73
-1.71
-4.59
-7.73
-10.79
-13.43
-15.43
-16.86
-18.07
-19.57
-21.79
-24.85
-28.38
-31.58
-33.48
-33.26
-30.60
-25.75
-19.43
-12.51
-5.78
0.24
5.28
9.33
12.46
14.76
16.33
17.25
17.60
17.45
16.98
16.46
16.17
16.33
16.89
17.64
18.26
18.59
18.67
18.73
18.99
19.41
19.68
19.36
18.19
16.24
13.90
11.65
9.81
8.38
7.04
5.44
3.33
0.71
-2.18
-4.97
-7.38
-9.28
-10.76
-12.08
-13.56
-15.50
-18.09
-21.29
-24.81
-28.14
-30.57
-31.41
-30.13
-26.60
-21.12
-14.44
-7.49
-1.15
4.06
8.06
11.10
13.57
15.72
17.53
18.74
19.12
18.58
17.42
16.18
15.42
15.46
16.20
17.20
17.95
18.14
17.83
17.37
17.11
17.17
17.33
17.20
16.44
15.00
13.15
11.27
9.66
8.38
7.19
5.78
3.91
1.51
-1.32
-4.37
-7.42
-10.24
-12.61
-14.42
-15.64
-16.43
-17.13
-18.16
-19.86
-22.36
-25.46
-28.61
-31.02
-31.91
-30.72
-27.27
-21.91
-15.33
-8.45
-2.07
3.24
7.28
10.13
12.00
13.06
13.46
13.28
12.67
11.85
11.02
10.37
9.92
9.63
9.44
9.40
9.60
10.15
10.98
11.87
12.46
12.47
11.83
10.70
9.35
8.03
6.83
5.73
4.63
3.44
2.13
0.68
-0.94
-2.73
-4.68
-6.71
-8.72
-10.54
-12.11
-13.50
-14.96
-16.80
-19.29
-22.37
-25.60
-28.14
-29.05
-27.64
-23.78
-17.96
-11.14
-4.36
1.61
6.39
9.97
12.54
14.27
15.30
15.72
15.65
15.27
14.75
14.21
13.68
13.12
12.51
11.87
11.34
11.06
11.15
11.62
12.37
13.22
13.95
14.35
14.25
13.54
12.19
10.27
7.92
5.36
2.76
0.26
-2.08
-4.28
-6.38
-8.36
-10.20
-11.89
-13.49
-15.17
-17.19
-19.78
-23.00
-26.61
-30.04
-32.51
-33.29
-31.93
-28.44
-23.30
-17.22
-10.97
-5.12
0.01
4.32
7.81
10.53
12.48
13.68
14.21
14.21
13.89
13.41
12.91
12.46
12.09
11.79
11.60
11.56
11.76
12.26
13.08
14.08
15.01
15.52
15.32
14.27
12.55
10.54
8.69
7.30
6.38
5.63
4.66
3.18
1.10
-1.37
-3.93
-6.27
-8.25
-9.85
-11.18
-12.39
-13.68
-15.27
-17.36
-20.09
-23.38
-26.84
-29.80
-31.43
-31.03
-28.27
-23.35
-16.96
-10.03
-3.44
2.22
6.72
10.11
12.58
14.32
15.47
16.18
16.57
16.76
16.81
16.73
16.51
16.21
15.91
15.73
15.72
15.85
16.05
16.22
16.36
16.54
16.78
16.99
16.95
16.38
15.18
13.42
11.41
9.49
7.91
6.65
5.52
4.24
2.62
0.66
-1.45
-3.46
-5.23
-6.79
-8.28
-9.88
-11.63
-13.46
-15.23
-16.93
-18.74
-20.89
-23.51
-26.39
-28.91
-30.29
-29.83
-27.25
-22.78
-17.06
-10.84
-4.87
0.37
4.57
7.60
9.45
10.22
10.16
9.56
8.72
7.86
7.09
6.49
6.07
5.89
5.93
6.20
6.63
7.13
7.67
8.24
8.82
9.32
9.54
9.25
8.30
6.72
4.76
2.76
1.01
-0.43
-1.70
-3.04
-4.59
-6.36
-8.19
-9.92
-11.51
-13.07
-14.83
-17.01
-19.68
-22.64
-25.45
-27.52
-28.21
-27.06
-23.95
-19.12
-13.20
-6.99
-1.20
3.68
7.50
10.36
12.40
13.73
14.38
14.34
13.74
12.77
11.73
10.89
10.38
10.21
10.26
10.38
10.42
10.37
10.28
10.24
10.31
10.45
10.51
10.25
9.44
8.00
6.02
3.74
1.44
-0.66
-2.49
-4.10
-5.63
-7.21
-8.94
-10.84
-12.91
-15.14
-17.54
-20.15
-22.99
-25.90
-28.53
-30.27
-30.47
-28.69
-24.88
-19.49
-13.32
-7.21
-1.74
2.84
6.57
9.63
12.12
14.06
15.41
16.16
16.37
16.16
15.68
15.04
14.36
13.75
13.35
13.24
13.46
13.88
14.31
14.51
14.37
13.92
13.29
12.61
11.95
11.23
10.31
9.05
7.40
5.43
3.23
0.93
-1.42
-3.73
-5.92
-7.89
-9.58
-11.10
-12.69
-14.68
-17.29
-20.49
-23.95
-27.04
-29.06
-29.45
-27.99
-24.83
-20.42
-15.37
-10.21
-5.28
-0.70
3.49
7.25
10.48
12.97
14.55
15.20
15.08
14.55
14.00
13.72
13.80
14.13
14.48
14.65
14.52
14.13
13.64
13.28
13.25
13.62
14.34
15.16
15.74
15.72
14.89
13.24
11.02
8.61
6.39
4.54
3.03
1.69
0.31
-1.26
-3.06
-5.03
-7.11
-9.27
-11.50
-13.80
-16.18
-18.69
-21.38
-24.26
-27.21
-29.90
-31.78
-32.25
-30.88
-27.57
-22.63
-16.66
-10.39
-4.41
0.90
5.39
9.05
11.88
13.89
15.07
15.47
15.21
14.52
13.66
12.87
12.32
12.06
12.02
12.08
12.14
12.15
12.16
12.27
12.54
12.94
13.25
13.19
12.48
11.02
8.95
6.66
4.56
2.94
1.83
0.95
-0.08
-1.57
-3.58
-5.92
-8.23
-10.22
-11.76
-12.99
-14.21
-15.75
-17.85
-20.53
-23.59
-26.58
-28.91
-29.94
-29.20
-26.49
-22.02
-16.36
-10.26
-4.48
0.41
4.17
6.85
8.67
9.91
10.75
11.21
11.23
10.80
10.00
9.14
8.53
8.39
8.75
9.40
10.11
10.71
11.14
11.44
11.67
11.76
11.60
11.06
10.16
9.03
7.86
6.74
5.62
4.31
2.63
0.48
-2.04
-4.66
-7.08
-9.08
-10.59
-11.77
-12.90
-14.31
-16.23
-18.76
-21.76
-24.84
-27.47
-28.99
-28.80
-26.55
-22.26
-16.37
-9.66
-3.07
2.54
6.67
9.25
10.61
11.24
11.66
12.15
12.76
13.33
13.71
13.79
13.62
13.34
13.12
13.01
13.02
13.05
13.04
12.93
12.74
12.48
12.18
11.80
11.29
10.55
9.53
8.18
6.54
4.67
2.64
0.54
-1.55
-3.54
-5.32
-6.81
-8.05
-9.18
-10.49
-12.32
-14.85
-17.99
-21.37
-24.41
-26.51
-27.22
-26.34
-23.90
-20.10
-15.24
-9.77
-4.15
1.10
5.55
8.97
11.34
12.79
13.51
13.65
13.32
12.66
11.88
11.26
11.02
11.20
11.66
12.18
12.61
12.96
13.41
14.07
14.93
15.71
16.06
15.66
14.40
