1565785514.00
64.000000
-0.00
-0.00
-0.00
-0.00
-0.00
-0.00
-0.00
-0.00
-0.00
-0.00
0.00
0.01
0.01
-0.00
-0.03
-0.05
-0.05
0.00
0.13
0.36
0.66
1.01
1.37
1.72
2.06
2.40
2.79
3.24
3.80
4.42
5.06
5.66
6.20
6.68
7.15
7.68
8.31
9.14
10.09
11.04
11.88
12.56
13.14
13.76
14.65
15.96
17.91
20.32
22.90
25.38
27.58
29.57
31.68
34.32
37.81
42.54
48.15
54.10
59.83
64.97
69.58
74.14
79.34
85.71
93.76
103.00
112.62
121.73
129.77
136.75
143.30
150.75
157.77
166.64
177.95
191.79
206.97
220.57
228.25
225.36
208.53
176.87
132.76
80.05
23.07
-34.94
-92.44
-149.16
-205.23
-260.37
-313.74
-363.87
-409.83
-450.91
-486.50
-515.74
-537.23
-549.22
-549.96
-538.37
-514.21
-478.67
-433.88
-382.45
-327.02
-269.84
-212.63
-156.66
-102.95
-52.37
-5.90
35.58
71.42
101.35
125.50
144.39
158.72
169.18
176.39
180.73
182.49
181.90
179.24
174.88
169.24
162.72
155.68
148.35
140.87
133.30
125.67
118.01
110.38
102.83
95.44
88.23
81.25
74.49
68.00
61.79
55.92
50.44
45.36
40.65
36.24
32.05
28.01
24.13
20.45
17.07
14.06
11.43
9.13
7.06
5.10
3.18
1.33
-0.41
-1.93
-3.21
-4.26
-5.18
-6.09
-7.08
-8.18
-9.29
-10.32
-11.16
-11.84
-12.47
-13.19
-14.06
-15.01
-15.90
-16.71
-17.76
-19.46
-21.92
-24.54
-25.92
-24.39
-18.83
-9.14
3.85
18.80
34.22
48.42
59.20
63.74
59.39
45.00
22.19
-4.47
-28.72
-44.83
-49.54
-42.85
-27.23
-6.15
16.87
38.56
55.67
65.16
64.90
54.89
37.78
18.37
1.82
-8.41
-11.89
-11.00
-9.26
-9.12
-10.75
-12.31
-11.51
-7.54
-1.83
2.88
4.63
3.87
3.51
6.78
14.68
24.73
32.21
33.12
27.05
17.68
10.58
9.98
16.19
25.65
33.39
36.00
33.13
27.07
20.78
15.67
11.47
7.07
1.79
-3.87
-8.63
-11.35
-11.90
-11.39
-11.47
-13.44
-17.53
-22.82
-27.75
-30.97
-31.87
-30.55
-27.40
-22.45
-15.33
-6.11
3.82
11.63
14.08
9.38
-1.31
-14.12
-24.27
-28.62
-27.31
-23.23
-19.87
-18.82
-18.89
-17.10
-11.05
-0.77
11.01
20.50
25.01
24.22
20.06
15.47
12.96
13.86
18.74
27.80
41.27
58.97
79.39
99.54
115.46
123.69
122.55
112.88
97.57
80.41
64.66
51.91
41.78
32.48
21.78
7.91
-8.88
-27.35
-45.58
-61.87
-75.47
-86.40
-94.67
-99.42
-98.59
-89.94
-72.84
-49.43
-24.68
-4.93
4.66
2.12
-10.44
-27.33
-40.84
-43.17
-28.07
7.57
62.43
130.25
200.76
261.88
302.99
317.90
306.26
272.93
225.83
172.96
120.24
70.74
25.04
-17.93
-60.23
-104.32
-152.03
-203.21
-254.34
-298.22
-325.27
-326.52
-296.74
-237.20
-155.99
-66.39
16.52
79.42
113.61
116.42
91.12
45.43
-10.68
-67.12
-115.09
-148.06
-162.44
-158.11
-139.10
-113.50
-91.49
-82.15
-89.65
-111.27
-138.43
-160.71
-170.72
-167.50
-156.23
-144.61
-138.11
-136.66
-134.67
-124.10
-98.28
-54.61
5.23
76.78
154.63
233.07
305.94
366.26
406.99
423.09
413.47
381.67
334.57
279.62
221.72
161.93
98.31
28.80
-45.61
-119.05
-181.27
-220.72
-228.89
-204.46
-154.92
-95.25
-43.50
-14.89
-17.06
-47.88
-97.19
-151.02
-196.44
-224.95
-233.14
-221.02
-189.58
-139.62
-72.66
6.77
89.30
161.39
208.96
222.21
199.29
146.73
76.38
0.82
-70.34
-131.49
-179.66
-212.32
-226.20
-217.98
-186.28
-133.86
-68.12
0.11
59.24
99.93
116.92
109.55
80.59
34.89
-21.66
-82.30
-139.27
-184.22
-209.67
-211.24
-189.57
-150.60
-103.41
-56.60
-15.08
20.80
53.24
83.57
109.62
125.59
124.73
103.40
63.78
14.18
-33.43
-67.42
-80.37
-71.10
-44.05
-6.76
33.48
72.18
108.29
142.68
175.63
204.83
225.39
231.82
220.86
193.41
153.84
107.39
57.04
2.54
-57.99
-124.60
-192.58
-252.61
-293.94
-309.06
-297.03
-263.78
-218.98
-171.40
-125.68
-82.02
-38.77
3.90
42.16
69.58
80.85
75.63
59.99
44.50
39.93
52.77
82.70
122.94
163.45
195.01
212.66
217.22
214.49
212.43
217.22
230.28
247.35
259.84
258.40
236.55
193.10
132.58
63.77
-2.64
-56.29
-88.64
-94.42
-72.55
-26.82
34.20
98.87
155.18
193.78
210.36
206.39
188.01
163.73
141.51
126.15
118.09
113.68
106.90
91.81
64.75
25.44
-23.01
-75.37
-125.95
-170.04
-204.90
-229.93
-246.31
-256.21
-261.49
-262.53
-257.67
-243.71
-217.45
-177.66
-126.59
-69.76
-14.48
32.71
68.18
92.05
107.46
118.74
129.42
141.06
153.25
164.48
173.74
181.57
190.43
203.67
223.79
250.63
280.61
307.63
325.23
329.01
317.97
294.31
261.80
223.80
182.22
137.69
90.58
41.91
-6.45
-52.48
-95.07
-134.49
-172.33
-210.81
-252.22
-298.33
-349.86
-405.57
-461.38
-510.35
-543.91
-554.33
-537.47
-494.50
-431.16
-355.36
-274.35
-193.10
-114.73
-42.10
21.16
71.32
106.64
129.15
144.26
158.10
173.84
189.21
197.09
188.57
157.56
104.48
37.47
-29.87
-82.81
-110.62
-110.17
-86.58
-50.87
-15.50
10.24
22.56
22.65
14.31
1.32
-13.71
-28.07
-37.22
-34.25
-12.12
32.41
95.38
165.20
226.08
263.48
269.37
244.06
194.56
130.72
61.63
-5.90
-66.60
-115.19
-145.61
-152.21
-132.54
-89.93
-34.09
21.17
62.37
80.57
73.61
45.38
2.86
-46.96
-98.66
-147.97
-190.43
-220.95
-235.14
-231.78
-214.70
-192.35
-174.52
-167.98
-173.78
-187.41
-201.60
-209.88
-208.81
-197.94
-178.32
-151.32
-118.21
-80.95
-42.69
-7.01
23.72
50.05
75.76
106.56
147.29
199.19
258.62
317.43
365.16
391.92
391.50
363.52
314.10
254.42
197.39
153.59
127.95
118.49
117.84
116.49
106.02
81.24
40.70
-13.70
-77.28
-142.97
-202.04
-245.92
-268.22
-266.77
-244.69
-209.43
-170.54
-136.99
-115.13
-107.85
-114.87
-133.86
-161.53
-194.69
-230.67
-267.21
-301.82
-331.26
-351.42
-358.24
-349.22
-324.62
-287.73
-243.64
-197.17
-151.14
-105.53
-58.25
-6.96
48.89
106.82
161.47
205.94
233.69
240.38
225.23
191.32
145.12
95.04
49.50
15.10
-4.77
-10.22
-4.27
8.21
21.92
32.24
36.29
33.71
26.86
20.04
17.98
23.90
38.25
58.90
82.51
106.44
129.93
153.83
179.47
207.60
238.26
271.54
307.99
347.87
389.49
428.02
455.96
465.63
452.68
418.12
367.93
310.20
251.36
193.54
134.57
70.39
-1.06
-76.86
-148.53
-204.71
-235.63
-237.98
-217.12
-186.12
-161.36
-156.79
-179.45
-227.77
-293.09
-363.10
-425.68
-471.59
-495.50
-495.99
-474.78
-435.85
-384.46
-326.03
-265.05
-204.45
-145.43
-88.02
-32.24
20.91
69.05
108.77
136.85
151.62
153.94
147.22
136.34
126.11
120.01
119.43
123.74
130.77
137.39
140.14
136.02
123.40
102.81
77.07
50.58
28.10
13.28
7.69
10.64
19.74
32.05
45.18
57.89
70.05
81.84
92.97
102.03
106.72
105.09
96.97
84.72
72.58
64.67
62.70
64.96
67.11
64.57
55.00
39.31
20.86
3.39
-10.71
-20.84
-27.10
-29.03
-25.25
-14.32
3.52
25.22
45.58
59.11
62.61
56.80
45.99
35.98
31.35
33.62
41.09
50.35
58.19
62.66
63.18
59.38
50.65
36.19
16.57
-5.33
-24.39
-35.17
-34.56
-23.54
-6.83
9.45
20.60
25.05
24.25
20.86
16.94
13.22
9.80
7.02
6.32
9.49
17.30
28.37
39.07
44.75
41.51
27.74
4.46
-25.19
-57.04
-87.00
-111.61
-128.43
-136.17
-135.13
-127.18
-115.13
-101.63
-88.10
-74.24
-58.68
-40.34
-19.85
-0.01
15.00
21.53
18.24
6.95
-8.13
-22.12
-31.51
-35.24
-34.41
-31.10
-26.91
-22.22
-16.52
-9.32
-0.85
7.57
14.23
17.84
18.24
16.60
15.04
15.83
20.54
29.18
39.96
49.82
55.43
54.65
47.46
36.04
23.94
14.86
11.39
14.22
21.92
31.22
37.82
37.82
29.07
12.37
-8.51
-28.60
-43.69
-52.06
-54.60
-53.41
-49.90
-43.95
-34.40
-20.66
-4.06
12.23
24.51
30.60
30.84
27.89
25.35
26.12
31.23
39.74
49.54
58.30
64.35
67.08
66.93
65.31
64.57
67.77
77.91
96.34
121.22
147.19
166.90
174.07
166.67
148.58
128.54
116.79
120.66
141.32
173.24
206.31
230.03
237.31
226.47
200.79
166.16
128.12
89.83
51.33
10.14
-36.81
-91.16
-151.45
-212.60
-266.58
-304.18
-317.30
-300.87
-254.43
-182.65
-94.87
-3.76
76.51
132.76
155.47
141.68
96.91
34.80
-26.05
-67.80
-79.50
-60.94
-22.27
20.42
51.43
60.89
46.86
13.54
-32.68
-86.80
-146.33
-209.58
-272.71
-328.33
-366.70
-379.18
-362.03
-317.70
-253.52
-178.36
-99.68
-22.86
47.23
104.24
140.24
148.35
126.98
82.65
28.84
-18.95
-49.68
-60.87
-58.22
-51.09
-46.96
-48.16
-52.35
-55.79
-56.48
-55.15
-53.71
-52.75
-50.38
-43.25
-29.11
-9.09
12.38
29.68
38.88
39.69
35.26
30.29
28.57
31.35
37.31
43.45
46.50
44.02
35.19
21.23
5.41
-7.50
-12.58
-6.57
10.53
35.17
61.34
82.92
95.66
98.22
91.55
77.63
58.51
36.28
13.90
-4.37
-13.60
-10.12
6.24
31.21
57.04
75.50
81.34
74.34
58.96
41.69
28.10
20.91
19.99
23.83
30.93
40.14
50.11
58.58
62.31
58.21
44.38
20.53
-12.75
-54.93
-105.58
-163.12
-223.12
-277.71
-317.10
-333.09
-322.26
-287.40
-236.01
-176.83
-116.39
-57.13
1.63
61.40
121.92
180.22
231.75
272.36
300.29
316.63
324.14
325.32
320.95
309.79
289.67
259.40
219.94
174.10
125.44
76.66
29.01
-17.38
-62.70
-107.22
-151.59
-197.17
-245.37
-295.85
-344.82
-384.92
-407.80
-408.26
-387.49
-353.12
-315.77
-283.71
-259.21
-238.35
-214.32
-182.07
-140.97
-94.26
-45.99
1.99
51.63
107.25
172.31
246.22
322.94
391.95
441.86
464.35
457.29
425.34
377.71
324.13
271.17
220.30
168.53
111.60
47.73
-19.86
-83.11
-131.89
-158.07
-158.75
-137.20
-101.35
-60.79
-23.79
4.32
20.61
23.32
10.86
-17.97
-62.58
-119.35
-181.56
-240.92
-289.90
-323.54
-340.07
-340.72
-329.08
-310.40
-290.90
-276.54
-271.56
-276.89
-289.60
-303.69
-312.43
-310.82
-297.27
-273.47
-242.80
-208.40
-172.06
-134.12
-94.55
-53.60
-12.01
29.90
72.41
116.33
162.01
208.26
252.01
289.19
316.53
332.98
340.05
340.41
336.06
327.07
311.83
289.01
259.16
225.11
190.92
160.26
135.76
119.19
111.90
114.20
123.96
134.81
136.63
118.69
74.86
8.10
-68.63
-136.05
-176.02
-178.59
-146.32
-93.10
-38.95
-2.79
3.82
-20.22
-66.09
-119.13
-164.08
-189.88
-191.99
-171.84
-134.47
-85.73
-30.66
26.66
82.12
131.05
168.67
191.47
198.52
191.68
174.79
151.76
125.51
97.93
70.63
45.86
26.74
16.44
16.70
26.99
44.54
65.34
85.37
101.26
110.41
110.92
101.68
82.64
55.08
21.38
-15.67
-53.65
-90.91
-126.33
-158.42
-184.96
-203.12
-209.96
-203.39
-182.97
-150.14
-108.00
-60.63
-12.61
31.71
68.84
96.64
114.26
122.08
121.65
115.67
107.78
101.74
100.20
103.43
108.99
112.84
111.37
103.27
90.23
75.79
63.17
53.68
46.73
41.05
36.38
34.10
36.32
43.99
55.65
67.41
74.56
73.87
65.23
51.73
38.56
30.81
31.23
39.43
52.14
65.08
74.80
80.06
82.07
83.37
86.30
91.83
99.36
107.46
114.78
120.60
124.65
126.61
125.30
118.90
105.36
83.23
52.41
14.10
-30.01
-78.80
-132.19
-190.40
-252.33
-313.75
-366.77
-401.59
-409.90
-388.16
-339.36
-271.82
-196.06
-121.31
-53.76
3.24
47.70
78.03
93.57
96.25
91.53
87.59
92.10
108.45
133.69
159.63
176.82
179.48
168.47
150.71
135.13
127.65
127.88
129.53
123.87
104.44
70.14
25.07
-24.00
-70.73
-111.02
-142.69
-164.19
-173.82
-170.21
-154.08
-129.90
-105.53
-90.16
-90.95
-110.20
-144.33
-185.35
-223.57
-250.63
-261.34
-254.31
-230.87
-193.53
-145.00
-88.29
-27.44
32.12
84.29
124.07
149.80
164.17
173.09
182.78
196.37
212.06
223.98
225.34
211.83
183.41
143.69
97.57
48.78
-0.98
-51.18
-100.79
-147.16
-186.36
-214.69
-230.46
-235.14
-232.71
-227.70
-222.79
-217.45
-208.12
-189.98
-159.64
-117.13
-66.40
-14.16
32.27
67.25
88.13
95.64
93.24
86.03
79.36
77.31
81.78
92.11
106.00
121.07
136.31
152.28
169.87
188.49
204.85
213.74
210.34
192.82
163.42
127.31
90.28
56.47
27.88
5.09
-11.54
-21.39
-24.25
-21.55
-16.73
-14.10
-17.29
-27.63
-43.80
-62.86
-81.76
-98.46
-112.06
-122.35
-128.76
-130.05
-124.51
-110.55
-87.76
-57.60
-23.78
8.54
34.21
50.20
57.06
59.00
61.77
69.53
82.22
95.14
101.26
95.19
76.59
50.91
27.09
13.36
13.51
25.68
44.03
62.01
75.27
82.63
85.01
83.67
78.95
70.34
57.73
42.31
26.64
13.61
4.82
-0.30
-4.38
-10.66
-21.18
-35.85
-52.19
-66.41
-74.94
-75.80
-69.28
-57.61
-43.67
-29.56
-15.77
-1.58
13.53
28.32
39.26
41.63
31.86
9.71
-21.04
-53.95
-82.53
-102.73
-113.90
-118.16
-118.72
-118.29
-118.50
-120.15
-123.57
-128.69
-134.95
-140.89
-144.00
-141.61
-131.51
-112.72
-86.14
-54.65
-22.56
5.47
25.83
37.14
40.28
37.60
31.35
22.90
13.04
3.25
-3.58
-4.05
3.69
17.74
32.43
40.70
38.12
25.59
9.23
-3.04
-5.90
0.67
12.01
22.15
26.98
25.91
20.97
14.52
7.58
-0.01
-8.24
-15.70
-19.38
-16.18
-4.79
13.36
34.37
53.68
67.96
76.12
79.07
78.61
76.14
72.01
65.73
56.79
45.67
34.31
25.74
22.54
25.39
31.98
37.57
37.04
27.40
9.53
-12.04
-31.27
-43.57
-47.60
-45.32
-40.05
-34.23
-28.69
-22.76
-15.74
-7.77
0.23
7.38
13.61
19.65
26.40
33.91
41.15
46.41
48.16
45.79
39.93
32.12
24.14
17.44
12.50
8.70
4.29
-2.89
-14.35
-29.72
-46.17
-58.89
-62.92
-55.54
-37.88
-14.89
6.74
21.60
27.80
27.36
24.38
22.55
23.25
25.60
27.76
28.54
28.07
27.17
26.21
24.53
21.02
15.25
8.31
2.52
0.32
2.82
9.16
17.05
23.80
27.52
27.60
24.50
19.32
13.17
6.98
1.23
-4.06
-9.26
-14.91
-21.11
-27.14
-31.61
-33.24
-31.86
-28.92
-26.98
-28.28
-33.40
-40.86
-47.96
-52.44
-53.70
-52.97
-52.20
-52.98
-55.86
-60.67
-67.32
-76.05
-86.76
-98.15
-107.23
-110.22
-104.31
-89.36
-68.34
-46.20
-27.77
-15.77
-9.92
-7.39
-4.27
2.82
15.64
33.85
55.23
76.33
93.54
104.26
108.06
107.19
105.96
109.29
120.57
140.05
164.44
187.95
204.40
209.44
201.81
183.27
157.26
127.24
95.43
62.67
29.32
-3.67
-34.07
-58.68
-74.55
-80.63
-78.78
-73.52
-70.40
-73.52
-83.57
-97.45
-109.88
-116.26
-114.97
-108.14
-100.26
-95.64
-96.45
-102.12
-110.32
-118.20
-123.01
-122.00
-112.26
-91.39
-59.21
-19.16
21.60
54.24
71.58
70.94
55.07
30.69
5.60
-13.91
-24.35
-24.89
-16.64
-1.74
16.77
35.29
50.14
58.44
59.14
53.50
44.79
37.29
34.79
39.28
50.27
65.05
79.73
90.50
94.86
92.10
82.94
68.67
50.51
29.54
7.35
-13.39
-29.02
-36.03
-32.80
-21.07
-5.91
5.83
8.34
-0.58
-18.83
-41.06
-61.29
-75.22
-81.42
-80.76
-75.15
-66.57
-56.74
-47.38
-40.42
-37.75
-40.42
-47.86
-57.28
-64.30
-64.37
-54.54
-35.04
-9.80
14.34
29.74
30.79
16.26
-10.00
-40.44
-66.61
-82.07
-83.85
-72.04
-48.50
-15.61
23.31
63.16
96.60
115.49
113.58
89.45
47.72
-2.48
-51.01
-90.18
-116.63
-130.75
-134.45
-129.34
-116.05
-95.10
-68.22
-38.91
-11.59
10.18
25.34
35.89
45.96
59.94
80.57
107.79
138.73
168.80
193.12
207.81
210.66
201.22
180.68
151.62
117.86
84.33
56.40
38.77
33.82
40.28
52.93
64.00
65.71
53.29
26.94
-8.18
-44.17
-73.63
-92.43
-100.69
-101.75
-99.97
-98.63
-99.05
-101.14
-104.52
-109.14
-114.97
-121.01
-124.64
-122.17
-110.36
-88.43
-58.99
-27.44
0.19
19.72
30.51
35.38
38.86
44.73
54.16
65.33
74.81
79.83
80.05
77.77
76.39
78.26
83.09
88.08
89.52
84.88
73.98
58.86
42.53
27.93
17.52
13.47
17.62
30.65
51.03
74.47
94.96
107.06
108.25
100.11
87.57
76.68
72.46
77.45
91.40
111.78
134.58
155.31
170.21
177.17
176.44
170.17
161.01
150.48
138.19
122.65
102.86
79.75
55.95
34.19
15.24
-3.05
-24.82
-54.01
-92.24
-138.13
-188.08
-237.85
-283.70
-322.73
-352.71
-372.03
-380.01
-377.49
-366.81
-350.88
-331.94
-310.58
-285.99
-257.09
-223.78
-187.49
-150.72
-115.76
-83.76
-54.47
-26.91
-0.31
25.14
48.23
67.10
80.00
86.02
85.70
81.18
75.42
70.87
68.00
64.83
57.77
43.80
22.65
-2.26
-25.10
-40.39
-45.67
-42.66
-36.16
-31.55
-32.47
-39.70
-51.83
-66.54
-81.73
-95.69
-106.77
-113.25
-113.75
-108.10
-98.01
-86.79
-78.23
-75.07
-77.77
-84.20
-90.39
-91.95
-85.57
-70.24
-47.79
-22.43
0.64
17.16
25.65
28.25
29.71
35.06
47.07
64.67
83.66
98.85
106.70
106.72
100.99
92.57
84.01
76.99
72.64
71.94
75.36
81.93
88.75
91.80
87.99
77.18
62.64
49.54
42.34
42.42
47.77
54.55
59.37
60.89
59.82
57.75
55.88
54.54
53.41
52.01
49.95
46.62
41.17
32.92
22.09
10.36
0.50
-4.93
-5.10
-1.58
2.38
3.58
0.49
-6.17
-14.24
-21.61
-27.26
-31.43
-35.01
-38.69
-42.55
-46.29
-49.49
-51.75
-52.37
-50.17
-43.66
-31.70
-14.26
7.07
29.47
49.75
65.37
75.19
79.54
80.13
79.42
80.02
83.84
91.35
101.08
109.96
114.52
112.61
104.76
94.33
86.02
83.55
87.62
95.41
101.97
102.69
95.36
80.72
61.36
39.84
17.36
-6.24
-31.40
-57.47
-82.20
-102.52
-116.05
-122.38
-123.30
-121.80
-120.49
-120.29
-120.11
-117.75
-111.26
-100.19
-86.05
-71.69
-60.01
-52.75
-49.73
-49.09
-48.27
-45.22
-39.19
-30.74
-21.20
-11.83
-3.32
4.01
9.70
12.70
11.60
5.46
-5.26
-18.46
-31.18
-40.94
-46.96
-50.17
-52.29
-54.42
-56.19
-55.94
-51.73
-42.70
-29.68
-14.84
-0.60
11.66
22.23
32.92
45.96
62.67
82.49
102.75
119.40
128.85
129.50
122.71
112.27
102.62
96.59
94.03
91.91
86.06
73.52
54.41
32.24
12.52
0.12
-3.06
0.94
7.20
10.45
7.52
-1.49
-13.95
-26.79
-38.44
-49.43
-61.36
-75.10
-89.54
-101.88
-109.31
-110.72
-107.48
-102.61
-98.95
-97.55
-97.38
-96.08
-91.49
-82.67
-70.24
-55.63
-40.23
-24.80
-9.60
5.04
18.28
28.63
34.34
34.37
29.18
21.01
13.16
8.56
8.20
10.40
11.50
7.66
-2.88
-18.62
-35.08
-46.82
-49.77
-42.99
-28.85
-11.80
3.55
14.02
18.49
17.64
13.28
7.62
2.87
0.80
2.53
8.28
17.33
28.11
38.64
47.14
52.71
55.49
56.49
56.97
57.71
58.58
58.71
57.32
54.45
51.38
49.85
50.77
53.27
54.54
51.15
41.00
24.89
6.56
-8.76
-16.73
-15.70
-7.18
5.30
17.96
28.26
35.42
39.90
42.54
44.05
44.99
46.05
48.35
53.16
61.36
72.75
85.71
97.64
105.87
108.93
107.28
103.23
99.81
99.29
101.84
105.39
106.67
102.85
92.94
77.99
60.14
41.08
21.12
-0.74
-25.68
-53.72
-83.07
-110.50
-132.58
-146.96
-153.14
-152.33
-147.07
-140.27
-134.69
-132.49
-134.91
-142.10
-153.04
-165.72
-177.48
-185.61
-187.90
-183.13
-171.38
-153.93
-132.82
-109.97
-86.42
-62.13
-36.49
-9.31
18.02
42.31
59.60
67.05
64.79
56.56
48.25
45.08
48.94
57.27
64.52
65.14
56.28
38.91
16.56
-6.95
-29.21
-49.30
-66.58
-79.53
-85.73
-83.37
-72.84
-57.26
-41.22
-28.29
-19.26
-12.13
-3.74
8.13
23.45
40.46
57.09
72.37
86.76
101.33
116.28
130.40
141.40
146.99
146.22
140.09
131.29
123.15
118.45
118.53
122.83
128.87
132.77
130.29
118.22
95.75
65.02
30.55
-2.40
-29.73
-49.77
-63.24
-72.03
-77.92
-81.79
-83.89
-84.53
-84.67
-85.59
-88.17
-92.01
-95.26
-95.56
-91.08
-81.32
-67.23
-50.58
-33.15
-16.29
-0.94
11.81
20.26
22.52
17.34
5.45
-9.96
-24.11
-32.84
-34.74
-31.79
-28.09
-27.37
-30.97
-37.52
-44.42
-49.57
-52.21
-52.50
-50.32
-44.86
-35.17
-21.56
-6.28
7.21
15.99
19.38
19.20
18.58
20.17
24.89
31.85
39.43
46.21
51.76
56.64
61.81
67.80
74.00
78.51
78.70
72.61
60.33
44.61
29.98
20.64
18.48
22.11
27.62
30.53
27.79
18.85
5.41
-9.59
-23.06
-32.42
-35.94
-32.93
-23.91
-10.81
3.33
15.15
22.15
23.49
20.30
15.10
10.87
10.03
13.77
21.85
33.03
45.92
59.79
74.95
92.28
112.40
134.57
156.22
173.75
183.83
184.88
177.59
164.11
146.41
124.81
97.80
63.47
21.62
-25.00
-71.04
-110.67
-140.05
-158.76
-169.50
-176.28
-182.53
-189.95
-198.66
-208.18
-218.04
-228.05
-237.83
-246.48
-252.68
-255.17
-253.33
-247.39
-238.12
-226.44
-213.07
-198.40
-182.43
-164.89
-145.39
-123.68
-99.99
-75.19
-50.55
-27.03
-4.61
17.66
41.01
65.91
91.44
115.62
136.51
153.21
166.24
176.81
185.74
192.73
196.63
196.23
191.19
182.34
171.05
158.56
145.51
131.97
117.88
103.42
88.96
74.88
61.63
49.78
40.23
34.20
32.89
36.97
46.15
59.02
73.09
85.24
92.26
91.89
83.81
70.28
55.83
45.35
41.87
44.48
48.53
47.65
37.04
15.95
-11.92
-40.39
-63.61
-78.02
-82.82
-78.98
-67.94
-51.05
-29.96
-6.87
15.52
34.36
47.35
52.94
50.62
41.22
27.34
13.14
3.07
-0.14
3.15
9.98
16.47
20.04
20.15
17.26
11.31
1.29
-13.10
-29.41
-42.28
-45.73
-36.98
-19.22
-0.95
8.18
2.29
-17.78
-45.13
-70.52
-86.56
-90.18
-82.51
-67.06
-47.01
-23.51
4.66
39.90
83.39
132.96
182.12
221.25
240.83
235.59
206.86
162.45
113.60
70.85
40.37
22.52
12.91
5.22
-5.98
-23.41
-46.40
-72.00
-96.36
-116.40
-130.88
-140.61
-147.72
-154.63
-163.00
-172.91
-182.95
-190.75
-193.92
-190.77
-180.62
-163.43
-139.59
-109.78
-75.21
-38.30
-2.76
26.85
46.50
54.01
50.13
38.39
24.14
12.79
8.13
11.36
20.74
32.22
40.51
40.51
28.48
3.09
-33.95
-77.67
-120.29
-152.67
-166.70
-157.93
-127.48
-82.30
-33.55
6.78
29.84
32.84
19.89
0.28
-14.95
-16.95
-1.95
27.57
63.86
96.50
116.04
117.44
102.08
77.21
53.14
39.05
39.37
52.29
70.81
85.72
88.94
75.75
45.40
0.60
-53.47
-109.80
-160.00
-195.21
-208.15
-195.52
-159.81
-109.00
-54.04
-5.09
31.41
53.58
62.56
60.27
47.66
25.25
-5.03
-38.02
-65.30
-77.63
-68.93
-39.55
3.15
47.48
81.80
98.93
97.94
83.08
61.17
38.14
17.18
-1.24
-17.87
-32.86
-44.98
-52.16
-53.21
-49.57
-45.63
-47.51
-60.30
-85.39
-118.86
-152.33
-175.68
-180.47
-162.96
-125.01
-73.18
-16.60
35.44
75.17
96.90
97.55
77.03
38.73
-10.34
-60.53
-101.49
-124.80
-125.87
-105.08
-67.11
-19.52
29.19
71.48
102.14
118.70
121.35
112.24
94.62
72.40
49.76
31.10
20.79
22.32
37.20
63.99
98.25
134.08
166.34
192.22
211.58
225.61
234.91
238.28
233.37
218.67
195.64
169.51
147.58
136.07
136.82
145.81
154.48
153.33
135.64
99.93
49.92
-7.75
-66.19
-120.42
-167.77
-206.89
-236.40
-254.19
-257.85
-245.87
-218.95
-180.48
-136.22
-93.07
-57.48
-34.02
-24.18
-25.66
-32.62
-36.81
-29.93
-6.45
34.01
85.90
138.99
181.65
204.48
203.27
179.72
140.15
92.54
43.76
-2.12
-43.57
-80.01
-110.32
-132.10
-142.58
-140.22
-126.12
-104.19
-79.89
-58.30
-42.58
-33.51
-30.10
-30.54
-32.97
-35.92
-38.41
-40.22
-42.02
-45.12
-50.60
-58.07
-65.06
-67.66
-62.36
-48.06
-27.12
-4.61
13.86
24.55
27.04
24.00
19.61
17.54
19.52
25.00
31.73
36.98
38.56
35.50
28.23
18.29
7.98
-0.18
-4.07
-2.42
4.78
16.24
29.59
42.21
52.25
59.35
64.79
70.66
78.61
88.62
98.62
105.27
105.53
98.08
84.01
66.30
48.40
33.01
21.56
14.64
12.95
17.79
30.65
51.90
79.36
107.84
130.27
139.92
133.13
110.93
78.89
45.29
18.08
2.19
-1.83
2.42
8.90
11.26
4.52
-14.12
-45.09
-86.49
-133.95
-180.63
-217.97
-237.88
-235.63
-212.26
-174.91
-134.38
-100.93
-80.18
-71.56
-69.86
-68.85
-64.83
-58.13
-51.91
-49.54
-52.21
-58.36
-64.93
-69.45
-71.32
-71.91
-73.47
-77.60
-84.47
-92.70
-99.96
-103.93
-103.09
-97.02
-86.53
-73.18
-58.49
-43.27
-27.14
-8.75
13.45
40.10
70.25
101.21
129.43
151.59
165.56
170.81
168.27
159.94
148.41
136.43
126.24
118.96
114.37
111.24
108.27
104.91
101.48
98.30
94.58
87.77
74.50
52.44
22.29
-11.40
-41.71
-62.09
-69.26
-64.65
-53.60
-42.94
-38.19
-41.64
-51.99
-65.49
-77.51
-84.04
-82.51
-71.88
-52.56
-26.25
4.05
34.18
59.29
75.07
79.38
73.47
61.89
50.96
46.07
49.20
58.21
67.94
72.82
69.46
57.83
40.56
21.14
2.13
-15.50
-31.91
-47.24
-60.92
-71.75
-78.73
-81.66
-81.35
-78.97
-75.51
-71.42
-66.76
-61.62
-56.37
-51.42
-46.79
-41.79
-35.39
-26.96
-17.09
-7.82
-1.90
-1.20
-5.11
-9.82
-9.40
1.64
25.42
59.03
95.14
124.76
140.80
140.64
126.55
103.91
78.41
53.92
31.68
11.19
-8.36
-26.95
-43.69
-57.46
-67.82
-75.21
-80.48
-84.09
-85.56
-83.73
-77.70
-67.82
-55.95
-44.70
-35.98
-29.98
-25.26
-20.06
-13.83
-7.79
-3.94
-2.92
-2.49
2.12
15.57
39.11
68.55
95.20
109.56
105.95
85.30
54.87
24.75
3.34
-5.94
-5.02
0.94
6.62
8.89
7.17
2.49
-3.89
-11.20
-18.88
-26.01
-30.89
-31.43
-25.95
-13.93
3.68
24.90
47.41
69.11
88.32
103.81
114.61
120.08
120.23
116.07
109.75
104.27
102.61
106.56
115.83
127.68
137.80
141.76
136.59
121.71
98.76
70.56
39.82
8.21
-23.79
-56.34
-89.39
-122.04
-152.47
-178.34
-197.43
-208.23
-210.26
-204.07
-190.91
-172.69
-151.75
-130.66
-111.99
-97.69
-88.57
-83.89
-81.44
-78.35
-72.31
-62.52
-49.99
-36.81
-25.01
-15.91
-10.07
-7.76
-9.37
-15.19
-24.82
-36.71
-48.53
-58.14
-64.58
-68.28
-70.26
-70.99
-69.86
-65.37
-56.35
-42.81
-26.01
-7.93
9.32
23.70
33.25
36.35
32.63
23.91
14.53
10.12
15.13
30.42
52.28
73.66
87.02
87.43
74.38
51.89
27.00
7.35
-1.20
3.82
21.02
45.96
72.99
97.27
116.07
128.84
136.07
138.06
134.22
123.49
105.42
81.18
53.61
26.22
1.67
-19.17
-37.08
-53.26
-67.92
-79.47
-85.00
-81.80
-68.95
-48.07
-22.75
2.90
25.80
44.46
58.64
68.33
73.05
72.06
65.42
54.80
43.33
34.14
28.44
24.50
18.36
5.99
-14.18
-39.95
-66.05
-86.44
-96.89
-96.46
-87.29
-73.15
-57.64
-43.19
-31.07
-21.98
-16.40
-14.55
-15.92
-18.94
-21.33
-21.06
-17.27
-10.76
-3.40
2.89
7.13
9.45
10.59
11.01
10.45
8.42
5.16
2.28
2.23
6.81
15.48
24.90
30.19
27.51
16.29
-0.19
-16.22
-26.43
-28.13
-22.05
-11.34
0.15
9.41
14.71
15.24
10.72
1.36
-11.62
-25.80
-37.72
-43.98
-42.44
-32.90
-17.23
1.51
20.12
35.80
46.17
48.92
41.88
23.82
-3.96
-36.54
-65.53
-81.37
-77.00
-51.24
-9.83
36.47
76.12
101.26
110.06
106.12
95.63
84.16
74.92
69.00
66.68
68.39
74.64
84.76
96.15
104.49
105.22
95.77
76.67
51.52
25.45
3.03
-13.24
-23.36
-29.12
-32.83
-36.13
-39.61
-43.02
-45.98
-48.53
-51.23
-54.70
-58.94
-63.20
-66.50
-68.72
-71.37
-77.40
-89.81
-109.60
-134.50
-159.19
-177.34
-184.20
-178.64
-163.28
-143.02
-122.75
-105.63
-92.67
-83.20
-75.92
-69.58
-62.92
-54.68
-43.93
-30.60
-15.92
-1.83
10.29
20.86
32.38
48.04
69.44
94.95
119.72
138.01
146.19
145.01
139.46
136.19
139.91
150.74
164.10
173.07
171.76
157.89
133.16
101.60
67.26
32.63
-1.30
-33.66
-62.31
-83.97
-95.45
-95.48
-85.66
-69.82
-52.20
-35.71
-21.14
-7.61
6.08
20.31
34.43
47.22
57.68
65.62
71.48
75.71
78.02
77.08
71.04
58.74
41.20
22.08
6.74
-0.16
2.86
12.98
24.28
30.79
29.60
22.25
13.54
8.75
10.82
19.13
30.23
39.68
43.81
40.54
29.29
10.56
-14.36
-43.34
-73.49
-101.31
-123.25
-136.30
-138.57
-129.59
-110.46
-83.77
-53.19
-22.93
3.08
21.92
32.16
34.10
29.57
21.46
12.72
5.33
-0.57
-6.59
-15.09
-27.51
-43.06
-58.50
-69.44
-72.18
-65.40
-50.57
-31.11
-11.04
6.32
18.83
25.57
26.70
23.40
17.85
12.95
11.54
15.49
24.82
37.62
50.65
60.55
65.29
65.01
62.14
60.29
62.61
70.12
80.93
90.85
95.30
91.52
79.95
63.93
47.95
35.19
25.94
17.58
6.22
-11.07
-34.63
-62.15
-89.89
-114.55
-134.42
-149.44
-160.39
-167.77
-171.36
-170.78
-166.23
-159.04
-151.33
-144.83
-139.83
-134.95
-127.80
-116.42
-100.46
-81.45
-62.02
-44.57
-30.30
-18.98
-9.63
-1.52
5.28
10.09
12.62
13.86
16.18
22.23
33.22
47.52
60.85
67.92
64.96
51.71
31.64
10.44
-6.48
-15.97
-17.79
-13.88
-7.08
0.12
6.03
9.67
10.57
8.80
5.25
1.74
0.85
5.24
16.72
35.40
59.43
85.30
108.89
126.78
137.23
140.44
138.07
132.32
124.92
116.75
107.97
98.59
88.98
80.17
73.57
70.27
70.16
71.50
71.38
66.93
56.90
42.52
27.09
14.39
6.73
3.81
3.16
1.54
-3.23
-11.50
-22.28
-34.28
-46.85
-59.88
-72.96
-84.72
-92.88
-95.17
-90.63
-80.18
-66.42
-52.50
-40.93
-32.60
-26.62
-20.87
-13.02
-1.65
12.77
27.78
39.69
45.11
42.63
33.75
22.37
13.04
8.81
9.91
13.98
17.59
18.20
15.29
10.20
4.95
0.85
-2.13
-5.28
-10.34
-18.63
-30.50
-45.24
-61.30
-76.72
-89.49
-97.88
-100.70
-97.40
-88.26
-74.43
-57.86
-41.14
-26.79
-16.72
-11.53
-10.20
-10.22
-8.23
-0.99
13.41
34.61
59.64
83.44
100.41
106.43
100.50
85.16
65.36
46.39
32.02
23.64
20.77
22.17
26.71
33.53
41.60
49.25
54.07
53.41
45.05
27.93
2.66
-28.31
-60.86
-89.77
-109.78
-116.87
-109.37
-88.47
-57.95
-23.38
9.07
33.83
47.03
47.53
37.47
22.00
8.17
2.83
10.54
32.07
64.19
100.57
133.52
155.94
163.06
153.50
129.72
97.34
63.57
34.98
15.45
4.95
-0.01
-4.64
-13.58
-29.13
-51.03
-77.35
-106.01
-135.62
-165.44
-194.52
-220.93
-241.92
-254.78
-258.24
-253.35
-243.34
-232.39
-224.03
-219.89
-219.18
-219.08
-215.70
-205.25
-185.24
-155.33
-117.70
-76.52
-36.49
-1.16
28.16
52.48
73.87
93.90
112.66
128.95
141.37
149.60
154.64
158.00
160.32
160.45
155.88
144.16
124.60
99.13
71.65
46.50
26.74
13.32
5.46
1.73
1.15
3.68
9.92
20.24
34.23
50.53
67.34
82.95
96.16
106.37
113.33
116.98
117.37
114.56
108.79
100.61
91.06
81.76
74.73
71.85
74.10
80.83
89.65
97.06
99.86
96.74
88.96
79.78
72.58
68.99
68.05
67.07
63.46
56.27
46.47
35.74
24.85
12.93
-1.63
-19.43
-38.62
-55.10
-64.50
-64.51
-56.42
-44.47
-33.94
-28.63
-29.55
-34.99
-41.70
-46.44
-47.17
-43.48
-36.36
-27.47
-18.34
-9.90
-2.38
4.09
8.76
10.02
5.97
-4.12
-18.44
-32.28
-39.54
-35.41
-19.12
4.93
28.62
43.40
43.87
29.75
5.30
-23.19
-50.34
-73.33
-91.79
-106.46
-117.73
-125.32
-128.84
-128.62
-125.97
-122.55
-119.21
-115.43
-109.49
-99.71
-85.73
-69.07
-52.63
-39.17
-29.82
-23.37
-16.93
-7.47
6.42
23.54
40.60
53.66
59.93
58.86
51.93
41.53
29.72
17.58
5.40
-6.45
-16.92
-24.17
-26.26
-22.12
-12.18
1.52
16.02
28.34
36.41
39.64
39.00
36.70
35.51
37.95
45.70
59.09
77.18
98.02
118.98
137.28
150.40
156.81
156.68
152.19
147.31
146.56
153.28
168.15
188.96
211.62
232.05
247.54
257.04
260.25
256.54
244.35
221.93
188.62
145.86
97.09
46.64
-1.99
-47.08
-88.98
-129.60
-171.93
-219.24
-274.01
-336.53
-403.38
-467.05
-517.37
-544.44
-542.02
-509.60
-452.48
-379.91
-302.76
-231.69
-176.02
-142.65
-134.89
-151.17
-184.42
-223.46
-255.74
-271.18
-265.22
-239.16
-197.93
-147.14
-90.97
-31.79
28.27
86.27
137.32
175.40
195.07
194.16
174.94
143.73
109.45
80.88
65.51
67.20
85.32
114.67
147.78
176.84
195.31
199.58
188.77
165.70
134.92
101.40
68.89
41.29
21.97
12.79
14.23
17.76
14.56
-1.55
-30.50
-68.54
-109.39
-147.89
-181.47
-206.19
-222.68
-230.67
-229.72
-219.80
-203.63
-182.55
-156.55
-128.76
-105.74
-93.86
-96.37
-112.87
-127.92
-137.77
-141.60
-138.50
-135.06
-132.74
-131.39
-129.39
-125.15
-117.83
-109.56
-101.48
-94.26
-88.53
-83.26
-77.48
-70.04
-60.23
-47.92
-35.07
-22.60
-10.85
-0.13
10.32
21.03
32.37
44.48
57.36
70.13
82.90
96.29
110.80
127.24
145.73
165.94
187.23
209.03
230.61
251.96
273.52
295.97
320.55
348.40
379.99
414.24
447.93
475.79
492.26
493.43
478.67
451.09
416.21
379.77
345.78
315.63
288.68
263.51
239.08
215.02
191.28
167.49
142.93
116.98
89.80
62.55
37.03
14.98
-2.81
-16.76
-28.20
-38.67
-49.14
-59.60
-69.11
-76.40
-80.46
-81.02
-78.60
-74.24
-69.14
-64.26
-60.23
-57.35
-55.76
-55.57
-56.82
-59.42
-62.91
-66.46
-68.99
-69.46
-67.24
-62.33
-55.37
-47.45
-39.65
-32.83
-27.41
-23.57
-21.39
-21.02
-22.59
-25.99
-30.65
-35.42
-38.90
-39.85
-37.61
-32.40
-25.22
-17.54
-10.88
-6.31
-4.19
-4.01
-4.57
-4.35
-2.07
2.74
9.36
15.91
20.00
19.70
14.39
5.24
-5.34
-14.66
-20.94
-23.89
-24.51
-24.30
-24.43
-25.38
-27.08
-29.43
-32.61
-36.90
-42.26
-48.03
-53.10
-56.45
-57.72
-57.19
-55.38
-52.53
-48.32
-42.39
-35.11
-28.13
-23.98
-24.85
-31.12
-40.61
-49.22
-52.77
-48.87
-37.99
-23.10
-8.01
4.32
12.89
18.64
23.38
28.74
35.35
42.87
50.38
56.68
60.41
59.98
53.92
41.51
23.54
2.58
-17.53
-32.88
-40.96
-41.47
-36.31
-28.38
-20.20
-12.81
-5.73
2.24
11.86
22.66
33.00
40.69
44.12
43.00
38.65
33.59
30.70
32.25
39.18
50.84
65.30
80.19
93.54
104.39
112.90
119.67
125.10
129.08
131.41
132.53
133.79
136.80
142.03
147.52
148.79
140.51
119.24
85.51
44.22
2.72
-32.30
-57.30
-72.13
-78.76
-78.96
-73.02
-60.35
-41.07
-17.26
7.20
28.47
44.97
58.16
71.77
89.28
111.37
134.90
154.17
163.10
157.79
137.92
106.32
67.76
27.46
-10.07
-41.41
-64.59
-79.31
-86.91
-90.01
-91.64
-93.87
-96.99
-99.71
-100.00
-96.75
-90.95
-85.42
-83.32
-86.45
-94.12
-103.28
-110.09
-111.65
-107.12
-97.95
-86.84
-76.76
-70.47
-69.99
-76.90
-92.06
-115.17
-144.53
-177.20
-209.60
-238.80
-263.39
-283.90
-302.39
-321.25
-341.65
-362.68
-381.06
-392.14
-391.79
-378.04
-351.68
-315.91
-275.03
-232.86
-192.15
-154.55
-120.79
-91.01
-64.76
-40.87
-17.81
5.58
29.55
53.19
74.90
93.22
107.33
117.04
122.40
123.43
120.45
114.60
108.09
103.41
102.16
103.82
105.80
104.59
97.46
83.79
65.24
44.64
24.66
6.82
-8.58
-21.69
-32.46
-40.30
-44.41
-44.17
-39.57
-31.22
-20.18
-7.80
4.57
15.70
24.73
31.24
35.28
37.36
38.24
38.73
39.42
40.49
41.50
41.55
39.72
35.66
30.02
24.31
20.26
19.01
20.59
24.10
28.36
32.57
36.40
39.61
41.72
42.03
40.12
36.42
32.28
29.32
28.57
29.97
32.50
34.86
36.25
36.54
35.92
34.47
32.05
28.56
24.36
20.48
18.18
18.18
20.02
22.03
22.18
19.31
14.07
8.82
6.48
8.89
15.67
24.28
31.34
34.41
33.23
29.63
26.27
25.02
26.06
28.08
29.53
30.01
30.66
33.51
40.02
49.96
61.19
70.38
74.63
72.59
64.90
53.52
40.67
27.96
16.33
6.40
-1.00
-4.82
-4.13
1.07
9.58
19.19
27.39
32.13
32.39
28.38
21.47
14.04
8.86
8.28
13.07
21.68
30.42
34.73
31.08
18.64
-0.45
-22.14
-42.23
-58.01
-68.78
-75.20
-78.24
-78.28
-75.14
-68.54
-58.64
-46.29
-32.77
-19.47
-7.73
1.12
5.60
4.44
-2.83
-15.34
-30.76
-45.92
-57.83
-64.64
-66.04
-62.83
-56.33
-48.00
-39.46
-32.56
-29.07
-29.76
-33.47
-37.03
-36.26
-28.23
-12.96
6.12
23.77
35.41
39.26
36.83
31.51
26.61
23.88
23.47
24.91
28.13
33.58
41.45
50.86
59.63
65.16
65.91
62.56
57.91
55.82
59.36
69.43
84.30
100.49
114.31
123.38
127.44
128.14
127.98
129.07
132.29
137.24
142.76
147.61
150.62
150.42
144.96
131.37
106.71
69.18
19.41
-38.95
-99.83
-156.18
-201.74
-232.38
-246.69
-246.05
-233.94
-215.04
-194.24
-175.36
-160.15
-147.94
-136.17
-121.96
-103.82
-82.71
-61.68
-44.16
-31.95
-24.08
-17.32
-8.06
5.51
22.18
38.33
49.66
53.24
48.45
36.58
19.57
-1.20
-25.01
-51.07
-77.42
-100.50
-115.89
-120.12
-112.32
-94.87
-72.50
-50.59
-33.16
-21.82
-15.78
-12.64
-9.59
-4.45
3.44
12.70
20.13
21.77
14.55
-1.91
-24.47
-47.06
-62.90
-67.25
-59.23
-41.89
-20.41
0.35
17.64
31.12
41.72
50.06
55.41
56.14
51.14
41.40
30.41
22.83
22.30
29.41
41.20
52.60
58.98
58.20
51.19
40.72
29.33
17.88
5.39
-9.63
-27.46
-46.30
-62.80
-73.61
-77.10
-74.37
-68.59
-63.63
-62.18
-64.70
-69.61
-74.43
-77.29
-77.97
-77.72
-78.31
-80.76
-84.40
-86.84
-84.95
-76.14
-59.37
-35.56
-7.20
22.51
50.42
73.99
91.51
102.06
105.63
103.15
96.49
88.14
80.48
75.02
71.99
70.54
69.45
68.05
66.61
66.06
67.25
70.23
74.04
77.13
78.14
76.58
73.08
69.11
66.39
66.20
68.92
73.89
79.59
84.13
85.92
84.05
78.39
69.39
57.79
44.60
31.05
18.52
8.29
1.06
-3.39
-6.08
-8.25
-10.58
-12.77
-13.69
-12.12
-7.47
-0.00
9.33
19.48
29.66
39.09
46.68
50.71
49.10
40.17
23.52
0.77
-24.46
-47.41
-63.57
-70.05
-66.59
-55.52
-40.96
-27.22
-17.33
-12.21
-10.74
-10.66
-9.62
-6.20
-0.21
7.47
15.56
22.97
29.08
33.85
37.57
40.70
43.57
46.42
49.34
52.26
54.76
56.01
54.74
49.60
39.75
25.51
8.70
-7.58
-19.80
-25.06
-21.99
-11.17
5.08
23.39
40.39
53.56
61.93
66.22
68.52
71.50
77.28
86.59
98.56
111.17
122.32
130.89
137.39
143.84
152.62
165.11
180.38
194.94
203.61
201.45
185.70
156.80
118.26
74.98
31.27
-10.62
-50.88
-91.52
-135.21
-184.05
-238.53
-296.87
-354.68
-405.24
-440.94
-455.50
-446.15
-414.90
-368.15
-314.63
-262.74
-218.29
-183.69
-158.33
-139.98
-125.97
-113.79
-101.42
-87.26
-70.41
-51.04
-30.46
-10.83
5.51
17.12
23.98
27.37
29.15
31.01
33.89
38.04
43.33
49.55
56.26
62.61
67.22
68.63
65.86
59.04
49.59
39.92
32.48
29.12
30.47
35.95
43.97
52.46
59.44
63.55
64.27
61.88
57.26
51.77
46.94
44.08
43.66
44.77
45.07
41.68
32.81
19.13
4.11
-7.42
-11.69
-7.91
1.47
12.38
21.56
28.18
33.63
39.79
47.13
54.07
57.98
57.05
51.56
43.90
37.21
33.55
32.95
33.78
33.90
31.84
27.29
20.79
13.13
4.88
-3.57
-11.66
-18.39
-22.37
-22.50
-18.83
-12.98
-7.77
-6.11
-9.49
-17.19
-26.60
-34.51
-38.66
-38.72
-36.02
-32.50
-29.52
-27.26
-25.00
-22.10
-18.55
-15.07
-12.58
-11.57
-11.97
-13.21
-14.58
-15.45
-15.18
-13.23
-9.32
-3.75
2.36
7.41
9.99
9.61
7.05
4.08
2.82
4.93
11.02
20.46
31.48
41.58
48.08
48.89
43.16
31.66
16.57
0.75
-13.14
-23.29
-28.83
-29.73
-26.45
-19.93
-11.73
-3.92
1.43
3.02
0.95
-3.18
-7.04
-8.81
-8.00
-5.54
-2.98
-1.31
-0.34
1.05
3.75
7.59
11.09
12.24
9.81
4.37
-1.66
-5.06
-3.37
3.74
14.08
23.74
28.65
26.23
16.48
1.94
-13.19
-24.69
-29.72
-27.59
-19.76
-8.94
1.91
10.49
15.50
16.46
13.49
7.28
-0.92
-9.38
-16.21
-19.89
-20.02
-17.43
-13.74
-10.55
-8.63
-7.55
-6.20
-3.53
0.58
5.13
8.40
8.82
5.76
-0.10
-6.93
-12.30
-14.06
-11.25
-4.61
3.43
9.58
11.12
7.23
-0.55
-9.05
-15.09
-17.07
-15.50
-12.36
-9.73
-8.59
-8.68
-9.29
-10.08
-11.37
-13.52
-16.15
-17.86
-16.85
-12.03
-3.95
5.32
13.19
17.77
18.83
17.70
16.55
17.34
20.82
26.26
31.60
34.29
32.30
25.05
13.93
2.08
-6.84
-10.19
-7.70
-1.67
4.07
6.04
2.75
-4.70
-13.51
-20.74
-24.64
-25.08
-22.94
-19.22
-14.58
-9.38
-4.38
-0.87
-0.26
-3.24
-9.13
-16.04
-21.77
-24.98
-25.66
-24.84
-23.65
-22.52
-20.99
-18.26
-13.99
-8.71
-3.61
0.16
2.21
2.99
3.32
3.82
4.55
5.40
6.50
8.32
11.29
15.03
18.00
18.13
14.05
6.29
-2.65
-9.34
-11.13
-7.43
0.32
9.75
19.03
27.56
35.56
43.04
49.10
52.08
50.51
44.10
34.22
23.48
14.61
9.55
8.82
11.51
15.86
19.90
22.11
21.84
19.48
16.09
12.94
10.76
9.49
8.41
6.78
4.55
2.51
1.75
2.67
4.28
4.51
1.30
-5.90
-15.41
-24.01
-28.44
-27.12
-20.79
-12.00
-3.55
2.84
7.00
9.68
11.45
12.06
10.51
5.88
-1.80
-11.22
-20.26
-26.80
-29.39
-27.72
-22.48
-14.94
-6.62
0.89
6.21
8.38
7.11
2.97
-2.64
-7.90
-11.06
-11.09
-8.05
-3.24
1.15
2.74
-0.05
-7.22
-16.87
-25.93
-31.42
-31.84
-27.71
-21.14
-14.50
-9.15
-5.06
-1.46
1.99
4.61
5.04
2.40
-2.82
-8.69
-12.79
-13.56
-10.92
-6.02
-0.36
5.11
10.23
15.14
19.69
23.21
24.88
24.32
22.00
19.21
17.43
17.74
20.39
24.65
28.95
31.22
29.48
22.59
10.90
-3.57
-17.68
-28.38
-33.88
-34.19
-30.80
-25.53
-19.64
-13.34
-6.30
1.42
8.86
14.29
15.99
13.17
6.53
-2.07
-10.27
-16.14
-18.83
-18.72
-17.13
-15.61
-15.29
-16.56
-19.10
-22.19
-25.18
-27.81
-30.06
-31.93
-33.14
-33.16
-31.59
-28.56
-24.79
-21.17
-18.12
-15.06
-10.68
-3.73
6.06
17.54
28.49
36.67
40.75
40.85
38.22
34.31
29.90
24.86
18.56
10.69
1.86
-6.57
-12.90
-15.88
-15.29
-11.84
-6.82
-1.47
3.43
7.61
11.12
13.98
16.03
16.86
16.09
13.75
10.52
7.82
7.28
9.95
15.45
21.76
25.89
25.23
18.99
8.71
-2.37
-10.92
-15.07
-15.07
-12.78
-10.26
-8.54
-7.45
-6.26
-4.64
-3.22
-3.28
-5.79
-10.72
-16.94
-22.79
-26.92
-28.92
-29.28
-28.87
-28.48
-28.56
-29.25
-30.67
-33.06
-36.77
-41.99
-48.37
-54.85
-59.91
-62.40
-62.43
-61.87
-64.07
-72.48
-88.85
-112.01
-137.90
-161.01
-176.80
-183.48
-182.53
-177.75
-173.58
-173.56
-179.75
-192.70
-211.68
-234.73
-258.64
-279.37
-292.94
-296.69
-289.91
-273.98
-251.43
-224.61
-195.08
-163.35
-129.24
-92.45
-53.33
-13.66
23.00
52.03
69.39
73.71
67.60
57.29
50.19
51.95
64.31
85.22
110.93
138.73
168.54
202.29
241.56
285.20
328.41
364.08
385.63
389.89
378.50
357.27
334.01
315.48
305.06
302.25
303.76
305.67
305.45
302.79
299.11
296.22
295.01
294.93
294.40
291.74
286.02
277.56
267.77
258.49
251.38
247.38
246.51
247.91
250.18
251.89
251.93
249.65
244.76
236.99
225.80
210.48
190.58
166.49
139.68
112.45
87.02
64.61
44.84
25.87
5.13
-19.78
-50.17
-85.93
-125.53
-166.34
-205.23
-239.14
-265.67
-283.44
-292.08
-292.10
-284.72
-271.72
-255.30
-237.87
-221.53
-207.48
-195.66
-184.86
-173.63
-161.33
-148.84
-138.30
-131.97
-130.86
-133.97
-138.78
-142.36
-142.78
-139.64
-133.66
-125.85
-116.77
-106.46
-94.94
-82.71
-70.79
-60.26
-51.63
-44.41
-37.55
-29.88
-20.73
-10.14
1.44
13.38
25.03
35.67
44.54
50.86
54.29
55.04
53.86
51.61
48.86
45.72
42.08
37.93
33.35
28.33
22.36
14.49
3.82
-9.70
-24.67
-38.55
-48.63
-53.34
-52.93
-49.18
-44.39
-40.21
-37.31
-35.65
-35.20
-36.48
-40.28
-46.96
-55.80
-64.96
-71.95
-74.75
-72.57
-66.04
-56.81
-46.77
-37.39
-29.25
-22.21
-15.74
-9.35
-2.88
3.57
9.87
15.84
21.19
25.24
26.92
25.14
19.49
10.93
1.73
-5.27
-7.96
-5.94
-0.53
6.05
12.00
16.71
20.62
24.30
27.50
29.03
27.53
22.47
14.89
7.12
1.79
0.59
3.63
9.48
15.86
20.55
21.99
19.61
13.80
5.72
-2.95
-10.49
-15.43
-16.97
-15.28
-11.65
-8.10
-6.87
-9.63
-16.73
-26.87
-37.33
-44.87
-46.90
-42.49
-32.77
-20.41
-8.65
0.05
4.71
5.82
4.68
2.50
-0.16
-3.30
-6.95
-10.49
-12.53
-11.44
-6.28
2.50
13.07
22.92
29.93
33.04
32.51
29.38
24.91
20.14
16.00
13.30
12.64
13.89
15.85
16.32
12.96
4.60
-7.95
-21.93
-33.73
-40.52
-41.28
-36.94
-29.46
-20.72
-11.87
-3.46
3.95
9.38
11.58
9.78
4.41
-2.80
-9.39
-13.13
-12.99
-9.35
-3.68
2.25
7.05
9.96
10.78
9.67
6.98
3.29
-0.60
-3.63
-4.59
-2.39
3.46
12.45
22.95
32.51
38.80
40.50
37.90
32.80
27.54
23.83
22.10
21.67
21.50
21.08
20.74
21.10
22.34
23.69
23.87
22.01
18.51
15.08
14.02
16.90
23.55
32.04
39.25
42.19
38.97
29.38
14.73
-2.59
-20.01
-35.28
-46.95
-54.33
-57.24
-55.78
-50.44
-42.37
-33.55
-26.66
-24.24
-27.48
-35.50
-45.33
-53.10
-55.55
-51.38
-41.54
-28.63
-15.61
-4.76
2.67
6.36
6.49
3.54
-1.67
-7.89
-13.56
-17.22
-18.01
-15.91
-11.65
-6.27
-0.62
4.90
10.28
15.42
19.87
22.67
22.81
19.98
15.17
10.51
8.32
9.62
13.29
16.35
15.51
9.04
-2.15
-14.93
-25.68
-32.13
-34.23
-33.55
-31.79
-29.53
-26.16
-20.81
-13.48
-5.60
0.65
3.43
2.17
-2.30
-8.20
-13.65
-17.10
-17.58
-14.69
-8.67
-0.46
8.44
16.36
22.02
24.92
25.38
24.26
22.59
21.27
20.67
20.48
19.66
16.72
10.45
0.81
-10.67
-21.28
-28.25
-30.08
-27.17
-21.42
-15.07
-9.61
-5.34
-1.93
0.74
2.04
0.91
-3.33
-10.19
-17.84
-23.75
-25.72
-22.83
-15.67
-5.92
4.38
13.59
20.78
25.62
28.17
28.61
27.32
25.03
22.84
21.92
22.72
24.33
24.49
20.52
10.76
-4.07
-20.66
-34.13
-40.12
-36.63
-24.90
-8.74
7.22
19.32
25.91
27.24
24.49
18.95
11.52
2.86
-6.28
-14.90
-21.99
-26.84
-29.22
-29.35
-27.71
-24.90
-21.63
-18.81
-17.34
-17.65
-19.32
-21.02
-21.11
-18.39
-12.73
-5.14
2.77
9.53
14.27
16.71
16.89
14.93
11.25
6.82
3.27
2.39
5.31
11.73
19.79
26.76
30.38
29.84
26.10
21.09
16.60
13.41
11.19
9.16
6.94
4.98
4.18
5.25
8.10
11.89
15.47
18.04
19.33
19.52
18.82
17.31
15.07
12.39
9.74
7.59
6.08
4.97
3.98
2.97
1.89
0.33
-2.77
-8.89
-18.95
-32.20
-45.86
-55.97
-59.13
-54.17
-42.66
-28.05
-13.90
-2.26
6.74
14.16
20.87
26.68
30.24
29.89
24.78
15.58
4.35
-6.33
-14.29
-18.36
-18.55
-15.79
-11.36
-6.43
-1.86
1.83
4.15
4.28
1.04
-7.03
-21.01
-41.19
-66.79
-96.20
-127.61
-159.41
-190.23
-218.43
-241.53
-256.22
-259.02
-247.69
-222.24
-184.90
-138.93
-86.86
-29.57
32.88
99.14
164.66
221.28
259.40
271.73
256.39
218.16
166.82
113.78
68.59
37.00
20.44
17.05
22.92
33.14
42.77
47.81
46.07
37.73
24.95
10.75
-2.10
-11.72
-17.07
-17.61
-13.27
-4.63
6.84
18.88
29.08
35.83
38.90
39.31
38.68
38.35
38.64
38.81
37.47
33.31
25.85
15.67
4.16
-7.19
-17.59
-27.45
-37.91
-50.04
-63.78
-77.46
-88.13
-92.64
-88.69
-75.44
-53.51
-24.46
9.69
46.79
84.62
120.88
153.15
179.06
196.49
203.98
200.96
187.85
165.98
137.26
103.77
67.59
30.66
-5.02
-37.26
-63.76
-82.45
-92.00
-92.17
-83.91
-69.07
-49.85
-28.42
-6.79
13.18
29.52
40.17
43.42
38.60
26.64
10.32
-6.58
-20.51
-29.42
-33.26
-33.56
-32.32
-30.80
-28.98
-25.81
-20.23
-12.06
-2.41
6.60
12.71
14.60
12.53
8.40
4.89
4.04
5.98
8.46
7.73
0.47
-14.23
-34.04
-54.14
-69.36
-76.43
-74.97
-66.90
-54.90
-40.86
-25.55
-9.41
6.50
20.05
28.68
30.65
25.95
16.42
4.94
-5.75
-13.86
-18.72
-20.48
-19.69
-17.00
-13.03
-8.35
-3.53
0.93
4.68
7.58
9.70
11.38
12.96
14.42
15.19
14.18
10.32
3.30
-5.91
-15.07
-21.46
-23.16
-19.87
-13.02
-4.90
2.52
8.51
13.45
18.01
22.10
24.54
23.64
18.27
8.88
-2.42
-12.65
-19.29
-21.19
-18.83
-13.75
-7.70
-1.97
2.85
6.67
9.55
11.48
12.39
12.39
11.95
11.75
12.27
13.27
13.61
11.62
5.99
-3.27
-14.48
-24.79
-31.34
-32.48
-28.21
-19.82
-9.06
2.54
13.66
22.81
27.92
26.84
18.15
2.18
-18.52
-39.89
-57.71
-68.92
-72.51
-69.42
-61.81
-52.13
-42.34
-33.51
-25.92
-19.29
-13.20
-7.27
-1.16
5.43
12.60
20.00
26.58
30.74
31.01
26.92
19.70
12.10
7.25
7.21
11.87
19.01
25.42
28.50
27.32
22.65
16.26
9.79
4.09
-0.74
-4.94
-8.71
-12.00
-14.51
-15.89
-15.80
-13.97
-10.23
-4.64
2.38
9.95
16.88
21.93
24.26
23.91
21.81
19.45
18.09
18.06
18.49
17.74
14.36
8.03
-0.25
-8.54
-14.95
-18.40
-18.80
-16.69
-12.60
-6.87
0.13
7.58
13.99
17.63
17.32
13.16
6.58
-0.21
-5.21
-7.33
-6.59
-3.79
0.12
4.55
9.21
13.95
18.41
22.10
24.78
26.79
29.05
32.49
37.28
42.47
46.24
46.91
43.86
38.00
31.25
25.50
21.73
19.76
18.72
17.86
16.88
15.75
14.25
11.61
6.88
-0.25
-8.87
-16.86
-21.66
-21.57
-16.53
-8.26
0.67
7.93
12.29
13.63
12.44
9.20
4.16
-2.37
-9.61
-16.36
-21.57
-25.01
-27.62
-30.93
-35.93
-42.20
-47.77
-50.06
-47.27
-39.38
-28.10
-16.00
-5.26
3.05
8.76
11.99
12.49
9.58
2.80
-7.34
-18.95
-29.12
-34.96
-34.76
-28.73
-18.85
-8.08
0.92
6.65
9.07
9.21
8.49
8.15
9.02
11.34
14.70
17.99
19.66
18.22
13.04
4.92
-4.12
-11.65
-16.03
-17.11
-16.07
-14.60
-13.86
-13.91
-14.14
-14.05
-13.79
-14.19
-15.95
-18.91
-21.99
-23.64
-22.92
-20.07
-16.50
-13.95
-13.66
-15.73
-19.36
-23.46
-27.27
-30.65
-33.78
-36.73
-39.23
-40.95
-41.92
-42.85
-44.85
-48.66
-53.92
-58.97
-61.43
-59.41
-52.48
-41.86
-29.72
-18.09
-7.86
1.19
9.71
17.95
25.30
30.61
33.12
33.06
31.76
31.10
32.63
36.92
43.43
50.88
57.74
62.76
65.17
64.76
61.82
57.03
51.42
46.10
42.00
39.43
37.81
35.79
31.78
24.89
15.48
5.25
-3.52
-9.00
-10.64
-9.23
-6.17
-2.63
0.98
4.78
8.70
12.09
13.74
12.61
8.59
2.76
-2.98
-6.80
-7.66
-5.62
-1.64
2.96
6.95
9.44
10.06
8.90
6.57
4.02
2.43
2.70
5.07
8.70
11.82
12.34
8.85
1.46
-8.06
-16.93
-22.57
-23.76
-20.89
-15.52
-9.39
-3.55
1.70
6.41
10.34
12.73
12.66
9.72
4.55
-1.23
-5.67
-7.24
-5.55
-1.27
4.15
9.16
12.66
14.20
13.97
12.60
10.80
9.34
8.88
9.88
12.33
15.47
17.84
17.73
14.01
6.84
-2.07
-10.04
-14.56
-14.30
-9.60
-2.07
6.32
14.02
20.34
25.05
27.98
28.71
26.73
21.95
15.02
7.43
1.09
-2.39
-2.26
1.02
5.98
10.73
13.60
13.71
11.20
7.00
2.36
-1.64
-4.33
-5.35
-4.57
-2.13
1.34
4.51
5.60
3.01
-3.75
-13.54
-23.84
-31.75
-35.23
-33.89
-28.99
-22.62
-16.72
-12.29
-9.45
-7.83
-7.14
-7.48
-9.07
-11.89
-15.27
-17.95
-18.46
-15.91
-10.47
-3.44
3.29
7.99
9.74
8.63
5.47
1.21
-3.38
-7.72
-11.18
-12.99
-12.38
-9.18
-4.23
0.51
2.63
0.38
-6.37
-15.77
-24.68
-30.00
-29.97
-24.88
-16.73
-8.21
-1.54
2.26
3.28
2.21
-0.25
-3.66
-7.66
-11.70
-14.93
-16.25
-14.69
-9.81
-1.81
8.45
19.76
30.77
40.25
47.32
51.66
53.47
53.31
51.90
49.91
47.94
46.46
45.68
45.34
44.42
41.35
34.60
23.65
9.55
-5.13
-17.28
-24.64
-26.66
-24.61
-20.65
-16.71
-13.70
-11.72
-10.57
-10.23
-10.96
-12.78
-15.18
-17.13
-17.52
-15.69
-11.71
-6.26
-0.28
5.35
9.82
12.32
12.17
9.05
3.30
-4.13
-11.88
-18.60
-23.27
-25.25
-24.39
-21.17
-16.83
-13.25
-12.37
-15.19
-21.05
-27.60
-31.92
-31.91
-27.28
-19.48
-10.72
-2.73
3.81
8.93
12.56
14.07
12.60
7.95
1.15
-5.54
-9.49
-8.88
-3.43
5.56
15.92
25.41
32.36
35.89
35.91
32.90
27.63
20.99
13.82
6.93
1.05
-3.32
-6.17
-8.04
-9.91
-12.78
-17.10
-22.43
-27.58
-31.26
-32.62
-31.65
-28.86
-24.96
-20.40
-15.47
-10.55
-6.44
-4.11
-4.28
-6.94
-11.19
-15.45
-17.92
-17.20
-12.64
-4.58
5.65
16.11
24.72
29.99
31.54
30.13
27.20
24.14
21.65
19.78
18.26
16.83
15.35
13.46
10.34
4.94
-3.37
-14.05
-25.15
-33.90
-37.95
-36.36
-29.96
-20.81
-11.13
-2.53
4.21
8.83
11.06
10.57
7.23
1.57
-5.03
-10.63
-13.41
-12.37
-7.58
-0.06
8.66
16.92
23.26
26.62
26.50
23.17
17.62
11.43
6.25
3.16
2.13
1.97
0.70
-3.46
-11.30
-22.03
-33.66
-43.80
-50.65
-53.56
-52.98
-49.87
-45.07
-39.14
-32.59
-26.33
-21.72
-20.14
-22.17
-26.98
-32.44
-35.92
-35.37
-30.18
-21.21
-10.32
0.43
9.48
15.95
19.64
20.72
19.66
17.12
14.09
11.67
10.79
11.76
13.94
15.93
16.10
13.43
8.02
1.11
-5.50
-10.24
-12.31
-11.71
-8.88
-4.21
1.94
8.87
15.16
18.74
17.61
11.09
0.56
-10.71
-18.75
-20.69
-16.07
-6.96
2.92
9.89
11.59
7.63
-0.40
-9.37
-15.25
-13.90
-2.41
19.37
47.69
75.26
93.32
95.07
78.64
48.03
11.41
-22.43
-47.41
-61.66
-66.64
-64.97
-58.58
-48.25
-34.63
-19.37
-5.45
3.76
6.27
2.64
-4.04
-9.51
-10.28
-4.93
5.48
18.16
29.82
37.78
40.72
38.89
33.99
28.53
25.05
24.93
27.65
30.77
30.81
24.91
12.42
-4.51
-21.61
-34.31
-39.66
-37.42
-29.70
-19.61
-9.81
-1.75
4.07
7.40
7.63
4.03
-3.57
-14.01
-24.79
-32.83
-35.66
-32.43
-24.22
-13.46
-2.90
5.41
10.52
12.55
12.25
10.61
8.64
7.10
6.37
6.18
5.64
3.50
-1.16
-8.26
-16.56
-24.02
-28.62
-29.14
-25.44
-18.30
-9.01
1.08
10.68
18.45
23.11
23.68
20.02
13.10
4.80
-2.65
-7.44
-8.67
-6.44
-1.56
4.81
11.45
17.29
21.43
23.36
23.05
21.16
18.91
17.60
17.98
19.67
21.13
20.28
15.62
7.18
-3.29
-12.97
-19.34
-21.23
-19.15
-14.64
-9.29
-4.03
0.94
5.53
9.38
11.70
11.74
9.39
5.42
1.29
-1.43
-1.67
0.88
5.75
11.90
18.06
22.98
25.86
26.47
25.22
22.90
20.45
18.60
17.77
17.99
18.84
19.49
18.86
16.02
10.66
3.37
-4.43
-11.01
-15.07
-16.19
-14.92
-12.37
-9.76
-8.07
-7.97
-9.78
-13.51
-18.60
-23.98
-28.20
-29.91
-28.29
-23.34
-15.81
-6.91
2.03
9.69
14.98
17.22
16.38
13.31
9.55
6.86
6.34
7.83
9.89
10.49
8.21
3.02
-3.58
-9.42
-12.77
-13.10
-11.04
-7.70
-4.01
-0.34
3.20
6.15
7.62
6.59
2.55
-3.86
-10.95
-16.66
-19.39
-18.63
-14.97
-9.66
-4.05
0.90
4.68
7.11
8.11
7.69
6.02
3.73
1.94
1.84
4.04
8.05
12.23
14.51
13.51
9.23
3.11
-2.83
-6.98
-8.80
-8.79
-7.87
-6.76
-5.72
-4.91
-4.59
-5.30
-7.48
-11.04
-15.06
-18.07
-18.56
-15.57
-9.08
-0.13
9.59
18.17
24.06
26.48
25.61
22.36
18.07
14.03
11.05
9.22
7.85
5.74
1.66
-4.89
-13.26
-21.74
-28.17
-31.01
-29.99
-26.17
-21.30
-16.97
-13.91
-12.03
-10.83
-9.98
-9.50
-9.58
-10.14
-10.67
-10.32
-8.28
-4.12
2.08
9.81
18.28
26.56
33.65
38.61
40.84
40.31
37.66
34.12
30.89
28.61
26.94
24.68
20.46
13.63
4.86
-4.09
-11.14
-14.97
-15.56
-14.05
-11.97
-10.49
-10.04
-10.51
-11.89
-14.43
-18.50
-24.06
-30.22
-35.31
-37.61
-36.24
-31.78
-26.19
-21.90
-20.88
-23.83
-30.19
-38.67
-47.99
-57.43
-66.76
-75.78
-83.90
-90.17
-93.88
-95.37
-96.34
-99.40
-106.87
-119.47
-135.80
-152.90
-167.61
-177.86
-183.18
-184.29
-181.82
-175.55
-164.17
-145.93
-119.68
-85.31
-43.58
4.72
58.96
118.03
178.85
235.38
279.23
302.17
299.65
273.13
229.88
179.98
132.18
90.68
54.82
21.43
-11.54
-42.38
-65.56
-73.96
-62.33
-29.97
18.37
73.82
126.05
166.10
188.75
193.06
181.68
159.26
130.70
99.98
69.80
41.81
17.04
-3.68
-19.64
-30.20
-34.79
-33.05
-24.89
-10.64
8.80
31.87
56.66
80.90
102.29
118.70
128.40
130.45
124.94
113.21
97.55
80.74
65.31
52.98
44.47
39.63
37.80
38.04
39.16
39.79
38.41
33.70
25.08
13.10
-0.63
-14.00
-25.20
-33.37
-38.74
-42.19
-44.56
-46.23
-47.12
-47.16
-46.61
-46.24
-46.92
-49.19
-52.88
-57.15
-60.83
-62.86
-62.64
-60.17
-55.98
-50.84
-45.58
-40.81
-36.80
-33.61
-31.15
-29.42
-28.51
-28.46
-28.97
-29.40
-28.96
-27.07
-23.77
-19.74
-16.00
-13.28
-11.72
-10.91
-10.20
-9.19
-7.85
-6.37
-4.83
-3.06
-0.73
2.26
5.50
8.17
9.46
9.08
7.42
5.42
4.07
3.98
5.21
7.48
10.39
13.59
16.77
19.42
20.94
20.76
18.66
14.94
10.35
5.70
1.63
-1.52
-3.53
-4.17
-3.21
-0.84
2.15
4.31
4.15
0.97
-4.61
-10.74
-15.24
-16.64
-14.86
-11.09
-6.98
-3.85
-2.09
-1.38
-1.18
-1.21
-1.53
-2.29
-3.43
-4.56
-5.13
-4.77
-3.53
-1.80
-0.18
0.83
0.92
-0.04
-2.04
-4.94
-8.54
-12.49
-16.49
-20.31
-23.86
-27.08
-29.73
-31.30
-31.19
-29.09
-25.34
-21.04
-17.67
-16.35
-17.22
-19.35
-21.21
-21.48
-19.76
-16.63
-13.24
-10.63
-9.26
-9.01
-9.41
-10.06
-10.62
-10.80
-10.21
-8.47
-5.35
-1.07
3.71
8.28
12.14
15.27
18.01
20.70
23.41
25.87
27.61
28.23
27.56
25.60
22.41
18.04
12.62
6.68
1.19
-2.72
-4.34
-3.88
-2.54
-1.87
-2.90
-5.48
-8.30
-9.71
-8.73
-5.61
-1.74
1.22
2.23
1.37
-0.44
-2.13
-3.10
-3.42
-3.52
-3.71
-3.92
-3.68
-2.47
0.03
3.82
8.52
13.58
18.37
22.37
25.33
27.30
28.59
29.53
30.24
30.46
29.72
27.76
24.83
21.74
19.37
18.04
17.06
15.09
10.88
4.25
-3.63
-10.70
-15.03
-15.84
-13.72
-10.23
-6.99
-5.01
-4.40
-4.71
-5.37
-6.01
-6.48
-6.76
-6.82
-6.57
-5.94
-4.88
-3.38
-1.46
0.80
3.20
5.38
6.98
7.77
7.72
7.01
5.79
3.99
1.31
-2.45
-6.96
-11.15
-13.54
-12.99
-9.56
-4.74
-0.94
-0.31
-3.61
-9.80
-16.62
-21.64
-23.38
-21.67
-17.40
-11.86
-6.16
-1.10
2.78
5.04
5.39
3.85
0.89
-2.63
-5.69
-7.41
-7.30
-5.31
-1.87
2.32
6.48
9.92
12.29
13.56
13.93
13.58
12.56
10.68
7.81
4.13
0.27
-2.79
-4.22
-3.79
-2.20
-0.80
-0.94
-3.19
-7.03
-11.01
-13.57
-13.82
-11.89
-8.71
-5.40
-2.75
-1.06
-0.44
-1.11
-3.39
-7.41
-12.70
-18.06
-21.95
-23.10
-20.99
-16.04
-9.25
-1.85
5.11
10.85
14.87
16.95
17.18
16.02
14.18
12.31
10.80
9.70
8.86
8.12
7.32
6.31
4.71
2.06
-1.94
-7.03
-12.32
-16.60
-18.93
-19.10
-17.63
-15.36
-12.84
-10.04
-6.58
-2.21
2.76
7.37
10.49
11.37
9.95
6.94
3.42
0.43
-1.37
-1.78
-1.04
0.36
1.75
2.50
2.17
0.61
-2.08
-5.56
-9.32
-12.69
-14.86
-15.21
-13.64
-10.87
-8.36
-7.65
-9.57
-13.65
-18.30
-21.65
-22.46
-20.75
-17.50
-13.89
-10.52
-7.23
-3.59
0.40
4.02
6.14
5.86
3.24
-0.63
-3.99
-5.20
-3.35
1.44
8.20
15.40
21.48
25.22
26.04
24.08
20.07
15.13
10.47
7.14
5.73
6.24
7.98
9.65
9.79
7.37
2.34
-4.26
-10.59
-14.77
-15.64
-13.15
-8.24
-2.40
3.08
7.46
10.55
12.50
13.38
13.15
11.73
9.36
6.76
5.05
5.14
7.28
10.72
13.95
15.40
14.16
10.41
5.31
0.31
-3.38
-5.20
-5.04
-2.98
0.79
5.65
10.32
12.93
11.67
5.74
-3.99
-15.01
-24.16
-28.89
-28.29
-23.17
-15.43
-7.15
0.16
5.71
9.07
9.88
7.93
3.46
-2.45
-8.06
-11.46
-11.42
-7.98
-2.37
3.64
8.44
11.20
11.84
10.64
7.95
4.04
-0.66
-5.36
-8.95
-10.54
-10.06
-8.59
-8.14
-10.70
-17.26
-27.17
-38.33
-48.11
-54.49
-56.85
-55.92
-53.30
-50.54
-48.77
-48.53
-49.99
-53.18
-57.96
-63.89
-70.34
-76.79
-83.12
-89.58
-96.16
-101.72
-103.59
-97.95
-80.96
-49.99
-4.54
53.43
119.54
187.44
249.47
297.87
326.35
331.71
314.62
279.28
231.92
179.00
125.85
76.31
33.04
-1.96
-27.45
-43.36
-51.04
-53.04
-52.23
-50.88
-50.07
-49.91
-49.93
-49.61
-48.62
-46.75
-43.84
-39.80
-34.61
-28.39
-21.45
-14.19
-7.06
-0.64
4.40
7.30
7.53
5.03
0.55
-4.55
-8.76
-11.12
-11.78
-11.89
-13.00
-16.15
-21.28
-27.19
-32.16
-34.83
-34.71
-32.23
-28.13
-23.02
-17.16
-10.90
-5.13
-1.30
-0.95
-4.65
-11.35
-18.46
-22.90
-22.49
-16.99
-8.17
1.13
8.34
12.40
13.99
15.06
17.69
23.08
31.07
40.13
47.94
52.17
51.21
44.57
33.37
20.00
7.84
0.36
-0.24
5.63
14.32
19.85
16.02
-0.64
-28.87
-62.79
-94.05
-115.19
-122.27
-115.66
-98.88
-76.40
-51.86
-27.53
-4.83
14.88
30.02
39.24
42.18
39.80
34.24
28.12
23.80
22.69
24.73
28.25
30.56
28.90
21.80
10.14
-2.94
-13.28
-17.72
-15.59
-9.04
-1.77
2.90
3.59
1.23
-1.99
-4.19
-4.95
-5.34
-6.97
-10.78
-16.27
-21.75
-25.19
-25.31
-22.15
-17.01
-11.72
-7.83
-6.09
-6.32
-7.59
-8.77
-8.81
-7.16
-3.93
0.06
3.39
4.56
2.51
-2.81
-10.34
-18.22
-24.56
-28.04
-28.30
-25.81
-21.53
-16.41
-11.16
-6.26
-2.11
1.01
2.98
4.03
4.86
6.54
10.14
16.27
24.83
34.81
44.55
52.18
56.09
55.25
49.50
39.55
27.01
14.16
3.36
-3.63
-6.51
-6.69
-6.78
-9.32
-15.46
-24.29
-33.27
-39.51
-41.18
-38.11
-31.45
-22.80
-13.30
-3.50
6.17
14.85
21.08
23.39
21.16
15.27
8.08
2.52
1.01
4.47
11.94
21.08
29.04
33.59
33.83
30.40
24.95
19.37
14.99
12.23
10.60
9.01
6.16
0.88
-7.50
-18.84
-31.96
-44.78
-54.72
-59.56
-58.16
-50.92
-39.63
-26.90
-15.28
-6.73
-2.29
-2.13
-5.67
-11.81
-19.09
-25.87
-30.64
-32.46
-31.20
-27.59
-22.92
-18.61
-15.60
-14.19
-14.00
-14.35
-14.61
-14.31
-13.11
-10.79
-7.26
-2.90
1.31
3.88
3.46
-0.33
-6.48
-12.79
-16.79
-16.84
-12.75
-5.67
2.62
10.57
17.25
22.19
25.00
25.23
22.55
17.30
10.73
4.87
1.76
2.61
7.21
14.01
20.74
25.33
26.62
24.65
20.46
15.60
11.60
9.63
10.28
13.49
18.34
23.09
25.43
23.23
15.47
2.99
-11.50
-24.36
-32.45
-34.37
-30.84
-24.09
-16.64
-10.29
-5.72
-2.83
-1.31
-0.96
-1.62
-3.04
-4.66
-5.76
-5.74
-4.25
-1.30
2.87
7.75
12.66
16.79
19.40
20.20
19.50
18.06
16.68
15.78
15.35
15.24
15.53
16.57
18.59
21.11
22.74
21.70
16.79
8.29
-1.92
-11.03
-16.64
-17.70
-14.77
-9.44
-3.58
1.30
4.18
4.34
1.38
-4.61
-12.70
-21.06
-27.38
-29.60
-26.66
-18.90
-7.86
4.30
15.46
24.04
29.29
31.32
30.92
29.25
27.36
25.84
24.52
22.63
19.29
13.99
7.04
-0.38
-6.59
-9.84
-8.99
-3.88
4.41
13.76
21.61
25.74
25.06
20.07
12.58
4.99
-0.65
-3.26
-2.71
0.42
5.24
10.68
15.40
17.85
16.71
11.59
3.57
-5.03
-11.51
-14.00
-12.25
-7.53
-1.75
3.54
7.81
11.21
13.99
16.00
16.68
15.56
12.69
8.61
3.96
-1.12
-6.86
-13.37
-19.90
-24.51
-24.69
-18.36
-5.04
13.75
34.87
54.52
69.33
77.06
76.93
69.56
56.73
41.06
25.41
12.26
3.11
-1.84
-3.60
-3.89
-4.59
-7.22
-12.60
-20.65
-30.45
-40.53
-49.24
-55.36
-58.35
-58.36
-55.88
-51.35
-44.90
-36.48
-26.30
-15.18
-4.47
4.27
9.89
11.99
11.01
7.79
3.15
-2.34
-8.17
-13.51
-17.07
-17.60
-14.70
-9.54
-4.79
-3.53
-7.70
-16.81
-27.98
-37.16
-41.12
-38.89
-31.91
-22.97
-14.63
-8.12
-3.35
0.24
2.82
3.89
2.70
-0.91
-5.97
-10.56
-12.53
-10.54
-4.63
3.76
12.42
19.19
22.61
22.30
18.85
13.48
7.53
2.13
-2.12
-5.18
-7.48
-9.55
-11.68
-13.65
-14.86
-14.68
-13.01
-10.55
-8.61
-8.43
-10.39
-13.67
-16.55
-17.35
-15.35
-11.14
-6.22
-2.18
-0.03
0.08
-1.51
-4.43
-8.47
-13.50
-19.02
-24.01
-27.10
-27.18
-23.97
-18.32
-11.81
-6.08
-2.07
0.21
1.46
2.54
3.90
5.30
6.05
5.47
3.38
0.32
-2.69
-4.60
-4.71
-3.00
-0.14
2.63
3.87
2.40
-2.17
-9.11
-16.67
-22.68
-25.38
-24.09
-19.36
-12.58
-5.27
1.44
6.98
11.13
13.70
14.45
13.32
10.79
7.86
5.90
6.04
8.72
13.54
19.49
25.34
30.20
33.70
35.90
37.09
37.51
37.19
36.05
34.07
31.42
28.41
25.39
22.71
20.73
19.72
19.64
19.88
19.16
15.98
9.38
-0.30
-11.16
-20.43
-25.71
-26.11
-22.53
-17.03
-11.59
-7.21
-3.88
-1.20
0.89
1.81
0.82
-2.29
-6.80
-11.24
-14.10
-14.57
-12.85
-9.93
-7.04
-5.12
-4.59
-5.44
-7.45
-10.46
-14.41
-19.31
-25.08
-31.31
-37.23
-41.84
-44.38
-44.84
-44.33
-44.87
-48.49
-56.20
-67.31
-79.57
-90.12
-96.78
-98.85
-97.17
-93.54
-90.05
-88.42
-89.78
-94.30
-100.79
-106.45
-107.10
-98.05
-75.47
-37.61
14.50
76.95
143.39
205.97
256.63
288.72
298.65
286.98
258.33
219.83
178.81
140.70
108.24
81.93
61.31
45.71
34.30
25.67
17.61
7.77
-5.18
-20.59
-36.00
-48.30
-55.35
-57.06
-55.20
-52.24
-50.00
-48.90
-48.16
-46.68
-43.90
-40.10
-36.09
-32.61
-29.90
-27.64
-25.25
-22.20
-18.33
-13.93
-9.58
-6.00
-3.71
-2.78
-2.87
-3.41
-4.01
-4.61
-5.34
-6.18
-6.65
-6.13
-4.54
-2.99
-3.52
-7.84
-15.72
-24.16
-28.18
-23.20
-7.71
15.55
40.65
61.18
73.08
75.85
71.71
63.51
52.98
40.34
25.32
8.47
-8.31
-22.31
-31.39
-34.98
-34.26
-31.47
-28.91
-28.04
-29.14
-31.32
-32.74
-31.08
-24.10
-10.54
9.25
33.17
57.86
79.67
95.67
104.24
105.14
99.08
87.34
71.53
53.51
35.30
18.82
5.60
-3.47
-8.29
-9.32
-7.44
-3.81
0.21
3.22
4.01
1.98
-2.71
-9.11
-15.88
-21.73
-25.85
-28.05
-28.64
-28.15
-27.09
-25.81
-24.49
-23.30
-22.48
-22.31
-22.86
-23.74
-24.12
-23.06
-20.12
-15.83
-11.54
-8.81
-8.54
-10.37
-12.90
-14.43
-13.90
-11.27
-7.37
-3.20
0.67
4.27
7.84
11.43
14.57
16.46
16.47
14.56
11.42
8.23
6.10
5.57
6.35
7.49
7.87
6.83
4.52
1.87
0.03
-0.24
1.08
3.44
6.17
8.79
11.00
12.29
11.67
7.93
0.40
-10.29
-21.94
-31.42
-35.95
-34.31
-27.24
-17.01
-6.25
3.07
10.07
14.69
17.18
17.69
16.29
13.36
9.86
7.17
6.61
8.76
13.18
18.47
22.78
24.52
22.86
17.92
10.74
2.95
-3.55
-7.12
-6.91
-3.33
1.85
6.01
6.59
2.15
-7.10
-19.38
-32.11
-42.79
-49.70
-51.96
-49.46
-42.73
-32.82
-21.39
-10.68
-3.00
-0.10
-2.39
-8.63
-16.16
-21.75
-22.70
-17.82
-7.89
4.71
16.85
25.81
29.96
29.10
24.13
16.53
7.78
-0.95
-8.84
-15.48
-20.88
-25.40
-29.55
-33.58
-37.07
-38.86
-37.33
-31.17
-20.09
-5.25
11.04
26.15
38.00
45.72
49.66
50.79
50.07
47.93
44.44
39.70
34.29
29.34
26.19
25.83
28.41
33.19
38.74
43.43
45.74
44.56
39.39
30.52
19.11
7.02
-3.64
-11.12
-14.70
-14.90
-13.38
-12.20
-13.07
-16.71
-22.59
-29.21
-34.80
-37.94
-38.05
-35.35
-30.58
-24.68
-18.48
-12.77
-8.42
-6.40
-7.54
-12.09
-19.38
-27.76
-35.09
-39.41
-39.54
-35.40
-27.92
-18.61
-9.10
-0.83
5.22
8.55
9.21
7.89
5.79
4.41
4.92
7.36
10.38
11.51
8.45
0.46
-10.88
-22.14
-29.61
-31.07
-26.74
-18.79
-9.88
-1.82
5.01
10.94
15.93
18.98
18.61
13.94
5.73
-3.61
-11.00
-14.11
-12.24
-6.39
1.53
9.58
16.40
21.30
24.01
24.51
23.11
20.66
18.50
18.02
19.94
23.65
27.10
27.65
23.30
13.92
1.52
-10.54
-19.01
-22.15
-20.34
-15.47
-9.94
-5.49
-2.79
-1.69
-1.76
-2.76
-4.55
-6.86
-9.04
-10.02
-8.83
-4.96
1.21
8.45
15.05
19.40
20.47
18.24
13.61
8.04
3.08
-0.16
-1.23
-0.43
1.25
2.31
1.11
-3.60
-12.16
-23.56
-35.68
-45.99
-52.58
-54.88
-53.74
-50.86
-47.73
-45.09
-42.63
-39.48
-34.93
-28.87
-21.87
-14.78
-8.24
-2.31
3.53
10.05
17.62
25.89
33.73
39.64
42.36
41.33
36.82
29.72
21.13
12.02
3.20
-4.57
-10.71
-14.97
-17.68
-19.88
-23.02
-28.27
-35.92
-45.05
-53.79
-60.07
-62.44
-60.53
-54.97
-46.89
-37.40
-27.30
-17.16
-7.70
0.16
5.48
7.87
7.87
7.04
7.39
10.66
17.45
27.02
37.54
46.88
53.37
56.36
56.30
54.29
51.45
48.47
45.42
42.11
38.57
35.30
32.95
31.71
30.86
28.73
23.59
14.72
3.21
-8.27
-16.68
-19.99
-18.10
-12.62
-5.84
0.44
5.55
9.69
13.24
16.21
18.13
18.58
17.68
16.16
15.16
15.62
17.86
21.44
25.46
28.91
30.97
31.21
29.61
26.52
22.50
18.02
13.41
8.82
4.53
1.10
-0.76
-0.64
1.07
3.01
3.35
0.81
-4.56
-11.19
-16.78
-19.49
-18.84
-15.72
-11.77
-8.35
-5.94
-4.32
-3.02
-1.86
-1.05
-0.91
-1.54
-2.63
-3.52
-3.45
-1.84
1.57
6.53
12.25
17.46
20.84
21.51
19.43
15.34
10.45
5.98
2.83
1.34
1.21
1.45
0.47
-3.52
-11.79
-24.29
-39.34
-54.00
-65.21
-71.01
-71.11
-66.59
-59.04
-49.68
-39.17
-28.00
-17.08
-7.77
-1.35
1.72
2.28
2.10
3.13
6.56
12.29
19.14
25.40
29.63
31.05
29.62
25.87
20.61
14.68
8.82
3.72
-0.00
-1.90
-1.96
-0.92
-0.27
-1.88
-7.10
-15.96
-26.78
-36.74
-43.01
-44.10
-40.52
-34.43
-28.61
-25.23
-25.10
-27.77
-32.20
-37.35
-42.51
-47.11
-50.39
-51.37
-49.04
-42.86
-33.17
-21.17
-8.55
3.10
12.72
19.98
24.96
27.89
28.89
27.96
25.36
21.78
18.47
16.77
17.42
20.00
22.89
23.86
20.98
13.61
2.68
-9.61
-20.62
-28.13
-30.86
-28.58
-21.91
-12.13
-0.89
9.84
18.10
22.40
22.18
18.13
12.06
6.27
2.69
2.37
5.20
10.25
16.37
22.68
28.68
34.14
38.70
41.82
42.89
41.58
38.13
33.38
28.54
24.79
22.95
23.14
24.67
26.13
25.76
22.10
14.68
4.42
-6.62
-16.00
-21.90
-23.77
-22.35
-19.02
-15.03
-10.91
-6.70
-2.40
1.57
4.32
4.89
2.91
-1.03
-5.45
-8.49
-8.57
-5.03
1.71
10.37
19.34
27.19
32.99
36.34
37.09
35.06
30.14
22.60
13.54
4.92
-1.06
-3.02
-1.31
1.95
3.82
2.03
-3.81
-12.00
-19.78
-24.80
-26.25
-25.01
-22.84
-21.26
-20.70
-20.64
-20.17
-18.73
-16.38
-13.68
-11.10
-8.63
-5.61
-1.14
5.26
13.11
20.82
26.30
27.83
24.97
18.80
11.44
5.02
0.76
-1.29
-1.85
-1.73
-1.28
-0.63
-0.13
-0.78
-4.02
-11.01
-21.64
-34.16
-45.55
-52.69
-53.63
-48.47
-39.30
-29.38
-21.86
-18.72
-20.21
-25.10
-31.24
-36.38
-38.81
-37.63
-32.87
-25.38
-16.54
-8.08
-1.73
1.18
0.13
-4.40
-10.97
-17.60
-22.35
-24.04
-22.51
-18.63
-13.67
-8.69
-4.04
0.54
5.42
10.39
14.40
15.99
14.09
8.88
1.95
-4.28
-7.69
-7.36
-3.86
1.36
6.81
11.67
15.88
19.69
23.07
25.55
26.46
25.49
23.00
20.09
18.13
18.28
21.08
26.38
33.46
41.23
48.35
53.51
55.67
54.39
49.99
43.57
36.65
30.79
27.11
25.93
26.61
27.70
27.33
23.96
17.04
7.39
-2.99
-11.71
-16.92
-17.92
-15.16
-9.78
-2.96
4.36
11.35
17.11
20.56
20.82
17.74
12.12
5.65
0.23
-2.70
-2.59
0.17
4.60
9.58
14.20
17.80
19.98
20.49
19.18
16.02
11.21
5.39
-0.40
-4.89
-7.08
-6.74
-4.69
-2.54
-2.02
-4.16
-8.87
-15.05
-21.19
-26.22
-29.80
-32.27
-34.04
-35.09
-34.89
-32.77
-28.49
-22.49
-15.68
-8.92
-2.60
3.51
9.86
16.58
23.27
29.09
33.30
35.77
37.02
37.95
39.21
40.85
42.33
42.91
42.09
39.75
35.87
30.12
21.82
10.42
-3.66
-18.56
-31.22
-38.52
-38.73
-32.37
-21.99
-10.85
-1.27
6.31
13.28
21.48
31.77
43.12
52.95
58.41
57.81
51.41
41.27
30.16
20.37
13.13
8.64
6.63
6.59
7.68
8.28
6.08
-0.89
-12.72
-26.38
-35.98
-34.92
-19.17
10.16
46.76
81.70
107.69
122.39
128.95
133.48
140.91
151.71
161.39
163.08
151.07
123.47
82.71
33.93
-17.13
-65.37
-106.55
-137.19
-154.90
-159.30
-152.51
-138.84
-123.35
-110.12
-101.22
-96.69
-95.33
-95.58
-96.09
-95.80
-94.05
-90.83
-86.72
-82.47
-78.26
-73.32
-66.58
-57.76
-48.24
-40.50
-36.63
-36.55
-37.82
-37.43
-34.19
-29.94
-28.51
-32.88
-42.66
-53.72
-60.44
-59.12
-50.17
-37.88
-27.93
-24.35
-27.85
-36.18
-45.84
-53.79
-58.26
-58.55
-54.44
-46.02
-33.84
-19.03
-3.07
12.69
27.44
40.75
52.17
61.04
66.55
68.20
66.24
61.58
55.26
47.92
39.64
30.27
20.08
10.07
1.71
-3.66
-5.47
-4.09
-0.43
4.66
10.62
17.18
23.93
30.10
34.56
36.41
35.54
32.99
30.81
31.47
37.04
48.45
65.25
85.61
106.62
124.67
135.81
136.37
123.96
98.72
64.22
27.43
-2.93
-19.19
-17.65
-0.23
25.99
51.25
66.53
66.48
50.64
22.80
-10.95
-44.60
-74.01
-97.52
-115.60
-129.90
-141.96
-152.53
-161.46
-167.87
-170.81
-169.51
-163.61
-153.01
-138.17
-120.39
-102.22
-87.39
-79.39
-79.70
-86.24
-93.19
-92.77
-78.17
-46.22
1.60
60.13
122.70
183.15
236.55
278.96
306.68
316.41
306.17
276.39
230.36
173.44
110.91
46.12
-20.12
-88.56
-159.13
-228.78
-290.99
-337.27
-360.23
-356.54
-328.17
-281.19
-223.15
-159.67
-92.96
-22.75
50.91
124.68
190.94
239.69
262.44
256.03
224.33
176.71
124.25
75.82
35.66
3.77
-21.63
-41.34
-53.90
-56.14
-45.43
-21.89
10.72
45.78
75.76
94.38
98.23
87.01
63.10
30.62
-5.45
-39.78
-67.34
-83.97
-87.19
-76.72
-54.82
-25.73
5.32
33.33
54.61
67.31
71.40
68.31
60.22
49.63
38.92
30.15
24.85
23.84
27.10
33.86
42.88
52.74
62.04
69.32
72.97
71.17
62.51
46.81
26.01
4.15
-13.78
-23.60
-23.69
-15.57
-3.13
9.21
18.09
22.05
21.18
16.27
8.08
-2.71
-15.03
-27.10
-36.63
-41.77
-42.03
-38.65
-34.03
-30.51
-29.24
-29.87
-31.17
-32.27
-33.56
-36.59
-43.12
-53.88
-67.75
-82.02
-93.55
-100.11
-101.20
-98.07
-92.90
-87.89
-84.64
-83.96
-85.99
-90.28
-95.68
-100.27
-101.55
-97.08
-85.44
-67.02
-44.14
-20.46
0.28
15.47
24.15
26.82
24.56
18.28
8.49
-4.40
-19.48
-35.10
-49.20
-59.99
-66.58
-69.13
-68.54
-65.93
-62.36
-58.87
-56.46
-55.95
-57.38
-59.61
-60.46
-57.55
-49.57
-37.11
-22.50
-8.66
2.39
10.42
16.81
23.26
30.58
38.09
44.12
47.10
46.57
43.47
39.56
36.58
35.62
36.94
40.23
45.01
50.71
56.75
62.36
66.59
68.52
67.53
63.60
57.45
50.47
44.36
40.68
40.30
43.10
47.87
52.79
55.95
56.09
53.06
47.93
42.58
39.07
38.83
42.17
48.33
55.90
63.53
70.50
76.62
81.93
86.19
88.67
88.32
84.31
76.38
65.03
51.40
36.94
23.17
11.32
2.04
-4.84
-10.16
-15.03
-20.16
-25.48
-30.38
-34.36
-37.64
-41.14
-45.96
-52.34
-59.20
-64.44
-66.08
-63.24
-56.76
-48.75
-41.48
-36.41
-33.75
-32.73
-32.33
-31.86
-31.18
-30.47
-29.84
-29.05
-27.61
-24.93
-20.79
-15.39
-9.26
-3.01
2.93
8.25
12.60
15.42
16.02
13.83
8.81
1.65
-6.23
-12.94
-16.63
-15.99
-10.70
-1.50
10.02
21.90
32.53
41.12
47.82
53.40
58.72
64.14
69.36
73.65
76.34
77.05
75.77
72.59
67.34
59.54
48.49
33.76
15.65
-4.41
-23.75
-38.95
-46.80
-45.54
-35.84
-20.89
-5.34
6.47
12.12
11.76
7.43
1.72
-3.55
-7.87
-11.60
-15.05
-18.00
-19.81
-20.03
-18.98
-17.83
-17.89
-19.90
-23.57
-27.80
-31.22
-32.79
-32.04
-29.05
-24.15
-17.85
-10.90
-4.43
0.09
1.24
-1.63
-7.89
-15.56
-22.08
-25.44
-25.16
-22.52
-19.84
-19.24
-21.52
-25.88
-30.44
-33.37
-33.78
-32.02
-29.20
-26.40
-24.05
-21.82
-19.03
-15.17
-10.29
-4.94
0.12
4.26
7.27
9.39
11.31
13.93
18.08
24.16
31.95
40.48
48.19
53.40
54.86
52.30
46.56
39.34
32.48
27.30
24.06
22.03
19.98
16.95
12.76
8.18
4.52
3.02
4.34
8.25
13.78
19.59
24.26
26.61
25.79
21.57
14.49
6.12
-1.07
-4.26
-1.30
8.38
23.22
39.90
54.46
63.65
66.09
62.48
55.02
46.18
37.75
30.43
24.14
18.81
14.84
13.04
14.16
18.33
24.83
32.44
39.86
46.08
50.30
51.78
49.77
43.74
33.92
21.55
8.71
-2.35
-10.00
-13.80
-14.35
-12.85
-10.42
-7.74
-5.10
-2.60
-0.38
1.35
2.51
3.24
3.89
4.83
6.10
7.28
7.57
6.09
2.42
-3.16
-9.65
-15.68
-20.15
-22.69
-23.82
-24.62
-26.10
-28.66
-31.98
-35.36
-38.34
-40.96
-43.66
-46.53
-48.64
-47.98
-42.27
-30.13
-12.10
9.26
30.26
47.58
59.28
65.13
66.14
63.70
59.08
53.35
47.56
42.75
39.65
38.27
37.65
36.25
32.78
27.01
20.08
14.02
10.78
11.24
14.70
19.25
22.59
23.00
19.80
13.34
4.52
-5.59
-15.95
-25.59
-33.60
-39.34
-42.83
-44.88
-46.84
-49.98
-54.74
-60.38
-65.26
-67.54
-66.03
-60.52
-51.72
-40.88
-29.39
-18.59
-9.67
-3.53
-0.65
-0.79
-3.05
-6.05
-8.55
-9.91
-10.41
-10.92
-12.40
-15.02
-17.93
-19.33
-17.24
-10.35
1.30
16.17
31.63
44.59
52.20
52.23
43.33
25.14
-1.38
-33.54
-66.76
-94.98
-112.00
-113.35
-98.04
-69.08
-32.60
4.25
35.65
58.47
72.27
77.96
76.38
67.39
50.38
25.39
-5.75
-39.34
-70.77
-96.18
-113.56
-123.02
-125.96
-123.89
-117.70
-107.57
-93.67
-76.81
-58.59
-41.09
-25.93
-13.63
-3.46
6.01
16.03
26.98
38.19
48.35
56.20
61.08
63.05
62.68
60.62
57.20
52.41
45.93
37.42
26.77
14.41
1.40
-10.44
-18.93
-22.14
-19.17
-10.81
0.47
11.36
18.96
21.97
21.07
18.53
17.04
18.61
23.81
31.81
40.82
48.72
53.51
53.62
48.11
36.93
21.11
2.91
-14.57
-28.05
-34.97
-34.39
-27.25
-16.04
-3.90
6.41
13.24
16.28
16.15
13.92
10.70
7.45
5.12
4.64
6.68
11.21
17.14
22.40
24.54
21.74
13.64
1.55
-12.14
-24.95
-35.18
-42.29
-46.61
-48.81
-49.56
-49.36
-48.65
-47.74
-46.63
-44.82
-41.35
-35.41
-26.82
-16.46
-5.99
2.88
9.11
12.73
14.68
16.18
18.16
20.88
23.88
26.17
26.64
24.43
19.52
12.88
6.31
1.75
0.45
2.38
6.31
10.51
13.62
15.25
15.87
16.40
17.74
20.48
24.83
30.69
37.53
44.14
48.73
49.42
45.14
36.53
26.04
17.14
12.94
14.65
20.96
28.44
32.96
31.32
22.34
7.17
-11.42
-30.14
-46.38
-58.72
-66.85
-70.95
-71.02
-66.57
-57.10
-42.97
-26.06
-9.74
2.12
6.79
3.84
-4.55
-14.67
-22.96
-27.40
-27.99
-26.16
-23.62
-21.49
-20.02
-18.94
-17.94
-16.92
-15.80
-14.22
-11.36
-6.21
1.83
12.31
23.61
33.33
39.21
40.08
36.36
29.89
23.06
17.75
14.68
13.28
12.43
11.19
9.43
7.68
6.66
6.60
7.02
7.01
5.80
3.31
0.18
-2.62
-4.40
-5.14
-5.36
-5.74
-6.60
-7.73
-8.59
-8.72
-8.02
-6.74
-5.12
-3.11
-0.19
4.33
10.85
19.00
27.52
34.55
38.23
37.26
31.33
21.22
8.58
-4.50
-15.83
-23.52
-26.25
-23.61
-16.40
-6.62
2.79
8.77
9.28
4.21
-4.38
-12.87
-17.59
-16.34
-9.30
1.14
11.51
18.79
21.48
19.85
15.37
9.88
4.88
1.34
-0.15
0.77
4.31
10.36
18.30
26.97
34.77
40.08
41.64
38.88
32.03
22.00
10.03
-2.64
-14.94
-25.86
-34.20
-38.41
-37.00
-29.35
-16.55
-1.62
11.16
17.89
16.60
8.06
-4.71
-17.91
-28.61
-35.65
-39.56
-41.81
-43.84
-46.59
-50.39
-55.14
-60.26
-64.63
-66.64
-64.59
-57.42
-45.22
-29.52
-12.81
2.22
13.48
19.98
21.85
20.08
16.10
11.44
7.33
4.49
2.96
2.27
1.69
0.59
-1.43
-4.55
-8.98
-15.09
-23.25
-33.41
-44.82
-56.03
-65.42
-71.92
-75.26
-75.76
-73.67
-68.55
-59.52
-46.09
-29.12
-11.16
4.33
14.65
19.19
19.91
20.39
23.93
31.86
42.92
53.97
61.63
63.92
61.20
55.83
51.04
49.34
51.41
56.00
60.73
63.44
63.32
61.24
59.14
59.04
62.07
67.97
75.21
81.43
83.94
80.25
68.62
48.73
22.20
-7.24
-34.31
-53.71
-61.78
-57.81
-44.47
-26.88
-10.87
-1.07
0.43
-5.61
-16.33
-28.02
-37.39
-42.28
-41.74
-35.53
-23.68
-6.29
16.20
42.59
70.51
96.48
116.40
126.46
123.95
107.81
78.51
37.65
-12.58
-69.38
-128.99
-186.25
-234.84
-268.48
-282.68
-276.33
-251.97
-214.74
-170.34
-123.09
-75.01
-26.33
23.39
73.82
123.32
168.78
206.02
230.26
236.86
222.46
186.59
133.10
70.55
10.61
-35.05
-58.57
-58.56
-40.29
-13.26
12.49
29.97
36.80
34.65
27.19
17.79
8.29
-0.88
-9.72
-17.65
-23.14
-24.17
-18.82
-5.99
14.32
40.86
70.91
100.19
123.09
133.59
126.91
101.26
58.99
6.48
-47.34
-93.33
-124.28
-136.38
-129.46
-106.51
-72.56
-33.60
4.68
37.89
63.75
82.26
95.12
104.43
111.32
115.22
114.09
105.53
88.11
62.19
29.78
-6.39
-43.74
-80.12
-113.17
-139.58
-154.98
-155.09
-137.61
-103.94
-59.55
-12.58
28.56
57.67
72.06
72.37
61.43
43.03
21.08
-0.62
-18.52
-29.79
-33.01
-28.87
-20.44
-12.69
-11.40
-21.64
-45.92
-82.84
-126.52
-167.46
-194.78
-199.35
-176.85
-129.47
-65.53
2.87
63.27
105.96
125.84
122.80
100.94
67.33
30.41
-1.60
-22.34
-28.81
-22.04
-6.59
11.07
24.83
30.77
28.04
18.64
6.17
-5.46
-13.19
-15.30
-11.54
-2.85
9.04
22.12
34.45
44.21
49.78
49.72
43.12
30.02
11.95
-8.03
-25.90
-37.80
-41.15
-35.22
-20.99
-0.25
25.03
52.94
81.16
106.27
123.63
128.22
116.43
87.71
45.38
-4.11
-53.13
-95.00
-125.59
-143.62
-149.87
-146.30
-135.38
-119.73
-102.09
-84.99
-70.20
-58.19
-48.13
-38.47
-28.01
-16.56
-4.83
6.29
16.64
27.05
38.58
51.61
65.00
76.23
82.58
82.43
76.14
65.87
54.56
44.69
37.53
33.09
30.53
28.88
27.35
25.51
23.25
20.79
18.62
17.44
17.93
20.52
25.29
31.85
39.54
47.62
55.50
62.85
69.51
75.31
79.75
81.87
80.43
74.52
64.30
51.35
38.16
27.02
18.76
12.09
4.10
-8.42
-27.43
-52.71
-81.86
-111.11
-136.33
-153.87
-161.08
-156.75
-141.53
-118.13
-90.97
-65.04
-44.40
-30.95
-24.00
-21.07
-19.15
-15.84
-10.03
-1.71
8.49
19.64
30.62
40.14
46.88
49.90
49.05
45.16
39.85
35.05
32.51
33.27
37.26
43.11
48.30
49.77
44.98
33.01
15.16
-5.47
-25.33
-42.03
-55.23
-66.26
-76.82
-87.45
-96.95
-103.02
-103.70
-98.50
-88.58
-75.90
-62.09
-47.74
-32.59
-16.18
1.36
19.20
36.15
51.25
64.07
74.53
82.44
87.10
87.33
82.06
71.16
56.05
39.51
24.84
14.51
9.16
7.31
6.20
3.16
-3.07
-12.09
-22.47
-33.02
-43.54
-54.77
-67.36
-80.87
-93.42
-102.45
-105.95
-103.59
-96.84
-88.08
-79.44
-71.71
-64.16
-55.26
-43.63
-28.87
-11.59
7.00
25.76
43.92
60.98
76.19
88.17
95.10
95.50
89.23
78.03
65.15
54.01
46.61
42.74
40.29
36.79
31.00
23.68
17.03
13.11
12.53
14.00
15.24
14.51
11.85
9.10
8.82
12.67
20.26
29.26
36.56
40.07
39.80
37.78
36.82
38.73
43.10
47.42
48.39
43.69
33.34
19.68
6.16
-4.26
-10.20
-11.73
-9.59
-4.54
2.50
9.67
13.56
9.90
-4.47
-29.22
-59.41
-86.68
-102.38
-101.22
-83.38
-54.21
-21.66
6.91
26.95
37.21
38.68
33.20
22.52
8.21
-7.99
-23.92
-37.14
-45.60
-48.22
-45.24
-38.18
-29.26
-20.72
-14.21
-10.46
-9.30
-9.80
-10.47
-9.61
-5.81
1.47
11.31
21.26
28.04
28.82
22.63
10.96
-2.86
-15.22
-23.85
-28.66
-31.13
-33.12
-35.48
-37.71
-38.57
-37.13
-33.43
-28.37
-23.04
-17.96
-12.80
-6.74
0.94
10.38
21.11
32.28
42.82
51.58
57.46
59.58
57.56
51.87
43.96
36.02
30.27
28.07
29.32
32.37
34.68
33.97
29.34
21.89
14.39
10.04
10.96
17.18
26.53
35.67
41.63
43.11
40.90
37.16
34.30
33.80
35.82
39.47
43.62
47.53
50.93
53.66
55.28
55.09
52.58
48.08
42.96
39.18
38.27
40.35
43.87
46.20
44.94
39.07
29.28
17.34
4.84
-7.73
-21.12
-36.24
-52.76
-68.17
-78.21
-78.57
-66.96
-44.62
-16.22
11.67
32.79
43.00
40.92
27.71
6.25
-19.66
-45.79
-67.96
-82.67
-88.01
-84.09
-73.05
-58.21
-42.89
-29.53
-19.43
-13.17
-11.17
-14.00
-21.91
-34.16
-48.38
-61.10
-69.10
-71.18
-69.14
-67.18
-69.80
-79.09
-92.97
-105.50
-109.17
-98.03
-70.23
-28.81
19.05
64.20
97.61
112.14
103.95
73.56
26.26
-28.55
-79.25
-115.16
-129.56
-121.41
-95.08
-58.23
-18.88
16.84
45.67
66.71
80.27
86.68
85.93
78.07
64.23
47.16
31.04
20.07
16.63
19.78
25.28
27.27
20.82
4.44
-19.39
-45.42
-68.01
-83.32
-90.19
-89.44
-82.69
-71.52
-57.51
-42.68
-29.67
-21.10
-18.30
-20.41
-24.55
-26.98
-24.94
-17.79
-7.07
4.49
14.43
21.48
25.62
27.26
26.50
22.89
16.12
6.92
-2.57
-9.48
-11.82
-9.82
-6.05
-3.97
-5.74
-10.68
-15.51
-16.33
-10.99
-0.44
11.74
21.43
26.07
25.45
21.17
15.24
8.96
2.88
-2.47
-5.99
-6.19
-1.98
6.33
16.92
27.07
34.43
37.90
37.90
35.71
32.58
29.08
25.11
20.49
15.53
11.15
8.53
8.31
10.18
12.96
15.20
15.99
15.43
14.33
13.63
13.79
14.54
15.15
15.07
14.51
14.51
16.43
20.91
26.92
31.53
30.90
22.20
5.81
-13.65
-28.27
-29.69
-12.76
21.68
66.43
110.23
141.83
153.75
144.39
117.86
82.04
45.98
17.15
-0.48
-7.49
-8.58
-10.83
-20.67
-40.74
-68.15
-95.11
-111.91
-110.89
-89.53
-51.17
-3.16
46.20
90.21
124.83
148.08
158.97
157.16
143.47
120.73
94.13
70.27
55.17
52.17
60.83
77.25
95.78
111.22
120.56
123.52
121.79
117.42
111.26
102.23
87.62
64.42
30.88
-12.23
-61.36
-110.92
-154.90
-188.46
-209.20
-217.51
-215.99
-208.24
-197.81
-187.36
-178.59
-172.52
-169.64
-169.87
-172.23
-174.70
-174.56
-169.34
-157.81
-140.58
-119.92
-98.68
-79.25
-62.79
-49.28
-38.27
-29.64
-24.12
-22.94
-27.04
-35.99
-47.58
-58.41
-65.22
-66.52
-63.44
-59.00
-56.39
-57.04
-59.90
-62.27
-61.86
-58.40
-53.73
-50.33
-49.26
-49.13
-46.87
-39.81
-27.61
-12.79
0.72
9.75
13.70
14.58
15.84
20.46
29.76
43.14
58.47
73.05
84.20
89.97
89.49
83.33
73.40
62.50
53.35
47.72
45.97
47.16
49.55
51.40
51.40
48.99
44.29
38.06
31.61
26.57
24.55
26.62
32.78
41.73
51.13
58.20
60.82
58.30
51.90
44.33
38.85
37.97
42.47
51.26
61.87
71.61
78.41
81.38
80.57
76.57
69.91
60.93
49.92
37.60
25.45
15.42
9.15
7.14
8.26
10.19
10.56
8.24
3.90
-0.35
-2.19
-0.26
5.27
13.05
21.40
28.99
35.12
39.29
41.00
39.83
35.93
30.36
25.01
21.83
21.82
24.45
28.00
30.59
31.34
30.85
30.68
32.18
35.48
39.04
40.39
37.25
28.55
14.66
-3.13
-23.32
-44.59
-65.55
-84.24
-98.02
-104.17
-100.98
-88.85
-70.52
-50.19
-31.87
-17.83
-8.04
-0.67
6.47
14.66
23.76
32.77
40.95
48.70
57.38
68.39
81.92
96.29
108.47
115.60
116.56
112.73
107.40
103.99
104.08
106.16
105.88
97.58
76.28
39.82
-10.34
-69.24
-129.44
-182.64
-221.63
-241.51
-240.33
-219.54
-183.81
-140.39
-97.49
-62.14
-38.11
-24.97
-19.18
-16.62
-15.48
-17.28
-25.32
-41.46
-63.02
-82.42
-89.93
-78.24
-46.13
0.98
53.73
103.06
143.15
171.94
189.05
193.75
183.72
155.74
108.10
43.04
-32.18
-106.30
-166.90
-204.37
-215.14
-202.90
-176.73
-147.01
-120.78
-99.02
-77.35
-49.71
-13.03
30.15
72.42
105.31
123.74
128.43
125.04
120.89
121.16
127.00
135.77
143.44
147.14
146.50
143.10
138.86
134.31
127.92
116.84
98.37
71.36
36.88
-2.33
-42.76
-80.83
-112.96
-135.29
-143.91
-135.96
-111.37
-74.15
-32.32
4.26
27.09
31.92
19.74
-4.62
-35.21
-67.58
-99.72
-131.14
-160.88
-186.15
-202.84
-207.32
-198.67
-179.84
-156.95
-137.30
-126.78
-128.08
-140.21
-159.14
-179.23
-194.79
-201.56
-197.80
-184.57
-165.02
-142.77
-120.15
-97.22
-72.14
-43.16
-10.74
21.19
46.16
57.66
52.49
33.01
7.01
-15.12
-24.70
-18.41
0.56
24.27
44.08
54.49
54.68
47.21
35.08
19.36
-0.87
-26.40
-55.31
-82.00
-98.87
-100.05
-84.67
-57.82
-28.29
-4.61
8.38
10.85
6.61
0.40
-4.39
-6.53
-6.25
-4.12
-0.62
3.34
5.61
2.88
-7.90
-27.33
-51.86
-74.21
-85.90
-80.73
-57.33
-19.33
26.69
74.41
120.28
164.22
208.58
256.51
310.72
372.51
441.17
513.29
582.60
640.66
679.04
692.07
679.01
644.26
595.52
540.81
485.81
432.99
382.42
333.48
286.15
241.21
199.44
160.81
124.20
87.98
50.95
12.92
-25.35
-62.88
-99.41
-135.68
-172.67
-210.27
-246.20
-275.95
-294.25
-297.24
-284.23
-258.12
-224.24
-188.34
-154.90
-126.52
-104.35
-88.96
-80.71
-79.42
-83.65
-90.36
-95.52
-95.44
-88.16
-74.19
-56.11
-37.25
-20.11
-5.37
7.94
21.28
34.98
47.33
54.80
53.60
41.70
20.17
-6.98
-34.45
-57.87
-75.47
-87.94
-97.38
-105.45
-112.44
-117.58
-119.98
-119.70
-117.76
-115.60
-114.22
-114.09
-115.74
-120.61
-131.32
-150.87
-181.14
-221.39
-267.82
-314.27
-354.15
-382.33
-396.54
-397.53
-388.08
-371.49
-350.47
-327.19
-304.06
-284.27
-271.32
-267.34
-271.26
-277.97
-279.72
-269.09
-242.10
-199.59
-146.51
-89.55
-34.85
13.13
51.86
80.58
100.29
114.09
126.72
143.20
166.79
197.35
231.36
263.45
288.63
304.22
310.41
309.55
304.72
298.51
292.32
286.38
280.26
273.40
265.60
257.00
247.61
236.94
223.99
207.93
188.93
168.70
149.80
134.26
122.21
111.59
99.36
83.55
64.74
46.00
31.02
21.84
17.37
13.73
6.38
-7.42
-27.19
-49.34
-68.83
-81.09
-83.58
-76.29
-61.38
-42.58
-24.46
-11.66
-8.01
-15.49
-33.28
-57.77
-83.49
-105.00
-118.83
-124.53
-124.39
-121.94
-120.19
-120.44
-122.07
-123.16
-121.40
-114.85
-102.45
-84.08
-60.61
-33.74
-5.60
21.74
46.90
69.29
88.97
105.94
119.74
129.45
134.22
134.02
129.96
123.98
117.93
112.69
107.75
101.54
92.48
80.09
65.43
50.48
36.81
24.40
11.67
-3.24
-20.49
-37.29
-48.49
-48.83
-35.93
-12.09
16.21
40.87
55.71
58.99
53.80
46.36
43.14
48.20
61.75
80.08
97.20
107.13
106.03
93.79
73.95
52.70
36.80
31.10
36.71
50.39
65.28
72.86
65.55
39.42
-3.84
-56.40
-105.95
-139.38
-147.32
-127.56
-85.69
-32.51
20.38
64.40
95.44
112.83
116.91
107.45
83.91
47.54
3.14
-41.11
-76.10
-95.31
-97.21
-85.16
-65.42
-44.04
-24.69
-8.21
6.48
20.84
35.43
49.38
60.73
67.34
67.96
62.99
54.62
46.13
40.58
39.46
42.07
45.90
47.79
45.23
37.03
22.92
2.94
-23.10
-55.19
-91.92
-129.59
-162.17
-182.63
-185.42
-168.87
-136.17
-94.58
-53.11
-19.57
1.53
9.66
7.42
-1.11
-12.07
-22.70
-31.45
-37.53
-40.40
-39.91
-36.77
-32.97
-31.40
-34.38
-41.88
-50.67
-55.21
-50.08
-32.94
-5.80
25.71
55.06
77.57
91.69
98.23
98.53
92.92
80.71
61.48
36.63
9.51
-15.79
-36.47
-52.40
-65.95
-80.27
-97.07
-115.22
-130.87
-138.96
-135.21
-117.84
-88.37
-51.32
-13.11
19.36
40.37
46.83
39.31
22.21
2.68
-11.66
-15.51
-8.10
6.33
20.18
25.56
17.58
-3.81
-34.16
-66.61
-94.54
-113.79
-123.27
-124.53
-120.37
-113.83
-107.38
-102.57
-99.81
-98.30
-96.13
-90.69
-79.58
-61.47
-36.74
-7.41
23.53
52.93
78.14
97.19
108.73
111.97
106.91
94.67
77.73
59.35
42.38
27.85
14.25
-1.79
-23.53
-51.80
-83.65
-112.96
-132.77
-138.35
-129.17
-109.03
-84.22
-60.76
-42.14
-28.66
-18.14
-7.68
4.83
20.05
37.39
55.99
75.31
95.17
115.23
134.26
149.99
159.57
160.59
151.99
134.34
109.35
79.05
45.44
10.77
-21.79
-48.10
-64.09
-67.68
-60.50
-47.87
-36.82
-32.92
-37.82
-48.96
-61.72
-72.51
-80.85
-89.17
-100.75
-117.02
-136.22
-154.00
-165.27
-166.14
-154.81
-131.54
-98.25
-57.96
-14.85
25.93
59.18
81.00
90.23
89.09
82.38
75.66
73.15
76.17
83.07
90.43
95.10
96.01
94.76
94.56
98.29
106.46
116.48
123.53
122.75
111.36
89.85
61.87
32.97
9.15
-4.62
-5.48
6.47
27.86
52.25
71.46
77.69
65.96
35.94
-7.81
-56.97
-101.96
-134.60
-150.19
-148.31
-132.35
-107.95
-81.14
-56.80
-37.87
-25.62
-20.20
-21.02
-26.49
-33.42
-37.11
-32.75
-17.76
5.99
31.77
50.21
53.30
38.11
8.23
-28.17
-62.20
-88.09
-104.78
-114.91
-122.13
-128.76
-135.04
-139.75
-141.60
-139.90
-134.46
-125.03
-110.86
-91.01
-65.21
-34.35
-0.54
33.37
64.59
90.86
110.55
122.48
125.66
119.49
104.34
82.22
56.74
32.35
12.62
-1.23
-10.90
-19.79
-30.74
-43.80
-55.61
-60.94
-55.53
-38.77
-14.39
10.80
29.69
37.58
33.49
19.84
1.27
-16.82
-29.55
-33.53
-27.46
-12.51
8.02
29.67
48.41
62.13
71.06
77.14
82.55
88.20
93.14
94.97
91.38
81.57
67.21
51.86
39.36
31.85
28.53
25.93
19.75
7.37
-10.59
-30.38
-47.19
-57.70
-61.87
-62.93
-65.73
-74.35
-90.45
-113.01
-139.26
-165.95
-190.12
-209.22
-220.90
-222.90
-213.72
-193.59
-165.17
-133.36
-104.06
-82.14
-69.79
-65.65
-65.39
-63.62
-56.06
-41.15
-20.17
3.86
27.82
49.57
68.11
82.84
92.94
97.41
95.84
89.34
80.70
73.55
70.99
74.39
83.07
94.79
106.62
115.76
119.93
117.64
108.56
93.89
76.37
59.69
47.44
42.01
44.05
52.73
66.37
82.92
100.17
115.70
127.04
132.29
130.75
123.33
112.33
100.81
91.81
87.54
88.81
94.53
101.80
106.52
104.98
95.44
79.13
59.75
41.55
27.15
16.40
7.15
-2.92
-14.19
-24.70
-31.57
-33.04
-30.02
-25.80
-24.18
-27.34
-34.59
-42.78
-47.89
-46.72
-37.96
-22.38
-2.22
19.60
40.11
56.71
67.32
70.64
66.66
57.03
45.05
34.76
29.32
29.31
31.99
32.31
25.35
9.08
-14.32
-39.40
-60.17
-73.19
-79.01
-81.39
-84.82
-91.96
-102.50
-113.93
-123.17
-127.97
-127.49
-121.86
-111.64
-97.59
-80.95
-63.48
-47.06
-33.01
-21.49
-11.61
-2.15
7.43
16.52
23.76
28.12
29.91
30.83
32.78
36.13
38.72
36.55
26.03
6.80
-17.06
-38.14
-48.96
-45.68
-30.02
-8.34
11.46
23.28
24.96
17.96
5.82
-7.45
-18.13
-22.78
-18.43
-3.36
21.73
52.91
83.71
107.16
118.28
115.90
102.87
84.69
67.23
54.66
48.40
47.20
48.37
49.17
47.80
43.53
36.15
25.31
10.46
-8.46
-30.00
-50.87
-66.75
-74.39
-73.47
-67.21
-60.94
-59.32
-63.88
-72.32
-79.92
-82.32
-77.84
-67.97
-56.06
-45.05
-35.64
-26.37
-14.91
0.11
18.08
36.76
53.47
66.39
74.82
78.67
77.68
71.04
58.12
39.62
18.32
-1.39
-15.11
-20.30
-17.33
-8.98
1.14
10.15
16.46
19.33
18.00
11.46
-0.70
-17.25
-34.63
-47.72
-51.88
-45.00
-28.53
-6.79
15.09
33.44
47.42
58.81
70.57
85.14
103.18
123.26
142.54
157.75
166.05
165.59
155.37
135.18
105.74
69.16
29.38
-8.18
-38.08
-56.87
-64.56
-64.60
-61.85
-59.98
-59.57
-58.49
-53.90
-44.75
-32.99
-22.69
-17.86
-20.20
-28.52
-39.85
-51.27
-61.20
-69.59
-76.90
-83.02
-86.98
-87.33
-83.04
-74.04
-61.18
-45.78
-29.12
-12.15
4.56
20.62
35.78
49.96
63.52
77.28
92.14
108.26
124.14
136.12
139.12
128.46
102.25
62.96
17.11
-27.01
-62.75
-87.62
-103.74
-116.07
-129.33
-145.56
-163.33
-178.79
-187.41
-185.61
-171.43
-144.47
-105.76
-57.71
-4.21
49.77
99.07
139.54
168.84
186.45
192.96
189.17
175.78
153.78
125.13
93.10
61.53
33.34
9.17
-13.10
-37.03
-65.35
-97.75
-130.20
-156.19
-169.58
-167.35
-151.03
-126.02
-99.37
-76.97
-61.74
-53.21
-48.44
-43.59
-35.42
-22.16
-3.75
18.61
43.01
67.36
89.88
109.29
124.92
136.62
144.42
148.00
146.41
138.09
121.79
97.80
68.96
40.38
17.49
3.35
-3.51
-8.88
-20.22
-42.59
-75.49
-112.57
-144.57
-163.90
-168.29
-161.55
-151.35
-145.18
-146.90
-155.66
-167.18
-176.37
-179.81
-176.86
-169.25
-159.57
-149.52
-138.84
-124.98
-103.85
-71.27
-25.03
33.19
96.93
155.95
198.64
215.32
201.12
157.44
91.62
15.14
-59.06
-119.15
-156.30
-165.77
-147.19
-104.27
-43.93
24.69
91.49
146.82
182.81
194.63
181.32
145.96
95.03
36.93
-19.76
-67.82
-102.25
-120.33
-121.38
-106.33
-77.15
-36.83
10.60
60.10
106.01
142.91
166.90
176.55
173.32
160.97
144.36
127.94
114.78
106.33
102.71
102.94
105.11
106.42
103.52
93.54
75.40
50.60
22.91
-3.09
-23.94
-38.57
-48.16
-55.00
-61.11
-67.26
-73.25
-78.78
-84.10
-89.91
-96.51
-102.75
-105.93
-102.57
-90.03
-68.04
-39.20
-8.21
19.76
40.72
52.71
55.82
51.52
41.90
29.52
17.59
10.04
10.63
21.05
38.86
56.81
64.75
53.90
21.64
-25.92
-75.22
-109.99
-117.57
-93.56
-43.11
21.71
86.68
140.13
175.79
192.67
193.29
181.28
159.88
131.98
100.73
70.11
44.59
27.64
19.99
18.86
18.42
11.98
-5.34
-34.54
-72.15
-111.33
-143.93
-162.60
-162.52
-142.36
-104.40
-54.11
1.02
52.91
94.48
121.03
131.02
126.30
111.32
91.79
72.85
57.50
46.02
36.49
25.86
11.32
-8.95
-35.59
-67.90
-103.53
-138.26
-166.11
-180.43
-176.02
-151.01
-108.00
-53.58
3.62
55.30
95.39
120.74
130.74
126.51
110.28
85.01
54.52
23.48
-3.03
-20.34
-25.47
-18.48
-3.02
14.22
25.68
25.80
13.68
-6.15
-25.44
-35.82
-32.55
-16.71
5.41
25.34
36.12
35.04
23.97
7.64
-8.93
-22.50
-32.26
-39.27
-45.33
-52.23
-61.51
-74.68
-92.94
-116.47
-143.46
-169.62
-188.74
-194.31
-181.77
-150.31
-103.40
-47.89
7.97
56.44
91.58
109.35
107.31
84.52
42.33
-14.60
-77.63
-135.19
-175.48
-190.15
-177.04
-140.60
-89.86
-34.84
16.46
59.31
91.46
111.51
118.01
109.93
88.19
57.08
23.93
-2.74
-16.22
-14.14
0.70
21.51
40.25
50.61
49.97
39.74
24.35
9.30
-0.66
-2.67
3.95
18.17
37.90
60.52
83.09
102.55
116.08
121.74
119.38
111.20
101.39
94.75
94.44
100.00
106.70
106.79
92.66
60.61
13.11
-41.53
-91.88
-127.71
-143.29
-138.50
-117.69
-87.02
-52.12
-17.25
14.49
40.46
58.44
67.39
68.28
64.14
58.98
55.87
55.35
55.42
53.04
46.38
36.45
26.81
21.59
22.92
29.33
36.25
38.28
31.89
17.11
-2.76
-23.14
-40.44
-53.29
-62.53
-69.92
-76.80
-83.52
-89.69
-94.66
-98.10
-99.82
-99.55
-96.70
-90.45
-80.14
-65.81
-48.30
-29.03
-9.47
9.45
27.50
44.83
61.19
75.20
84.30
85.74
78.14
62.95
44.47
28.39
19.41
19.22
25.92
35.33
43.45
48.47
51.13
53.31
55.93
57.53
54.53
42.91
20.61
-11.06
-47.54
-82.47
-109.73
-125.25
-127.74
-118.43
-100.03
-75.69
-48.32
-20.35
5.99
28.60
45.55
55.46
58.01
54.22
46.13
36.11
26.11
17.29
10.23
5.19
2.24
1.02
0.31
-2.08
-8.64
-20.93
-38.44
-58.14
-75.35
-85.49
-85.73
-76.11
-59.47
-40.39
-23.71
-13.23
-10.90
-16.48
-27.67
-40.74
-51.42
-55.88
-51.66
-38.21
-16.89
9.38
36.79
61.35
79.75
89.95
91.60
85.97
75.36
62.04
47.60
32.76
17.92
3.98
-7.40
-14.42
-16.20
-13.93
-10.73
-10.51
-16.03
-27.76
-43.72
-60.71
-75.88
-87.63
-95.54
-99.73
-100.35
-97.60
-92.41
-86.52
-81.81
-79.05
-76.85
-71.79
-59.93
-39.04
-10.08
22.78
53.69
77.47
91.33
95.52
92.54
85.85
78.57
72.78
69.29
67.92
67.90
68.17
67.79
66.11
62.70
57.30
49.79
40.42
30.07
20.35
13.18
9.93
10.50
13.09
14.83
12.98
6.32
-4.17
-15.63
-24.36
-27.04
-21.72
-8.38
11.06
33.08
53.27
67.69
74.19
73.27
67.79
61.62
57.94
58.07
61.32
66.10
70.89
74.73
76.86
76.22
71.39
61.53
47.37
31.55
17.61
8.20
3.62
1.73
-0.67
-5.87
-13.98
-23.13
-30.77
-35.12
-35.91
-34.27
-31.93
-30.67
-32.18
-38.05
-49.43
-66.43
-87.29
-108.23
-124.20
-130.47
-124.19
-105.45
-77.35
-45.02
-14.12
10.78
27.26
35.55
38.15
38.63
40.10
44.06
49.98
56.00
59.97
60.41
56.71
48.69
36.15
18.86
-2.75
-26.75
-49.71
-67.59
-77.51
-79.04
-74.55
-68.11
-63.61
-63.17
-66.31
-70.29
-71.18
-65.31
-50.60
-27.44
1.17
30.61
56.14
74.50
84.78
88.30
87.52
84.75
81.31
77.28
71.92
63.98
52.21
35.99
15.97
-5.44
-24.33
-36.53
-39.43
-33.46
-22.25
-11.08
-4.52
-4.25
-8.43
-12.86
-13.34
-7.70
3.13
15.57
24.88
26.82
18.86
0.72
-25.61
-56.28
-86.16
-109.65
-121.76
-119.38
-102.23
-73.36
-38.53
-4.96
20.67
34.10
34.49
24.41
8.60
-8.03
-22.10
-32.47
-39.63
-44.36
-46.56
-45.32
-39.96
-31.30
-22.09
-15.91
-15.13
-19.41
-25.80
-30.58
-31.73
-30.26
-29.54
-33.11
-42.38
-55.76
-69.78
-81.06
-87.91
-90.35
-89.05
-83.94
-73.97
-58.03
-36.17
-10.46
15.66
38.86
57.34
71.35
82.45
92.14
100.97
108.37
113.42
115.72
115.69
114.30
112.46
110.57
108.53
106.05
102.88
98.92
94.12
88.37
81.51
73.51
64.64
55.49
46.89
39.59
33.89
29.61
26.08
22.30
17.45
11.19
3.91
-3.14
-8.26
-9.90
-7.26
-0.70
8.37
17.94
26.00
31.26
33.46
33.24
31.77
30.04
28.30
25.97
22.14
16.46
9.94
4.86
3.75
7.91
16.38
26.04
33.07
34.81
30.95
23.33
14.43
5.68
-3.33
-14.26
-28.52
-45.83
-63.96
-79.65
-89.96
-93.49
-90.59
-82.69
-71.59
-58.90
-45.83
-33.30
-21.94
-12.06
-3.54
4.16
11.60
19.00
26.02
31.68
34.69
34.08
29.83
23.30
16.91
13.02
12.34
12.62
8.78
-5.32
-33.72
-75.50
-123.53
-166.09
-190.76
-189.20
-160.44
-111.65
-55.78
-7.27
22.44
27.92
10.67
-22.16
-60.40
-93.98
-115.30
-120.54
-109.56
-85.13
-51.68
-14.15
22.73
54.92
79.41
94.66
100.63
98.75
91.47
81.58
71.54
62.97
56.25
50.46
43.84
34.52
21.71
6.53
-7.82
-17.09
-17.81
-9.05
6.74
24.41
37.88
42.12
34.68
16.15
-10.37
-40.20
-68.05
-89.10
-99.82
-98.64
-86.22
-65.13
-39.25
-12.82
10.35
27.54
37.34
39.72
35.82
27.54
16.98
6.05
-3.79
-11.54
-16.55
-18.70
-18.79
-18.66
-20.80
-27.34
-38.86
-53.69
-68.29
-78.56
-81.57
-76.52
-64.85
-49.30
-32.71
-17.17
-3.73
7.30
16.08
22.90
28.23
32.59
36.44
40.25
44.51
49.68
56.21
64.16
72.87
80.89
86.26
87.21
82.94
73.98
61.99
49.24
37.92
29.69
25.36
24.58
25.64
25.87
22.58
14.58
3.18
-7.90
-14.09
-12.41
-3.06
10.43
23.19
31.40
34.03
32.75
30.06
27.49
24.50
19.30
10.52
-1.16
-12.71
-19.96
-19.53
-10.47
5.33
24.01
41.42
54.63
62.82
67.04
69.40
72.00
76.16
82.18
89.61
97.54
104.63
109.04
108.45
100.64
84.48
60.92
33.17
5.78
-17.06
-33.22
-43.41
-50.46
-57.75
-67.32
-79.13
-91.43
-102.06
-109.68
-114.30
-116.64
-116.98
-114.14
-105.62
-88.81
-62.75
-29.57
5.44
35.36
53.99
57.94
47.51
25.92
-2.29
-32.69
-61.68
-86.48
-105.15
-116.67
-121.32
-120.67
-116.96
-111.95
-106.09
-98.53
-88.05
-74.20
-57.92
-41.26
-26.50
-15.26
-8.22
-5.52
-6.99
-12.21
-20.10
-28.63
-34.96
-36.18
-30.40
-17.57
0.47
20.60
39.40
54.08
62.98
65.57
62.19
53.90
42.41
30.12
20.04
15.08
17.03
25.71
38.87
53.05
65.25
74.38
81.56
89.36
99.83
112.91
125.74
133.44
130.54
112.68
77.72
26.52
-36.56
-103.72
-164.60
-208.42
-227.02
-217.58
-183.63
-133.47
-76.88
-21.50
28.75
73.16
112.00
144.55
168.82
182.54
184.97
177.79
164.55
149.20
134.80
122.93
113.73
106.42
99.57
91.15
78.71
59.70
31.82
-6.61
-56.31
-116.44
-183.53
-250.95
-309.34
-348.46
-360.15
-341.23
-294.60
-228.57
-154.30
-82.60
-21.58
24.60
55.58
73.84
83.45
88.78
93.40
99.38
106.98
114.73
120.20
120.83
114.72
101.60
83.11
62.69
44.63
32.67
28.32
30.13
34.04
35.03
29.23
15.59
-4.08
-26.12
-46.64
-63.16
-74.74
-81.70
-84.98
-85.56
-84.50
-83.18
-83.00
-84.67
-87.54
-89.37
-87.16
-78.66
-63.56
-43.79
-22.65
-3.31
12.33
24.17
33.49
41.95
50.69
59.72
67.91
73.50
75.10
72.43
66.60
59.67
53.64
49.63
47.62
46.93
46.92
47.55
48.89
50.40
50.50
46.84
37.60
22.92
5.49
-10.15
-19.20
-18.42
-7.19
12.37
36.25
59.72
78.35
88.80
89.44
80.77
65.49
48.16
33.75
25.97
25.87
31.43
38.61
43.37
43.39
38.78
31.37
23.22
15.37
7.39
-1.99
-13.90
-28.57
-45.47
-63.75
-82.52
-100.86
-117.18
-129.02
-133.55
-128.62
-113.99
-91.80
-66.12
-41.53
-21.66
-8.16
-0.71
2.29
2.86
2.80
3.38
5.25
8.33
11.59
13.29
11.55
5.25
-5.27
-18.12
-30.62
-40.48
-46.68
-49.82
-51.86
-55.36
-62.62
-74.70
-90.61
-106.72
-117.22
-115.73
-97.73
-62.73
-14.93
37.76
86.15
122.17
140.23
137.28
112.34
66.47
3.61
-68.53
-138.76
-194.51
-225.51
-226.90
-200.64
-153.98
-95.90
-33.31
31.02
97.71
167.91
239.85
307.50
361.53
393.25
398.02
377.02
335.96
281.61
218.96
150.66
79.19
9.66
-49.49
-88.90
-102.73
-92.57
-68.01
-43.29
-32.07
-42.91
-77.68
-132.51
-199.92
-270.73
-335.22
-384.12
-410.06
-409.48
-383.77
-338.73
-282.28
-221.57
-160.93
-101.25
-41.46
19.75
81.88
142.06
195.63
237.59
264.21
274.11
268.68
251.37
226.25
196.68
164.66
130.81
94.96
56.88
16.80
-24.16
-63.84
-99.01
-125.47
-138.45
-133.19
-106.39
-57.52
9.40
85.22
156.64
209.20
231.21
217.47
171.18
103.39
29.88
-33.09
-73.02
-83.93
-67.19
-30.64
13.55
51.95
73.16
70.57
44.01
-0.32
-51.66
-97.88
-128.78
-138.75
-127.87
-101.04
-66.27
-32.37
-7.08
4.27
-0.74
-21.28
-53.29
-90.02
-123.11
-144.34
-147.61
-130.59
-95.33
-47.70
4.27
52.89
92.73
121.89
141.91
156.15
167.16
174.98
176.79
168.81
149.13
119.61
85.50
52.90
25.44
2.47
-19.91
-45.48
-74.20
-100.58
-115.17
-108.66
-76.46
-21.61
45.46
110.38
159.55
184.62
184.38
163.45
128.72
85.55
35.63
-21.67
-86.07
-153.26
-214.00
-256.67
-272.07
-257.24
-216.33
-157.98
-91.08
-21.83
46.28
110.56
166.72
208.46
229.39
225.97
199.05
153.38
95.28
30.47
-36.23
-99.92
-154.18
-191.13
-203.71
-188.79
-149.50
-94.79
-36.31
15.87
56.34
84.87
104.24
117.02
123.67
122.73
112.83
94.88
72.66
51.45
35.08
23.64
13.10
-2.41
-26.97
-60.26
-97.26
-130.55
-153.78
-164.36
-163.89
-156.41
-145.84
-134.17
-121.32
-106.48
-89.87
-73.43
-60.17
-52.48
-50.56
-52.12
-53.35
-50.81
-42.94
-30.52
-16.02
-2.17
9.39
18.51
26.20
33.94
43.00
53.94
66.38
78.92
89.44
95.55
95.44
88.78
77.12
63.68
52.02
44.41
40.74
38.56
34.50
26.25
14.03
0.83
-8.91
-11.52
-5.99
5.46
18.44
28.33
32.05
28.91
19.86
6.40
-10.24
-29.01
-48.16
-64.71
-74.64
-74.17
-61.49
-37.94
-7.67
23.58
50.59
70.11
81.24
85.01
83.17
77.16
67.82
55.71
41.77
27.56
14.86
4.70
-3.40
-11.41
-21.79
-35.99
-53.34
-71.11
-85.80
-94.59
-96.31
-91.42
-81.24
-66.93
-49.11
-28.38
-5.75
16.98
37.27
52.54
61.15
63.24
60.96
57.45
55.29
55.16
55.67
54.53
50.34
43.76
36.99
31.97
28.61
24.65
17.71
7.63
-2.58
-8.58
-7.86
-2.15
3.13
2.26
-6.97
-21.63
-35.58
-43.14
-42.29
-35.33
-27.02
-21.63
-20.93
-24.08
-28.78
-32.71
-34.13
-32.11
-26.49
-17.98
-8.52
-1.06
1.36
-2.85
-12.85
-25.27
-35.64
-40.39
-38.19
-30.39
-20.20
-11.90
-9.42
-15.47
-30.55
-52.23
-75.13
-92.00
-96.55
-86.32
-64.41
-38.20
-15.50
0.37
13.04
31.21
63.22
110.56
165.30
212.84
238.90
236.66
209.65
169.09
127.58
93.40
68.16
49.10
33.19
19.98
11.20
8.10
9.16
9.97
5.84
-4.72
-18.60
-29.58
-31.99
-23.93
-8.33
8.80
21.55
26.82
25.27
20.47
17.06
18.88
27.90
43.39
62.02
78.77
88.93
90.49
85.50
79.31
77.70
83.28
93.33
100.50
96.04
73.61
31.74
-25.99
-92.53
-159.27
-217.14
-257.38
-272.62
-258.92
-218.00
-157.76
-90.09
-26.69
24.86
62.79
89.64
108.55
120.32
122.45
110.69
81.80
35.49
-24.92
-93.10
-161.01
-220.09
-262.27
-280.98
-272.56
-237.54
-181.26
-112.96
-43.50
17.23
62.33
88.74
96.61
88.15
66.40
34.43
-4.50
-46.76
-88.06
-123.50
-148.05
-157.75
-150.73
-127.76
-92.10
-48.35
-1.54
43.65
83.16
113.28
130.86
133.85
122.21
98.38
67.00
33.64
3.25
-20.85
-37.26
-46.00
-47.74
-43.49
-34.85
-23.95
-13.14
-4.14
2.78
8.52
14.19
20.00
24.86
27.27
26.86
25.26
25.69
31.33
43.17
59.22
75.42
87.79
94.76
97.88
100.53
105.56
113.24
120.82
124.22
120.26
108.23
89.79
67.29
42.24
14.89
-14.69
-45.13
-72.72
-92.33
-99.83
-94.35
-79.23
-60.98
-46.29
-39.34
-40.37
-46.23
-52.48
-55.47
-53.46
-46.60
-35.95
-22.46
-6.65
11.17
30.24
48.96
65.15
76.84
83.03
83.93
80.63
74.51
66.88
58.91
51.60
45.64
40.92
36.20
29.49
18.97
4.07
-13.97
-32.46
-48.62
-60.85
-69.32
-75.37
-80.15
-83.65
-84.74
-81.85
-74.16
-62.02
-46.73
-29.86
-12.76
3.37
17.12
26.85
31.26
30.32
25.82
20.71
17.55
16.82
16.39
12.61
2.71
-13.12
-31.20
-46.11
-53.48
-52.35
-45.47
-37.52
-32.30
-30.72
-30.92
-30.09
-26.73
-21.79
-17.90
-17.13
-19.12
-20.50
-16.43
-3.32
19.10
47.36
75.96
99.94
116.51
124.94
124.86
114.80
92.49
57.11
12.09
-33.93
-69.46
-84.90
-76.87
-49.52
-12.12
25.44
56.33
77.49
87.91
86.15
69.81
37.36
-9.22
-63.16
-114.30
-152.57
-171.46
-169.58
-149.92
-117.77
-78.64
-37.14
3.14
39.26
68.50
88.14
95.48
88.24
65.43
28.42
-18.07
-66.28
-107.05
-132.62
-139.37
-129.19
-108.56
-85.75
-67.53
-56.89
-52.66
-51.02
-47.86
-40.82
-30.17
-18.37
-8.53
-3.05
-2.71
-6.55
-12.68
-18.98
-23.75
-25.89
-24.68
-19.48
-9.84
4.18
21.50
39.64
55.08
64.05
64.04
54.94
39.51
22.70
10.03
5.32
9.13
18.50
28.24
33.44
31.69
23.98
13.87
5.50
1.73
3.22
8.86
16.61
24.44
30.94
35.62
39.22
43.82
52.18
66.67
87.46
111.65
133.89
148.67
152.88
147.28
135.81
123.23
112.65
104.27
96.27
86.72
75.26
63.56
54.12
48.43
45.58
42.40
34.93
20.66
0.09
-23.35
-44.87
-60.48
-68.62
-70.26
-67.90
-64.08
-60.24
-56.88
-54.23
-52.71
-52.92
-54.85
-57.33
-58.13
-54.95
-46.54
-33.30
-16.92
0.46
16.93
31.12
41.97
48.45
49.87
46.43
39.84
33.28
30.20
32.54
39.43
47.20
51.04
47.48
36.12
19.56
1.76
-14.28
-27.77
-39.68
-51.13
-62.03
-70.68
-75.06
-74.39
-69.76
-63.52
-57.63
-52.33
-46.23
-37.47
-25.16
-10.16
5.43
19.45
30.56
38.36
42.66
42.80
37.65
26.49
10.25
-7.96
-23.65
-32.82
-33.77
-28.01
-19.16
-10.98
-5.29
-1.45
2.69
8.92
17.43
26.64
34.30
38.67
39.16
35.93
29.18
18.87
5.14
-10.91
-26.85
-39.41
-45.76
-44.68
-36.92
-24.59
-10.06
4.79
18.52
29.26
34.21
30.09
14.57
-11.76
-44.34
-75.51
-97.20
-104.13
-95.95
-77.06
-54.12
-32.91
-16.10
-3.20
7.69
17.86
26.81
32.67
33.48
28.45
18.41
5.33
-8.47
-20.95
-30.64
-36.52
-37.97
-34.64
-26.54
-14.00
2.19
20.74
39.95
57.92
72.83
83.21
88.02
86.36
77.40
60.63
36.70
8.11
-20.73
-44.79
-60.48
-67.26
-67.90
-66.78
-67.32
-70.01
-72.32
-70.46
-61.87
-46.88
-28.57
-11.31
1.05
6.38
4.29
-4.49
-18.66
-36.45
-55.39
-72.43
-84.47
-89.17
-85.80
-75.30
-59.84
-42.19
-25.17
-11.14
-1.77
2.38
1.99
-1.13
-4.72
-6.82
-6.21
-2.54
4.09
13.26
24.13
34.91
42.67
43.96
36.25
19.57
-2.86
-25.51
-42.80
-51.38
-51.19
-44.78
-35.52
-25.91
-16.94
-8.54
-0.67
6.18
11.36
14.81
17.62
21.60
28.23
37.66
48.59
59.01
67.36
73.33
77.73
81.71
85.90
90.06
93.40
95.15
95.10
93.64
91.49
89.44
88.22
88.33
89.74
91.49
91.46
87.01
76.16
58.94
37.94
17.50
1.90
-6.62
-8.68
-7.20
-5.73
-6.67
-10.53
-16.45
-23.10
-29.69
-35.98
-41.64
-45.76
-46.82
-43.24
-34.41
-21.30
-6.33
7.60
18.30
25.16
29.10
31.68
34.04
36.13
36.98
35.70
32.59
29.48
28.79
31.77
37.15
41.14
39.18
28.41
9.68
-12.61
-32.55
-45.60
-50.70
-50.19
-47.99
-47.18
-48.43
-50.27
-50.65
-48.62
-44.95
-41.49
-39.65
-39.50
-39.57
-37.80
-32.86
-24.95
-15.72
-7.35
-1.45
1.69
3.10
4.35
6.47
9.29
11.60
12.12
10.82
9.24
9.72
13.87
21.11
28.68
33.14
32.47
27.46
21.50
18.62
21.37
29.50
40.40
50.57
57.12
58.52
54.15
43.75
27.28
5.41
-19.71
-44.46
-64.45
-76.04
-77.75
-70.89
-59.09
-46.94
-38.39
-35.61
-38.69
-46.16
-55.87
-65.76
-73.97
-78.59
-77.56
-69.18
-53.31
-32.38
-11.27
4.16
9.75
5.24
-5.24
-14.98
-17.83
-11.21
2.84
18.74
29.83
31.04
20.43
-0.74
-28.82
-59.05
-86.59
-107.31
-118.23
-117.89
-106.57
-86.47
-61.59
-37.04
-17.84
-7.46
-6.73
-13.60
-23.96
-33.22
-37.92
-36.53
-29.28
-17.42
-2.62
13.13
27.21
36.46
37.92
30.23
14.63
-5.03
-23.61
-36.55
-41.37
-38.04
-28.18
-13.97
2.62
20.00
36.75
51.51
63.24
71.62
77.19
80.82
83.17
84.21
83.42
80.59
76.45
72.73
71.42
73.51
78.23
83.25
85.72
83.59
76.56
66.19
55.20
46.19
40.50
37.46
34.62
28.91
18.23
2.71
-15.18
-31.86
-44.54
-52.61
-57.71
-62.21
-67.32
-71.83
-72.59
-66.64
-53.29
-35.26
-17.65
-5.60
-1.81
-5.34
-12.34
-18.16
-19.50
-15.60
-7.83
1.55
10.84
19.40
27.22
34.02
38.74
40.04
37.44
32.27
27.38
25.49
27.27
30.55
31.43
26.78
16.54
4.18
-5.11
-7.24
-1.42
9.63
21.44
30.21
34.37
34.41
31.57
26.56
19.20
9.11
-3.20
-15.96
-26.61
-32.99
-34.33
-31.57
-26.92
-23.01
-22.05
-25.21
-32.46
-42.64
-53.84
-63.85
-70.59
-72.66
-69.75
-63.03
-54.99
-48.79
-47.13
-50.95
-58.86
-67.54
-73.17
-72.95
-66.21
-54.15
-38.87
-22.22
-5.25
11.56
27.50
41.33
51.62
57.53
59.61
59.74
60.43
63.66
70.17
79.24
89.21
97.88
102.80
101.51
91.86
72.88
45.72
14.24
-15.52
-37.10
-46.17
-42.43
-30.00
-15.77
-6.43
-5.60
-12.59
-23.38
-32.84
-37.12
-34.86
-26.79
-14.79
-0.94
12.81
24.21
30.77
30.51
23.18
11.23
-0.56
-6.67
-3.18
10.54
31.61
54.98
75.58
89.98
97.06
97.39
92.31
83.28
71.87
60.25
51.30
47.69
50.36
57.19
63.00
61.46
47.98
22.31
-10.88
-43.95
-69.64
-84.24
-88.63
-87.12
-84.73
-84.62
-87.17
-90.57
-92.50
-91.40
-86.83
-79.01
-68.04
-53.77
-36.24
-16.35
3.79
21.17
32.88
37.25
34.48
26.78
17.89
11.91
12.14
19.93
33.96
50.30
63.44
67.90
59.98
39.01
7.50
-29.55
-65.88
-95.13
-111.75
-111.88
-94.32
-61.33
-18.75
25.03
61.27
83.61
89.84
82.31
66.41
48.06
31.67
19.32
11.19
6.86
6.12
8.90
14.73
22.05
28.49
31.89
31.48
28.61
26.14
26.92
31.92
39.28
44.91
44.50
35.89
20.39
2.27
-13.23
-22.43
-24.67
-22.20
-18.64
-17.01
-18.37
-22.00
-26.20
-29.36
-30.69
-30.01
-27.26
-22.28
-14.78
-4.58
8.05
22.33
37.05
50.91
62.73
71.53
76.38
76.35
70.61
59.00
42.69
24.40
7.83
-3.69
-8.66
-8.13
-5.07
-2.84
-3.49
-6.87
-11.14
-14.16
-15.03
-14.75
-15.85
-21.01
-32.07
-49.13
-70.52
-93.34
-114.26
-130.31
-139.52
-141.21
-135.79
-124.21
-107.75
-87.86
-66.50
-46.39
-30.83
-22.81
-23.60
-31.60
-42.29
-49.82
-49.51
-40.29
-25.44
-11.04
-2.96
-3.79
-11.60
-21.12
-26.39
-23.53
-11.90
6.46
28.16
49.66
67.41
77.49
75.85
59.48
28.48
-12.75
-55.95
-91.54
-112.01
-114.51
-101.35
-78.41
-52.52
-29.08
-11.17
0.34
6.03
7.20
5.72
3.63
2.57
3.14
4.45
4.65
2.14
-3.15
-9.28
-13.29
-12.84
-7.52
0.96
9.91
17.13
21.71
23.74
23.24
19.68
12.47
2.29
-7.75
-12.77
-8.17
7.89
33.02
61.47
86.75
104.40
113.47
116.05
115.27
113.63
112.28
111.53
111.87
114.25
119.36
126.46
132.64
133.62
125.74
107.86
82.32
54.11
28.88
10.84
1.70
0.78
5.90
14.44
23.85
31.61
35.58
34.24
27.39
16.60
4.69
-5.18
-10.72
-10.99
-6.31
2.30
13.46
25.42
35.88
42.09
41.54
33.09
17.94
-0.36
-17.14
-28.71
-34.07
-35.28
-36.21
-40.14
-47.93
-57.62
-65.81
-69.69
-68.52
-63.52
-56.55
-48.80
-40.22
-30.53
-20.51
-12.57
-9.92
-14.53
-25.40
-38.41
-47.91
-49.29
-40.86
-24.23
-3.24
17.76
35.16
46.43
50.05
45.48
33.57
16.92
-0.39
-14.22
-22.12
-24.61
-25.01
-27.56
-35.08
-47.35
-61.34
-72.93
-79.06
-79.03
-74.37
-67.77
-61.77
-58.05
-57.44
-60.15
-65.72
-72.83
-79.04
-81.19
-76.33
-62.92
-41.69
-15.40
12.07
37.09
57.31
71.75
80.44
83.94
83.18
79.75
76.05
74.77
77.52
83.38
88.49
87.24
75.03
50.92
18.81
-13.86
-39.37
-53.06
-55.07
-49.65
-42.86
-39.92
-43.76
-54.92
-72.26
-93.58
-115.57
-133.73
-142.90
-138.61
-118.83
-85.40
-43.84
-1.81
33.38
56.79
66.69
63.91
50.67
29.67
3.89
-23.04
-46.61
-62.17
-66.48
-59.47
-45.05
-30.00
-21.33
-23.21
-34.94
-51.27
-64.87
-69.65
-63.41
-48.35
-29.61
-12.53
-0.38
6.65
10.71
14.64
20.26
27.69
35.64
42.43
47.15
50.30
53.44
58.39
66.06
75.83
85.76
93.46
97.19
96.67
92.94
87.80
82.99
79.75
78.97
81.30
86.76
93.99
99.77
99.48
89.10
67.60
38.35
8.44
-14.18
-24.14
-20.85
-8.20
7.72
21.45
29.90
32.23
28.80
20.23
7.28
-8.31
-23.44
-34.32
-37.84
-33.16
-22.16
-8.61
3.51
11.56
14.84
14.07
10.63
5.83
0.70
-3.67
-5.86
-4.24
2.48
14.36
29.36
43.28
50.76
47.16
30.64
3.30
-29.36
-60.52
-84.77
-99.97
-107.32
-109.70
-109.67
-108.20
-104.78
-98.84
-90.89
-82.64
-75.98
-71.54
-67.96
-62.54
-52.72
-37.65
-18.73
1.12
19.02
33.36
44.23
52.73
59.91
66.06
70.87
74.24
77.11
81.28
88.31
98.16
108.53
115.43
114.67
103.68
82.46
53.65
21.52
-9.44
-35.59
-54.75
-66.22
-70.58
-69.28
-64.18
-57.19
-49.95
-43.58
-38.63
-35.11
-32.51
-29.82
-25.76
-19.23
-9.84
1.87
14.70
27.25
38.36
47.34
53.80
57.27
57.04
52.51
43.70
31.71
18.35
5.42
-6.29
-17.37
-29.29
-43.13
-58.36
-72.55
-82.25
-84.73
-79.35
-68.06
-54.66
-43.40
-37.49
-38.35
-45.62
-57.59
-71.84
-85.70
-96.58
-102.27
-101.13
-92.52
-76.96
-56.12
-32.39
-8.35
13.84
32.56
46.58
54.84
56.34
50.71
38.94
23.74
8.98
-1.87
-7.56
-9.78
-12.26
-18.52
-29.58
-43.05
-54.29
-58.97
-55.30
-44.84
-31.31
-18.57
-8.83
-2.21
2.54
6.64
10.49
13.69
15.70
16.52
17.05
18.74
22.91
30.14
39.84
50.31
59.38
65.22
67.19
66.32
65.01
66.07
71.52
81.86
95.98
111.72
126.52
138.02
144.16
143.46
135.37
120.77
102.07
82.54
65.00
50.47
37.91
25.22
11.07
-3.66
-15.83
-21.66
-18.88
-8.08
7.43
23.52
37.01
46.92
54.15
60.23
65.93
70.90
74.03
74.45
72.05
67.50
61.79
55.66
49.51
43.72
39.19
37.51
40.59
49.60
63.91
80.72
95.81
105.20
106.86
101.57
92.34
82.92
76.17
73.42
74.87
80.46
90.27
104.10
120.31
135.09
143.08
139.20
120.84
89.30
49.21
6.56
-33.89
-70.41
-104.66
-140.64
-182.42
-231.94
-287.49
-343.56
-392.40
-426.47
-440.62
-433.31
-406.42
-364.06
-311.43
-254.05
-197.45
-146.78
-105.92
-76.80
-59.38
-52.75
-56.45
-70.95
-96.48
-130.64
-167.04
-195.89
-207.28
-195.21
-159.94
-107.29
-45.70
17.36
77.36
132.21
180.48
219.71
246.25
256.66
249.39
225.83
190.31
149.01
108.47
74.41
50.78
39.40
39.77
49.15
63.12
76.46
84.33
83.35
72.41
52.71
27.26
0.01
-25.34
-45.97
-60.19
-67.50
-68.42
-64.21
-56.80
-48.43
-41.27
-36.81
-35.42
-36.21
-37.21
-35.97
-30.43
-19.57
-3.50
16.91
40.65
66.76
93.92
119.70
140.27
150.82
146.90
125.99
88.25
36.05
-27.04
-97.03
-169.48
-238.90
-298.39
-340.57
-359.71
-354.02
-326.72
-284.95
-237.02
-189.46
-145.41
-105.01
-67.17
-31.48
1.03
28.51
49.55
64.18
74.12
82.01
90.20
99.93
110.92
121.78
130.71
136.07
136.74
132.32
123.27
110.95
97.49
85.48
77.33
74.53
76.90
82.64
88.75
92.27
91.32
85.89
77.67
69.28
63.20
61.00
63.18
69.37
78.64
89.76
101.01
109.97
113.77
109.63
95.88
72.90
43.49
12.44
-14.86
-33.96
-42.58
-41.08
-31.90
-18.31
-3.37
10.69
22.53
31.31
36.51
38.18
37.27
35.55
34.92
36.32
38.99
40.83
39.86
35.74
30.62
28.57
33.81
48.72
72.38
100.48
126.51
143.79
147.30
135.07
108.36
70.88
27.28
-18.73
-65.86
-115.60
-170.99
-234.12
-303.49
-372.81
-432.27
-471.61
-483.83
-467.39
-426.24
-367.95
-301.47
-235.44
-177.88
-135.85
-114.60
-115.75
-135.55
-164.76
-190.94
-202.48
-192.55
-160.92
-112.92
-56.34
1.62
56.20
104.89
146.15
178.25
199.25
207.92
205.03
194.04
180.30
169.30
164.71
167.13
174.36
182.89
189.71
193.42
194.14
192.41
188.10
180.23
167.76
150.87
131.82
114.19
101.20
93.71
89.33
83.47
71.79
52.60
27.97
2.78
-17.78
-30.65
-36.06
-37.02
-37.51
-40.75
-48.12
-59.34
-73.00
-87.18
-99.64
-107.96
-109.82
-103.45
-88.33
-65.50
-37.52
-7.64
20.89
45.58
64.80
77.45
82.64
79.54
67.76
47.97
22.62
-4.25
-27.97
-44.81
-53.55
-55.89
-55.50
-56.05
-59.36
-64.55
-69.00
-70.05
-66.69
-60.03
-52.52
-46.62
-43.53
-43.01
-43.71
-44.11
-43.00
-39.70
-33.95
-25.89
-15.96
-4.84
6.73
18.18
29.31
40.03
50.21
59.24
66.03
69.38
68.48
63.64
56.44
49.54
45.82
47.35
54.42
65.08
75.65
81.95
80.97
72.20
57.75
41.53
27.56
18.45
14.82
15.71
19.56
25.16
31.90
39.47
47.29
54.37
59.56
62.23
62.64
61.82
60.95
60.71
60.91
60.67
58.99
55.27
49.58
42.38
34.22
25.31
15.35
3.71
-10.10
-25.95
-42.51
-57.48
-68.40
-73.91
-74.63
-73.25
-73.22
-77.06
-84.86
-93.97
-100.25
-99.92
-91.11
-74.29
-51.62
-25.73
1.32
28.06
53.41
76.15
94.98
108.99
118.15
123.46
126.65
129.63
133.73
139.35
145.82
151.74
155.41
155.43
151.04
142.22
129.54
113.96
96.80
79.89
65.48
55.78
51.84
52.59
54.37
51.91
40.26
17.07
-16.37
-55.73
-95.91
-133.29
-166.87
-197.59
-226.42
-252.50
-272.67
-282.65
-279.02
-261.02
-231.04
-193.71
-154.22
-116.65
-83.22
-54.47
-30.12
-9.82
6.45
18.60
26.70
31.26
32.98
32.37
29.63
25.01
19.37
14.42
12.12
13.32
16.69
18.67
14.94
2.90
-16.41
-38.09
-55.26
-62.15
-56.63
-40.95
-20.50
-1.49
11.15
14.68
8.28
-7.56
-31.23
-59.87
-88.82
-111.96
-122.95
-117.13
-93.39
-55.04
-8.93
36.54
74.10
99.49
112.02
113.73
107.66
96.23
80.64
61.42
39.55
17.15
-2.78
-17.75
-27.09
-32.50
-37.17
-43.97
-53.74
-64.95
-74.64
-80.15
-80.46
-76.42
-69.94
-62.95
-56.65
-51.48
-47.51
-44.67
-42.74
-41.24
-39.36
-36.14
-30.87
-23.07
-12.53
0.66
16.10
32.75
49.05
63.09
73.40
79.54
82.34
83.49
84.92
87.98
93.15
100.24
108.71
117.82
126.59
133.64
137.28
135.96
129.02
117.13
102.53
88.42
78.13
74.06
76.89
85.37
96.86
108.35
117.24
121.84
121.08
113.91
99.10
75.48
42.93
3.37
-38.91
-78.14
-108.71
-127.03
-132.56
-127.60
-116.17
-102.42
-89.56
-79.51
-73.10
-70.26
-69.99
-70.14
-67.59
-59.18
-43.19
-20.71
4.18
25.79
39.23
42.59
37.73
29.00
20.74
14.91
10.31
3.47
-9.04
-28.50
-53.18
-78.72
-99.86
-112.21
-113.55
-104.27
-86.73
-64.23
-39.83
-15.62
7.38
28.71
47.73
63.21
73.37
76.49
71.55
58.82
40.02
18.02
-3.75
-22.15
-35.34
-43.30
-47.74
-51.21
-55.78
-61.98
-68.55
-73.06
-73.24
-68.05
-58.20
-45.73
-33.37
-23.65
-18.36
-18.36
-23.36
-31.84
-41.19
-47.99
-48.80
-40.97
-23.45
2.70
34.31
66.58
94.02
111.76
116.68
108.11
87.77
59.25
27.21
-3.24
-27.16
-40.47
-41.01
-29.64
-10.62
9.04
21.65
21.32
6.02
-21.97
-57.10
-92.70
-123.39
-146.38
-161.87
-172.39
-181.23
-190.77
-201.61
-212.79
-223.07
-232.18
-241.11
-250.94
-261.12
-268.34
-267.31
-253.16
-224.11
-182.79
-135.21
-87.90
-44.99
-6.80
29.49
67.88
111.49
161.37
216.24
272.77
326.01
370.07
399.31
409.84
400.52
373.50
333.54
286.48
237.62
190.69
147.69
109.47
76.43
49.03
27.83
13.29
5.49
4.16
8.79
18.85
33.71
52.39
73.27
93.99
111.84
124.66
131.52
133.11
131.34
128.43
125.79
123.26
118.98
110.07
93.77
68.96
37.23
2.97
-27.90
-49.98
-60.67
-61.04
-55.16
-48.08
-43.60
-43.14
-46.16
-51.51
-58.60
-67.66
-79.03
-91.94
-104.32
-113.34
-116.73
-113.71
-105.16
-92.91
-78.87
-64.46
-50.55
-37.86
-26.99
-18.36
-11.86
-6.80
-2.16
2.77
7.69
11.42
12.36
9.77
4.79
0.37
0.23
7.01
20.71
38.45
55.81
69.04
76.69
79.77
80.08
78.12
71.78
57.06
30.43
-8.62
-56.24
-105.07
-146.86
-175.15
-186.81
-182.13
-163.51
-134.09
-96.80
-54.34
-9.40
35.27
76.72
112.20
138.82
153.48
152.73
133.28
93.57
35.72
-33.01
-100.54
-152.59
-177.13
-168.82
-131.41
-76.73
-20.49
23.29
46.71
49.45
37.09
17.46
-2.67
-19.45
-31.83
-40.51
-46.84
-52.34
-58.66
-67.09
-77.86
-89.40
-98.14
-99.58
-90.36
-70.17
-42.49
-13.66
9.43
21.76
21.74
11.25
-5.62
-24.25
-40.77
-52.61
-58.29
-57.20
-49.55
-36.69
-21.36
-7.36
1.53
3.08
-2.29
-11.53
-20.35
-25.23
-25.23
-22.24
-19.86
-21.31
-27.54
-36.75
-45.11
-48.58
-44.59
-32.92
-15.50
4.72
24.91
43.17
58.84
72.10
83.45
93.17
101.05
106.53
109.05
108.34
104.62
98.52
91.02
83.43
77.36
74.34
75.27
79.83
86.34
92.30
95.41
94.38
89.32
81.15
70.89
59.12
46.25
33.04
21.09
12.64
9.47
11.95
18.53
26.36
32.68
35.97
36.44
35.44
34.52
34.54
35.51
36.87
38.10
39.03
39.68
39.86
38.81
35.32
28.25
17.50
4.63
-7.41
-15.42
-17.74
-15.22
-10.99
-8.84
-11.14
-17.63
-25.78
-32.56
-36.47
-38.36
-40.77
-46.16
-55.26
-66.71
-77.95
-86.52
-91.01
-90.89
-85.99
-75.94
-60.42
-39.82
-15.71
9.33
32.52
51.87
66.60
76.77
82.61
83.95
80.40
72.23
61.06
49.84
41.80
38.65
39.27
39.67
34.69
20.53
-2.97
-31.74
-58.98
-77.93
-84.64
-79.37
-65.98
-50.20
-37.49
-31.66
-34.41
-45.40
-62.20
-80.30
-93.37
-94.58
-78.80
-44.92
3.01
56.60
105.90
142.78
163.19
167.59
159.32
142.44
120.23
95.24
70.26
49.25
36.88
36.70
48.80
68.78
88.90
101.21
101.06
88.69
68.26
44.75
20.85
-4.20
-33.18
-68.07
-107.98
-148.95
-185.94
-215.03
-234.41
-243.69
-242.10
-227.69
-198.06
-152.72
-95.37
-34.49
18.33
51.82
58.69
37.86
-5.37
-61.43
-119.64
-171.07
-210.19
-234.91
-245.33
-242.74
-229.08
-207.18
-181.20
-156.11
-136.39
-124.26
-118.69
-116.02
-111.86
-103.20
-89.64
-72.92
-55.53
-39.35
-25.07
-12.55
-1.54
8.01
16.10
23.16
30.32
39.08
50.74
65.74
83.32
101.92
119.66
135.13
147.80
157.75
165.24
170.09
171.43
168.17
160.03
148.32
136.12
127.16
124.03
126.49
131.18
132.95
127.33
112.82
91.67
68.73
49.11
35.96
29.45
27.43
26.90
25.40
21.65
15.17
5.87
-6.05
-19.73
-32.91
-42.01
-43.25
-34.14
-15.02
10.70
37.66
60.60
76.29
84.40
86.92
86.66
85.69
84.61
83.00
80.50
77.89
77.18
80.57
88.77
99.94
109.83
113.53
107.67
92.00
69.33
43.68
18.07
-6.84
-32.38
-60.05
-89.48
-117.53
-139.34
-150.55
-149.47
-137.88
-120.03
-100.68
-83.12
-68.27
-55.13
-42.05
-27.92
-12.98
1.48
13.83
22.95
28.75
32.08
34.04
35.42
36.38
36.44
34.90
31.01
24.18
13.86
-0.29
-17.99
-37.78
-56.73
-70.98
-76.74
-72.03
-57.74
-37.77
-18.02
-4.59
-1.79
-10.87
-29.69
-53.31
-75.31
-89.16
-89.81
-74.79
-45.00
-4.76
39.01
78.69
108.03
123.98
127.05
120.18
106.56
87.76
63.36
32.26
-5.12
-45.29
-81.93
-108.16
-119.42
-115.32
-99.46
-77.39
-54.19
-32.95
-14.91
-0.65
8.72
11.42
6.03
-7.18
-25.69
-45.42
-62.52
-75.11
-84.01
-92.03
-101.93
-114.55
-128.03
-138.38
-141.41
-134.72
-118.73
-96.41
-71.90
-48.94
-29.98
-16.00
-6.88
-1.76
0.78
2.84
6.91
15.22
28.66
45.88
63.24
75.87
79.58
72.76
57.41
38.61
22.64
14.55
16.26
26.19
40.38
54.39
64.98
70.90
72.50
70.89
67.19
62.43
57.81
54.77
54.84
58.98
66.85
76.66
85.57
90.54
89.44
81.62
68.08
51.14
33.81
19.11
9.45
6.32
10.23
20.73
36.34
54.45
71.41
83.28
87.01
81.85
69.87
55.32
42.63
34.34
29.98
26.69
21.19
11.71
-1.00
-14.72
-27.31
-38.23
-48.59
-59.86
-72.23
-83.88
-91.44
-91.64
-82.97
-66.34
-44.61
-21.21
1.13
20.85
37.29
49.73
56.87
57.08
49.62
36.06
20.80
9.97
8.81
18.94
37.12
56.39
69.23
71.04
61.95
46.05
28.54
12.73
-1.40
-16.32
-34.71
-57.26
-82.11
-105.87
-125.31
-138.55
-145.01
-144.55
-136.58
-120.10
-94.74
-62.09
-26.31
6.54
30.37
41.35
39.42
28.21
13.66
1.72
-3.63
-1.21
7.54
19.50
30.75
37.27
35.54
23.30
0.45
-30.13
-62.63
-89.54
-103.83
-101.49
-83.12
-54.34
-24.06
-1.64
6.53
-0.52
-17.72
-35.70
-44.33
-36.48
-10.69
28.74
73.87
116.48
150.61
173.58
185.13
185.95
176.82
158.76
133.95
106.19
80.21
60.03
47.39
41.13
37.94
34.09
26.78
14.73
-2.30
-24.56
-52.51
-86.51
-125.85
-168.05
-209.11
-244.66
-271.24
-287.21
-292.77
-289.15
-277.75
-259.56
-235.24
-205.60
-172.05
-136.64
-101.57
-68.61
-38.67
-11.74
12.57
34.47
53.46
68.39
78.02
81.68
79.79
73.93
66.24
58.80
53.15
50.19
50.47
54.47
62.51
74.19
87.87
100.61
108.82
109.53
101.57
85.98
65.58
43.84
23.81
7.64
-3.55
-9.39
-10.08
-6.40
0.35
8.72
17.68
27.03
37.48
49.95
64.63
80.50
95.41
107.23
114.94
119.05
121.28
123.34
125.94
128.34
128.69
124.86
115.42
100.11
80.16
58.10
37.11
20.22
9.56
5.84
8.42
15.99
27.21
41.10
56.68
72.24
84.83
90.49
85.45
67.43
36.56
-4.67
-52.11
-100.78
-145.65
-182.01
-205.81
-214.36
-206.77
-184.38
-150.51
-109.86
-67.54
-28.21
4.60
28.77
43.70
50.33
50.64
47.20
42.61
38.99
37.81
39.68
44.00
48.70
50.30
44.77
29.11
3.10
-29.77
-62.94
-88.98
-102.52
-102.44
-92.37
-79.11
-69.84
-69.21
-77.65
-91.41
-104.14
-109.27
-102.18
-81.52
-49.42
-10.68
28.48
61.77
83.96
91.81
84.70
64.74
36.38
5.40
-22.69
-43.93
-56.61
-60.89
-57.93
-48.95
-35.06
-17.75
0.44
15.78
24.18
22.86
11.92
-5.09
-22.16
-33.11
-34.29
-26.12
-13.09
-2.05
0.43
-9.65
-32.62
-65.33
-102.38
-137.62
-165.37
-181.31
-183.01
-170.36
-145.88
-114.31
-81.59
-53.17
-32.30
-19.17
-11.51
-6.07
-0.43
6.27
13.63
21.10
28.79
37.33
46.81
55.62
60.40
57.35
44.38
22.79
-2.68
-25.56
-40.36
-44.70
-39.86
-29.68
-18.47
-9.24
-3.01
0.90
3.82
6.99
11.22
16.99
24.81
35.10
47.89
62.79
78.72
94.27
108.11
119.16
126.75
130.53
130.41
126.67
120.10
112.04
103.98
97.22
92.48
90.06
90.13
92.86
98.15
105.11
111.88
116.15
116.16
111.71
104.27
96.13
88.91
82.56
75.35
64.95
49.90
30.54
8.78
-12.60
-31.07
-44.97
-53.30
-55.64
-51.87
-42.27
-27.72
-9.72
9.75
28.56
44.71
56.56
62.94
63.24
57.53
46.57
31.77
15.11
-1.09
-14.47
-23.30
-27.19
-27.58
-27.55
-30.71
-39.61
-54.31
-71.98
-87.94
-97.70
-98.93
-92.44
-81.71
-71.25
-64.85
-64.47
-70.16
-80.65
-93.73
-106.48
-115.26
-115.96
-104.99
-80.84
-45.37
-4.01
35.51
65.61
81.47
82.53
72.27
56.40
40.41
27.82
19.81
16.05
15.75
18.05
21.55
23.93
21.81
12.14
-5.96
-30.11
-55.07
-75.10
-87.07
-92.56
-97.52
-109.23
-132.06
-164.39
-198.49
-223.48
-229.90
-213.37
-175.35
-121.28
-57.41
11.13
80.12
144.43
196.79
228.63
233.22
209.30
162.81
105.28
49.73
6.08
-21.38
-33.56
-34.42
-28.28
-18.63
-8.40
-0.69
1.11
-5.77
-21.89
-44.73
-69.16
-89.31
-100.91
-102.98
-97.93
-90.09
-83.54
-80.35
-79.99
-80.19
-78.45
-73.41
-65.20
-54.80
-42.98
-29.61
-13.94
4.37
24.20
42.80
56.54
62.43
59.32
48.35
32.46
15.32
0.44
-9.37
-12.32
-7.90
2.85
17.25
31.41
41.35
44.44
40.53
32.01
22.73
16.20
14.04
15.68
19.20
22.93
26.57
31.20
38.15
47.49
57.32
64.39
65.74
60.49
50.56
39.73
31.98
29.76
33.18
40.60
49.68
58.41
65.56
70.36
72.17
70.36
64.60
55.30
43.76
31.94
21.74
14.15
8.42
2.05
-8.14
-24.42
-46.33
-69.97
-88.74
-95.40
-84.28
-52.77
-1.79
64.59
139.68
214.77
279.98
325.76
344.99
334.86
297.63
240.05
171.59
102.31
41.25
-4.53
-30.86
-37.25
-27.19
-7.65
12.89
26.98
30.46
23.21
8.19
-10.35
-28.14
-41.74
-48.49
-46.74
-36.44
-19.87
-1.77
11.80
15.45
6.58
-13.44
-39.78
-66.04
-86.68
-98.83
-102.85
-101.69
-99.47
-100.15
-106.35
-118.64
-135.14
-151.55
-161.99
-160.51
-142.92
-108.47
-60.41
-5.24
49.11
95.49
129.23
148.78
155.36
151.99
142.30
129.83
117.49
107.17
99.32
92.70
84.27
69.68
44.45
5.58
-46.87
-108.96
-173.32
-230.86
-273.18
-294.84
-294.80
-276.34
-245.98
-211.40
-179.23
-153.34
-134.05
-118.51
-102.26
-81.06
-52.64
-17.55
20.91
57.69
87.32
105.34
109.34
99.63
79.17
53.05
26.98
5.67
-8.46
-15.52
-17.38
-16.25
-13.65
-10.45
-7.56
-6.71
-10.50
-21.23
-39.48
-63.25
-88.49
-110.75
-127.09
-137.02
-142.13
-144.65
-145.92
-145.53
-141.73
-132.51
-116.93
-95.68
-70.80
-44.69
-19.23
4.75
27.09
47.58
65.49
79.43
87.99
90.45
87.13
79.23
68.35
56.08
43.81
33.09
25.67
23.32
27.00
35.91
47.20
56.65
60.25
55.96
44.70
30.13
17.19
10.38
12.41
24.03
44.46
72.04
104.52
139.05
172.10
200.05
219.82
229.85
230.48
223.66
212.24
198.99
185.94
174.16
163.93
155.12
147.57
141.16
135.47
129.31
120.48
106.19
84.37
55.40
23.09
-5.93
-24.81
-29.79
-22.25
-8.21
4.49
9.94
6.43
-3.98
-17.96
-33.70
-52.10
-75.52
-105.26
-139.38
-172.64
-198.52
-211.66
-209.71
-193.37
-165.15
-127.92
-84.35
-37.16
10.25
53.68
88.96
113.06
124.99
125.95
118.60
106.03
90.93
75.24
60.42
47.77
38.54
33.57
32.89
35.28
38.37
39.25
35.57
26.45
12.66
-3.98
-21.93
-40.90
-62.08
-87.47
-118.57
-155.31
-195.67
-236.09
-272.19
-299.46
-313.70
-311.31
-289.71
-248.39
-190.12
-121.82
-54.04
1.32
34.45
40.78
22.62
-11.77
-51.16
-85.01
-106.06
-110.91
-99.21
-72.40
-33.51
12.37
57.62
92.97
110.30
106.10
83.68
52.72
25.81
13.61
20.61
43.60
73.07
96.96
105.07
92.48
60.99
18.32
-24.31
-55.52
-67.01
-55.53
-23.52
21.87
71.03
114.56
145.58
161.11
162.01
152.01
136.07
119.01
104.49
94.62
89.92
89.07
89.16
85.91
74.54
51.14
13.78
-37.12
-99.31
-169.53
-243.95
-317.90
-385.42
-439.57
-473.75
-483.91
-470.18
-436.96
-391.19
-339.67
-286.90
-234.56
-182.39
-129.87
-77.64
-27.71
17.28
55.18
85.27
108.36
126.25
140.80
153.02
162.48
167.88
168.08
163.30
155.65
148.51
145.10
146.74
151.91
156.71
156.59
148.49
132.42
111.62
91.21
75.93
68.17
67.17
69.71
72.04
71.66
68.35
63.95
61.08
61.82
66.81
75.32
85.98
97.40
108.73
119.64
129.98
139.55
147.84
154.22
158.14
159.44
158.46
155.90
152.46
148.41
143.38
136.50
126.98
114.61
99.81
83.30
65.52
46.52
26.30
5.52
-14.26
-31.12
-43.89
-53.20
-61.43
-71.40
-84.67
-100.24
-114.67
-123.81
-124.77
-117.15
-102.84
-84.40
-63.55
-40.41
-13.86
17.07
51.99
88.60
122.89
150.20
166.40
168.83
156.90
132.17
98.17
59.87
23.01
-6.82
-25.31
-30.61
-24.10
-10.29
4.33
13.26
12.13
0.16
-19.79
-42.53
-62.71
-76.87
-84.54
-88.14
-91.81
-99.77
-114.99
-138.36
-168.64
-202.79
-236.59
-265.12
-283.32
-286.71
-272.30
-239.41
-190.08
-128.87
-62.03
3.75
62.31
108.81
139.98
154.33
152.48
137.49
114.60
90.22
69.89
56.37
48.55
42.17
32.09
15.03
-8.60
-34.75
-57.59
-72.17
-76.53
-72.33
-63.98
-56.86
-55.38
-61.67
-74.91
-91.45
-105.60
-110.87
-101.61
-74.71
-30.99
24.35
82.32
132.04
163.47
170.31
151.83
113.22
63.74
13.75
-28.52
-58.74
-76.53
-84.13
-84.70
-81.29
-76.67
-73.45
-73.97
-79.72
-90.52
-104.19
-117.08
-125.45
-126.88
-121.14
-110.05
-96.48
-83.18
-71.90
-63.00
-55.71
-48.66
-40.23
-29.02
-14.06
5.13
28.41
55.18
84.59
115.82
148.08
180.26
210.19
234.27
247.87
246.66
228.27
193.25
144.67
86.42
21.37
-49.17
-124.10
-200.28
-271.08
-327.23
-359.83
-364.05
-341.22
-298.16
-244.22
-187.67
-133.60
-83.92
-38.79
1.67
36.85
66.05
89.28
107.51
122.24
134.73
145.47
154.38
161.05
165.20
166.61
165.20
160.98
154.30
146.23
138.36
132.29
128.86
127.59
126.85
124.58
119.26
110.58
99.52
87.84
77.35
69.39
64.72
63.72
66.51
72.52
79.94
85.64
85.83
77.84
61.72
40.82
20.71
6.79
1.92
5.39
13.74
22.58
28.52
29.87
26.14
17.29
3.33
-15.32
-37.06
-58.99
-77.51
-89.53
-93.56
-89.99
-80.71
-68.25
-55.05
-42.81
-32.38
-23.70
-16.09
-8.72
-1.28
5.69
11.05
13.94
14.89
16.09
20.55
30.39
45.34
62.41
77.27
86.33
88.35
84.60
77.54
68.96
58.95
46.22
29.41
8.27
-15.98
-41.21
-65.28
-86.41
-102.86
-112.45
-112.41
-99.93
-73.33
-33.09
17.56
72.68
124.62
165.39
188.31
189.41
168.35
128.37
75.30
16.04
-42.96
-96.52
-141.05
-174.38
-195.52
-205.01
-204.98
-198.81
-190.33
-182.43
-176.11
-170.21
-162.24
-149.53
-130.90
-107.26
-81.46
-57.44
-39.21
-29.76
-30.33
-39.98
-54.79
-69.15
-76.59
-71.60
-51.41
-17.15
26.18
70.96
108.62
133.56
142.90
137.90
123.77
108.46
100.62
106.96
129.85
164.93
205.37
240.57
261.17
261.91
242.95
208.50
164.30
115.12
61.63
6.22
-52.35
-115.15
-181.86
-249.85
-313.95
-367.18
-402.31
-416.54
-405.68
-372.96
-324.60
-267.36
-205.95
-141.95
-74.93
9.49
87.23
155.82
207.53
235.77
237.53
214.01
169.52
109.77
40.97
-32.34
-98.59
-147.39
-168.31
-154.50
-106.60
-34.46
44.77
111.70
148.86
150.70
118.07
58.79
-15.31
-91.62
-158.72
-207.64
-232.76
-233.34
-209.47
-164.96
-104.76
-34.12
41.06
113.41
173.94
213.07
222.72
200.58
149.61
78.14
-2.16
-79.16
-142.31
-184.07
-200.52
-191.62
-160.24
-111.96
-53.18
10.57
75.67
140.26
202.99
261.48
311.73
348.69
368.14
368.55
352.11
323.99
290.38
256.09
222.76
189.20
152.76
111.36
64.68
13.83
-40.20
-97.78
-160.52
-229.32
-301.85
-371.35
-427.67
-460.85
-465.08
-441.19
-396.15
-340.05
-281.91
-226.48
-173.51
-119.47
-60.87
2.49
66.12
122.22
162.95
184.19
187.48
178.91
165.72
152.42
138.86
121.57
97.24
66.20
33.59
7.55
-4.47
1.07
22.52
54.05
87.74
115.52
130.12
126.06
100.89
56.68
0.88
-54.43
-95.19
-109.51
-91.85
-45.57
17.23
78.73
120.72
130.48
104.95
51.82
-13.25
-72.08
-109.61
-117.48
-94.73
-46.08
20.53
95.33
167.63
226.31
261.34
266.34
240.69
189.72
122.40
48.00
-26.58
-97.20
-160.74
-213.18
-249.21
-263.68
-253.83
-220.71
-168.75
-104.28
-33.95
35.73
98.19
146.59
174.47
177.44
155.06
111.75
56.09
-1.12
-49.39
-80.69
-90.74
-79.57
-51.04
-11.87
29.62
64.96
86.90
90.37
72.76
33.89
-24.06
-96.36
-175.59
-252.05
-315.22
-356.16
-369.92
-356.99
-322.76
-274.99
-220.79
-164.56
-108.07
-52.12
1.35
48.62
85.58
109.97
123.00
129.19
134.14
141.92
153.28
165.76
175.13
177.64
171.49
157.27
137.50
115.71
95.75
81.00
73.60
73.80
79.61
87.45
93.40
94.75
91.04
84.04
76.61
71.28
69.28
70.37
73.34
76.94
80.32
82.90
84.00
82.67
77.80
68.98
57.10
44.62
34.87
30.96
34.39
44.42
58.19
71.80
81.67
85.49
82.61
73.71
60.20
44.02
27.61
13.69
4.48
0.63
0.38
-0.10
-4.97
-16.57
-33.94
-53.21
-69.43
-79.04
-81.32
-78.11
-72.36
-66.21
-60.20
-53.80
-46.60
-39.15
-32.77
-28.43
-25.71
-22.59
-16.27
-4.58
13.03
35.42
60.30
85.10
107.49
125.26
136.18
138.14
129.71
111.04
84.19
52.37
18.73
-15.04
-48.92
-83.69
-119.47
-154.73
-186.54
-211.52
-226.84
-230.57
-221.18
-197.58
-159.84
-110.84
-57.32
-9.28
22.77
31.98
18.44
-10.13
-41.18
-62.13
-65.06
-48.94
-18.63
18.18
54.33
85.35
109.31
125.67
134.06
133.88
125.00
108.50
86.90
63.25
39.91
17.63
-4.22
-26.42
-48.44
-68.04
-81.99
-87.62
-83.99
-72.09
-54.02
-31.82
-7.19
17.94
40.42
55.72
59.23
48.56
25.30
-4.79
-33.54
-53.17
-58.81
-49.40
-27.07
3.97
38.39
70.00
91.90
97.42
82.13
45.97
-5.66
-62.89
-114.40
-151.13
-168.96
-169.37
-158.11
-142.58
-129.30
-122.13
-121.51
-124.75
-127.34
-124.74
-114.40
-97.31
-78.36
-64.77
-63.26
-76.77
-102.65
-133.25
-158.68
-170.56
-164.65
-141.17
-103.14
-53.89
4.25
69.42
138.20
203.97
257.09
287.45
288.24
259.05
206.29
140.74
73.52
12.49
-39.19
-82.01
-117.79
-147.19
-168.71
-179.35
-176.16
-157.63
-124.34
-78.68
-24.18
34.96
94.06
147.79
190.49
216.95
223.73
210.34
179.74
137.97
92.73
51.79
21.28
4.63
2.19
11.37
27.46
44.98
59.06
66.73
67.46
62.99
56.48
51.38
50.35
54.48
63.00
73.43
82.08
85.24
80.46
67.63
49.42
30.44
15.54
7.94
7.97
13.25
20.09
25.35
27.89
28.75
30.07
33.48
38.93
44.68
48.31
48.16
44.37
38.78
33.96
31.92
33.20
36.71
40.20
41.00
36.63
25.34
6.47
-19.09
-48.72
-78.30
-103.12
-119.38
-125.58
-123.05
-115.29
-106.15
-98.05
-90.99
-82.93
-71.44
-55.43
-36.11
-16.54
-0.10
11.00
16.62
18.30
18.18
17.81
17.72
17.65
17.04
15.56
12.96
8.80
2.27
-7.49
-20.78
-36.85
-53.81
-69.25
-81.17
-88.65
-91.83
-91.36
-87.49
-79.61
-66.54
-47.67
-24.03
1.32
24.12
40.47
48.40
48.46
43.04
34.96
26.09
16.92
7.09
-3.57
-14.35
-23.80
-30.61
-34.64
-37.24
-40.53
-46.00
-53.21
-59.34
-60.23
-52.35
-34.60
-9.17
19.34
45.80
66.59
80.53
88.46
92.00
92.37
90.11
85.62
79.70
73.43
67.27
60.23
49.77
33.15
9.42
-19.13
-47.24
-68.67
-78.90
-77.10
-66.32
-51.87
-39.08
-31.39
-29.76
-33.21
-39.76
-46.97
-52.28
-53.03
-46.97
-33.05
-12.16
12.79
37.80
59.27
75.42
86.68
94.66
100.23
101.89
95.65
76.99
44.13
0.75
-43.82
-77.79
-92.00
-84.51
-61.63
-34.86
-15.36
-9.25
-16.25
-32.09
-52.20
-74.01
-96.47
-117.62
-132.88
-135.99
-122.31
-92.26
-52.44
-13.18
16.09
30.95
33.27
29.25
25.51
25.81
29.89
34.59
36.10
32.04
22.34
8.83
-5.95
-19.84
-31.58
-40.64
-46.60
-48.66
-45.72
-37.02
-23.10
-6.42
8.97
18.61
19.42
11.07
-3.73
-20.27
-33.72
-40.84
-40.90
-35.35
-26.63
-17.14
-8.50
-1.56
3.24
5.56
5.21
2.43
-1.97
-6.68
-10.23
-11.58
-10.30
-6.62
-1.21
5.05
11.26
16.56
20.14
21.39
20.04
16.34
11.07
5.32
-0.16
-5.50
-11.64
-19.53
-29.06
-38.04
-42.25
-36.83
-17.95
15.88
63.70
122.85
189.73
259.76
326.87
383.44
421.32
434.22
420.34
383.20
330.31
269.97
208.22
147.75
89.20
33.50
-16.53
-56.54
-82.63
-93.72
-92.31
-83.43
-72.39
-62.77
-55.84
-51.09
-47.97
-46.93
-49.35
-56.46
-67.96
-81.39
-92.86
-98.86
-97.93
-91.45
-82.87
-75.74
-71.93
-70.81
-70.00
-66.94
-60.38
-50.74
-39.49
-28.23
-18.12
-10.17
-5.84
-7.18
-16.05
-33.01
-56.22
-81.59
-103.87
-118.39
-122.53
-116.37
-102.32
-84.07
-65.41
-49.32
-37.50
-30.32
-27.08
-26.16
-25.29
-21.84
-13.49
0.83
19.97
40.24
56.29
63.04
58.01
42.67
22.18
3.35
-8.08
-9.67
-2.72
8.75
19.81
26.12
24.73
14.13
-5.75
-33.22
-64.43
-93.48
-113.34
-117.83
-103.90
-73.01
-31.06
13.38
51.83
78.52
91.81
93.78
88.68
80.68
72.30
64.00
54.98
44.46
32.56
20.21
8.35
-3.06
-15.16
-29.38
-46.05
-63.43
-78.00
-86.02
-85.48
-77.25
-64.80
-52.53
-43.87
-40.21
-40.85
-44.06
-48.16
-52.16
-55.68
-58.58
