1562805508.00
64.000000
-0.00
-0.00
-0.00
-0.00
-0.00
-0.00
-0.00
-0.00
-0.00
-0.00
0.00
0.01
0.01
-0.00
-0.03
-0.05
-0.05
0.00
0.13
0.36
0.66
1.01
1.37
1.72
2.06
2.40
2.79
3.24
3.80
4.42
5.06
5.66
6.20
6.68
7.15
7.68
8.31
9.14
10.09
11.04
11.88
12.56
13.14
13.76
14.65
15.96
17.91
20.32
22.90
25.38
27.58
29.57
31.68
34.32
37.81
42.54
48.15
54.10
59.83
64.97
69.58
74.14
79.34
85.71
93.76
103.00
112.62
121.73
129.77
136.75
143.30
150.75
157.77
166.64
177.95
191.79
206.97
220.57
228.25
225.36
208.53
176.87
132.76
80.05
23.07
-34.94
-92.44
-149.16
-205.23
-260.37
-313.74
-363.87
-409.83
-450.91
-486.50
-515.74
-537.23
-549.22
-549.96
-538.37
-514.21
-478.67
-433.88
-382.45
-327.02
-269.84
-212.63
-156.66
-102.95
-52.37
-5.90
35.58
71.43
101.35
125.50
144.38
158.69
169.15
176.37
180.75
182.57
182.07
179.51
175.23
169.65
163.18
156.15
148.81
141.30
133.69
126.02
118.33
110.69
103.16
95.80
88.68
81.83
75.25
68.95
62.95
57.25
51.86
46.78
42.03
37.59
33.45
29.61
26.07
22.81
19.83
17.11
14.67
12.48
10.54
8.83
7.35
6.07
4.97
4.05
3.27
2.62
2.09
1.65
1.30
1.01
0.79
0.61
0.47
0.37
0.28
0.22
0.18
0.15
0.12
0.11
0.11
0.12
0.13
0.15
0.17
0.21
0.24
0.28
0.32
0.36
0.41
0.45
0.50
0.55
0.60
0.65
0.70
0.76
0.83
0.92
1.01
1.11
1.20
1.26
1.30
1.32
1.37
1.45
1.59
1.79
2.04
2.30
2.55
2.79
3.02
3.28
3.60
4.00
4.47
4.98
5.50
5.96
6.38
6.79
7.24
7.82
8.57
9.47
10.41
11.29
11.98
12.48
12.85
13.30
13.98
14.99
16.25
17.49
18.32
18.38
17.51
15.71
13.25
10.42
7.40
4.16
0.43
-4.12
-9.71
-16.21
-23.17
-29.85
-35.58
-39.92
-42.85
-44.70
-45.97
-47.15
-48.69
-50.96
-54.16
-58.01
-61.50
-62.81
-59.91
-51.50
-37.78
-20.77
-3.61
10.54
19.75
23.81
23.90
21.74
18.72
15.62
12.86
10.90
10.45
12.18
16.21
21.83
27.62
31.98
33.73
32.65
29.43
25.37
21.83
19.72
19.26
19.99
21.03
21.45
20.67
18.65
15.81
12.88
10.48
8.89
8.01
7.53
7.18
6.88
6.74
6.96
7.56
8.36
8.99
9.03
8.15
6.32
3.79
0.98
-1.69
-3.93
-5.67
-7.03
-8.22
-9.39
-10.59
-11.84
-13.17
-14.68
-16.57
-18.99
-21.94
-25.36
-29.17
-33.37
-38.06
-43.20
-48.37
-52.66
-54.80
-53.52
-48.12
-38.73
-26.41
-12.76
0.52
12.06
21.17
27.74
32.07
34.62
35.79
35.91
35.19
33.85
32.08
30.13
28.18
26.39
24.98
24.21
24.41
25.77
28.23
31.30
34.21
36.17
36.78
36.11
34.64
32.90
31.21
29.51
27.55
25.12
22.27
19.29
16.49
13.92
11.34
8.29
4.38
-0.54
-6.34
-12.77
-19.67
-27.04
-35.01
-43.59
-52.61
-61.65
-70.22
-77.98
-84.83
-90.88
-96.07
-100.03
-101.90
-100.51
-94.85
-84.53
-70.12
-53.18
-35.77
-19.89
-6.90
2.77
9.51
14.07
17.20
19.34
20.68
21.41
21.90
22.74
24.49
27.36
31.07
34.91
38.16
40.39
41.61
42.12
42.16
41.76
40.63
38.55
35.52
31.87
28.06
24.39
20.76
16.78
12.08
6.59
0.64
-5.12
-10.09
-14.00
-16.92
-19.28
-21.53
-24.12
-27.34
-31.44
-36.49
-42.34
-48.44
-53.77
-57.09
-57.33
-54.08
-47.74
-39.45
-30.59
-22.21
-14.75
-8.06
-1.70
4.62
10.75
16.18
20.21
22.41
22.71
21.55
19.65
17.70
16.15
15.05
14.09
12.86
11.16
9.29
8.05
8.69
12.50
20.49
33.02
49.45
67.82
84.92
97.02
100.96
95.53
82.17
64.56
47.27
34.03
26.60
24.72
27.09
32.62
41.10
52.79
67.57
84.13
100.02
112.59
120.12
122.58
121.40
118.65
116.11
114.73
114.63
115.54
117.14
119.29
121.86
124.63
127.30
129.62
131.44
132.77
133.53
133.35
131.63
127.64
120.99
111.93
101.39
90.72
81.22
73.63
67.94
63.47
59.15
53.90
46.99
38.15
27.61
15.93
3.85
-7.96
-19.15
-29.74
-40.16
-51.02
-62.79
-75.42
-88.32
-100.45
-110.81
-118.76
-124.39
-128.40
-131.70
-134.93
-138.03
-140.14
-139.94
-136.17
-128.20
-116.35
-101.81
-86.21
-71.07
-57.33
-45.37
-35.05
-26.18
-18.64
-12.45
-7.52
-3.56
-0.12
3.21
6.55
9.66
12.14
13.82
15.05
16.62
19.38
23.54
28.49
32.79
34.82
33.47
28.59
20.99
11.98
2.82
-5.72
-13.43
-20.45
-26.94
-32.88
-37.97
-41.93
-44.68
-46.62
-48.56
-51.48
-56.05
-62.36
-69.83
-77.37
-83.89
-88.59
-91.12
-91.43
-89.60
-85.64
-79.56
-71.47
-61.86
-51.56
-41.61
-32.97
-26.21
-21.54
-18.77
-17.74
-18.38
-20.80
-24.94
-30.36
-36.03
-40.59
-42.87
-42.37
-39.50
-35.26
-30.74
-26.54
-22.60
-18.46
-13.80
-8.77
-4.16
-0.96
0.15
-0.87
-3.41
-6.52
-9.74
-12.91
-16.09
-19.34
-22.70
-26.05
-29.06
-31.31
-32.45
-32.86
-33.14
-33.91
-35.50
-37.97
-41.19
-44.81
-48.28
-50.99
-53.19
-54.87
-55.53
-54.20
-50.21
-43.64
-35.31
-26.36
-17.91
-13.09
-13.66
-19.12
-26.98
-34.72
-41.13
-46.28
-50.73
-55.01
-64.13
-81.00
-104.59
-130.26
-153.34
-171.54
-184.75
-193.87
-199.86
-211.22
-233.46
-266.22
-302.97
-336.34
-361.93
-378.21
-385.48
-385.16
-389.64
-408.41
-444.18
-490.93
-539.98
-584.63
-620.82
-646.56
-598.67
-448.38
-217.61
30.73
241.82
394.42
493.32
553.11
588.01
608.13
608.14
585.48
540.65
481.14
415.58
349.41
284.85
222.92
165.01
104.62
54.54
26.61
27.22
50.77
83.43
112.28
131.33
141.86
143.77
138.66
127.14
111.78
95.57
82.08
73.84
71.76
75.64
81.61
86.50
87.42
84.91
81.98
82.89
91.71
107.32
127.48
147.13
161.02
164.38
155.94
138.04
115.53
93.37
74.65
60.15
48.31
36.76
23.21
7.07
-10.60
-27.74
-42.52
-53.97
-61.54
-65.28
-65.37
-62.20
-56.25
-48.26
-39.20
-30.21
-22.32
-15.87
-10.74
-6.35
-1.95
3.00
8.62
14.43
19.61
23.31
25.16
25.38
24.71
24.05
24.08
24.96
26.33
27.56
28.07
27.58
26.16
23.98
21.33
18.43
15.51
12.74
10.19
7.82
5.35
2.44
-1.23
-5.82
-11.29
-17.38
-23.75
-29.99
-35.73
-40.75
-45.09
-49.13
-53.51
-58.94
-65.84
-74.07
-82.75
-90.38
-95.19
-95.60
-90.63
-80.26
-65.41
-47.78
-29.37
-11.96
3.30
16.00
26.41
35.10
42.56
49.00
54.31
58.19
60.31
60.56
59.09
56.32
52.86
49.41
46.61
44.95
44.61
45.45
47.03
48.65
49.58
49.22
47.30
43.86
39.26
34.02
28.65
23.49
18.68
14.12
9.66
5.15
0.47
-4.55
-10.20
-16.78
-24.65
-33.93
-44.36
-55.23
-65.45
-73.71
-78.80
-79.89
-76.65
-69.29
-58.46
-45.08
-30.27
-15.10
-0.60
12.40
23.36
32.09
38.75
43.73
47.47
50.30
52.30
53.47
53.80
53.37
52.39
51.10
49.73
48.46
47.44
46.82
46.67
46.95
47.33
47.38
46.65
44.97
42.51
39.70
37.00
34.67
32.66
30.73
28.60
26.15
23.43
20.60
17.74
14.83
11.73
8.21
4.08
-0.91
-7.04
-14.56
-23.57
-33.73
-44.12
-53.24
-59.36
-61.05
-57.64
-49.47
-37.74
-24.06
-9.91
3.59
15.78
26.38
35.30
42.63
48.59
53.53
57.81
61.61
64.82
67.08
67.98
67.32
65.30
62.48
59.60
57.36
56.13
55.99
56.77
58.13
59.62
60.75
61.05
60.17
58.03
54.87
51.19
47.59
44.52
42.13
40.23
38.35
35.99
32.78
28.52
23.25
17.16
10.65
4.14
-1.99
-7.54
-12.59
-17.53
-22.93
-29.33
-37.02
-45.78
-54.83
-62.95
-68.69
-70.78
-68.38
-61.35
-50.20
-36.02
-20.20
-4.23
10.64
23.49
33.88
41.84
47.69
51.99
55.30
58.16
61.01
64.13
67.48
70.64
72.89
73.42
71.84
68.45
64.28
60.71
58.78
58.64
59.43
59.63
57.84
53.51
47.08
39.79
32.89
27.03
21.97
16.92
11.04
4.03
-3.76
-11.52
-18.41
-23.85
-27.68
-30.01
-31.09
-31.30
-31.10
-31.01
-31.53
-32.95
-35.10
-37.44
-39.15
-39.44
-37.70
-33.55
-26.65
-16.59
-3.08
13.80
33.14
52.98
70.65
83.41
89.41
88.25
81.08
70.09
57.71
45.72
35.01
25.67
17.34
9.77
2.92
-2.96
-7.60
-10.97
-13.46
-15.95
-19.58
-25.40
-33.91
-44.84
-57.07
-69.09
-79.60
-87.94
-94.25
-99.07
-102.83
-105.47
-106.55
-105.63
-102.83
-98.99
-95.45
-93.39
-93.40
-95.25
-98.21
-101.50
-104.69
-107.81
-111.13
-114.75
-118.36
-121.07
-121.62
-118.69
-111.38
-99.55
-84.02
-66.29
-48.07
-30.80
-15.18
-1.25
11.32
22.87
33.48
42.99
51.11
57.58
62.11
64.35
63.90
60.55
54.46
46.36
37.34
28.53
20.61
13.53
6.62
-1.01
-9.98
-20.22
-30.99
-41.27
-50.28
-57.91
-64.79
-71.97
-80.34
-90.19
-101.02
-111.77
-121.16
-127.99
-131.34
-130.60
-125.51
-116.31
-103.81
-89.38
-74.55
-60.59
-48.12
-36.86
-25.93
-14.22
-0.94
14.04
30.16
46.29
61.28
74.38
85.51
95.15
103.91
112.15
119.79
126.48
132.01
136.56
140.54
144.28
147.51
149.39
148.84
145.12
138.35
129.36
119.42
109.58
100.33
91.56
82.85
73.81
64.23
54.23
44.13
34.29
25.05
16.52
8.66
1.21
-6.16
-13.73
-21.59
-29.59
-37.36
-44.42
-50.36
-54.99
-58.46
-61.17
-63.64
-66.28
-69.26
-72.34
-75.00
-76.49
-76.03
-72.92
-66.73
-57.45
-45.56
-32.02
-18.11
-5.14
5.94
14.58
20.78
24.88
27.40
28.85
29.60
29.87
29.72
29.21
28.42
27.61
27.11
27.28
28.26
29.92
31.89
33.59
34.46
33.91
31.41
26.56
19.24
9.87
-0.61
-10.96
-20.11
-27.55
-33.51
-38.69
-43.75
-48.99
-54.22
-59.03
-63.03
-66.16
-68.57
-70.48
-72.10
-73.57
-75.20
-77.46
-80.95
-86.01
-92.49
-99.62
-106.14
-110.74
-112.36
-110.51
-105.23
-97.11
-87.19
-76.67
-66.73
-58.12
-50.86
-44.17
-36.81
-27.61
-16.23
-3.40
9.32
20.41
29.16
36.02
42.27
49.05
56.55
63.86
69.35
71.69
70.47
66.39
60.75
54.85
49.56
45.31
42.25
40.50
39.99
40.08
39.60
36.93
30.77
20.79
7.96
-5.73
-17.94
-26.73
-31.04
-30.78
-26.59
-19.62
-11.21
-2.86
3.87
7.46
6.73
1.14
-8.94
-22.15
-36.34
-48.96
-57.82
-61.53
-59.95
-54.03
-45.49
-36.22
-27.80
-21.24
-16.86
-14.49
-13.53
-13.03
-11.85
-8.91
-3.35
5.04
15.70
27.36
38.35
47.10
52.66
54.98
54.89
53.80
53.03
53.37
54.72
56.20
56.54
54.68
50.27
43.72
36.08
28.54
21.91
16.38
11.58
6.87
1.75
-3.86
-9.71
-15.28
-20.11
-23.88
-26.38
-27.47
-27.05
-25.20
-22.27
-19.03
-16.42
-15.30
-16.03
-18.24
-20.88
-22.65
-22.48
-19.92
-15.20
-8.96
-1.90
5.56
13.35
21.48
29.83
37.94
45.15
50.88
54.99
57.77
59.81
61.64
63.46
65.14
66.42
67.12
67.23
66.95
66.47
65.82
64.93
63.68
62.16
60.61
59.36
58.59
58.18
57.64
56.34
53.82
49.87
44.59
38.18
30.76
22.21
12.31
0.98
-11.45
-24.12
-35.75
-44.99
-50.81
-52.78
-51.12
-46.53
-39.96
-32.30
-24.25
-16.36
-9.06
-2.82
1.90
4.76
5.71
5.09
3.49
1.53
-0.38
-2.16
-3.93
-5.91
-8.10
-10.37
-12.51
-14.37
-15.94
-17.39
-18.86
-20.39
-21.89
-23.20
-24.17
-24.74
-24.95
-24.92
-24.79
-24.70
-24.77
-25.19
-26.26
-28.33
-31.73
-36.52
-42.38
-48.53
-53.92
-57.42
-58.18
-55.82
-50.51
-42.77
-33.33
-23.03
-12.65
-2.84
5.91
13.39
19.69
25.02
29.62
33.58
36.79
39.04
40.21
40.37
39.83
39.09
38.67
39.06
40.57
43.32
47.21
51.83
56.54
60.60
63.40
64.66
64.49
63.27
61.48
59.41
57.13
54.44
51.05
46.66
41.05
34.11
25.92
16.77
7.33
-1.47
-8.62
-13.31
-15.21
-14.68
-12.71
-10.67
-9.82
-10.82
-13.39
-16.44
-18.51
-18.58
-16.68
-14.03
-12.73
-14.86
-21.51
-32.19
-44.82
-56.40
-64.16
-66.61
-64.10
-58.61
-52.98
-49.72
-50.20
-54.27
-60.61
-67.50
-73.63
-78.42
-82.03
-84.93
-87.44
-89.55
-90.94
-91.23
-90.25
-87.99
-84.51
-79.69
-73.22
-64.67
-53.85
-41.02
-26.75
-11.76
3.71
20.06
38.26
59.48
84.48
113.29
145.05
178.39
211.64
243.15
271.53
295.85
315.83
332.04
345.68
357.92
369.15
378.45
383.98
383.93
377.62
365.99
351.15
335.35
320.03
305.58
291.76
278.47
266.10
255.21
246.03
238.04
230.35
222.18
213.47
204.79
196.81
189.62
182.51
174.36
164.32
152.29
139.03
125.84
113.91
103.83
95.47
88.10
80.80
72.81
63.79
53.76
43.04
31.91
20.53
8.91
-2.86
-14.55
-25.71
-35.83
-44.64
-52.24
-59.10
-65.85
-72.98
-80.55
-88.22
-95.31
-101.29
-105.99
-109.81
-113.63
-118.42
-124.88
-133.08
-142.43
-151.97
-160.68
-168.08
-174.38
-180.36
-187.10
-195.44
-205.57
-216.89
-228.20
-237.84
-244.12
-245.71
-241.85
-232.66
-219.27
-203.78
-188.53
-175.04
-163.14
-150.80
-135.17
-114.27
-88.49
-60.95
-36.47
-19.49
-12.37
-14.81
-24.56
-38.79
-55.18
-72.36
-89.45
-105.54
-119.38
-129.68
-135.66
-137.31
-135.31
-130.85
-125.34
-120.11
-116.33
-114.90
-116.14
-119.44
-123.15
-124.85
-122.04
-113.28
-99.04
-82.15
-67.10
-58.52
-59.27
-69.20
-85.11
-101.80
-113.88
-117.31
-110.17
-92.76
-67.11
-36.58
-5.57
20.97
38.39
43.46
35.55
17.13
-6.68
-29.63
-46.20
-53.36
-51.24
-42.58
-31.65
-22.84
-19.83
-25.31
-40.61
-65.06
-95.02
-123.47
-140.90
-138.05
-109.46
-56.28
13.67
88.74
157.90
214.23
255.87
284.18
300.76
305.46
296.73
273.73
238.38
195.85
152.85
114.77
83.49
56.90
30.75
1.27
-32.49
-68.17
-101.26
-127.33
-143.84
-151.02
-151.11
-146.99
-140.94
-134.36
-128.45
-124.83
-125.70
-132.67
-145.53
-161.45
-175.53
-182.80
-180.20
-167.68
-147.72
-123.86
-99.35
-76.77
-58.81
-49.01
-51.58
-69.76
-103.40
-147.34
-191.91
-225.75
-239.67
-229.76
-198.16
-151.47
-97.64
-43.45
6.61
49.73
83.42
104.98
112.00
103.81
82.52
52.87
21.00
-7.32
-27.66
-37.43
-35.41
-21.71
2.12
32.96
66.57
98.85
127.22
151.27
172.10
190.46
204.28
209.62
202.11
178.92
139.98
88.48
30.79
-24.99
-70.76
-101.20
-113.68
-108.01
-86.05
-51.09
-7.11
42.25
93.95
145.38
191.88
229.62
256.99
274.23
282.11
281.05
271.44
253.93
229.82
194.89
147.69
92.16
36.00
-14.27
-55.66
-88.18
-113.68
-134.91
-167.27
-220.82
-293.53
-373.70
-448.90
-510.87
-554.90
-578.61
-582.35
-589.19
-616.62
-665.40
-722.46
-774.64
-815.93
-846.09
-867.31
-883.38
-924.35
-1009.42
-1133.62
-1272.87
-1403.30
-1511.79
-1594.84
-1654.71
-1536.20
-1181.82
-666.50
-142.20
281.74
578.60
770.82
892.27
971.16
1025.42
1040.66
1009.81
946.53
878.64
827.48
798.41
782.41
772.66
762.99
731.59
668.93
585.11
502.74
439.86
403.14
390.71
398.48
421.77
443.82
451.98
443.05
421.80
389.85
348.40
301.16
256.11
222.01
198.97
183.70
172.15
160.51
143.84
117.12
76.76
21.98
-45.38
-122.35
-202.17
-274.55
-328.65
-357.57
-360.04
-340.40
-306.03
-264.76
-222.75
-183.72
-149.64
-121.31
-99.06
-82.15
-68.75
-56.19
-41.66
-22.81
1.71
31.81
65.27
97.18
120.62
128.35
115.57
82.50
35.04
-17.11
-63.94
-98.79
-119.82
-128.95
-129.53
-124.05
-113.44
-97.99
-78.80
-58.41
-40.21
-26.98
-19.68
-17.18
-17.11
-16.84
-14.66
-10.28
-4.62
0.72
4.36
5.81
5.69
5.45
6.91
11.40
19.38
30.38
43.27
56.75
69.94
82.56
95.01
108.15
122.75
139.24
157.44
176.56
195.58
213.63
230.33
245.90
261.09
276.78
293.74
312.49
333.45
356.92
382.80
410.19
437.14
460.78
478.04
486.52
485.15
474.06
454.18
426.63
392.47
352.90
309.68
265.23
222.34
183.52
150.41
123.48
102.27
85.51
71.43
57.94
43.13
25.87
6.19
-14.59
-34.45
-51.37
-63.97
-71.60
-74.00
-70.95
-62.48
-49.31
-33.58
-18.84
-9.19
-7.82
-15.29
-28.84
-43.12
-52.03
-51.25
-39.99
-21.36
-1.13
14.68
22.13
20.56
12.29
1.11
-9.59
-18.05
-24.17
-28.50
-31.18
-31.48
-28.41
-21.72
-12.74
-4.33
0.03
-2.41
-12.67
-29.74
-51.07
-73.69
-95.19
-114.12
-129.93
-142.38
-150.92
-154.74
-153.01
-145.33
-131.95
-113.68
-91.57
-66.71
-40.19
-13.38
12.04
34.18
51.54
63.39
69.96
72.11
70.80
66.74
60.45
52.51
43.72
35.03
27.29
21.05
16.51
13.57
11.82
10.60
9.06
6.54
2.98
-0.96
-4.09
-5.26
-3.99
-0.77
3.08
5.86
5.87
1.78
-7.07
-20.30
-36.37
-52.50
-65.52
-73.18
-75.37
-74.39
-74.11
-78.31
-88.91
-105.18
-123.92
-140.79
-151.80
-154.47
-148.39
-135.11
-117.46
-98.80
-82.16
-69.44
-61.20
-56.73
-54.56
-52.99
-50.47
-45.80
-38.20
-27.51
-14.46
-0.68
11.70
20.99
26.37
28.26
28.04
27.32
27.40
29.03
32.32
36.90
41.95
46.33
48.81
48.40
44.81
38.64
31.25
24.29
19.18
16.60
16.26
16.93
16.91
14.64
9.56
2.46
-4.67
-9.58
-10.86
-8.65
-4.62
-1.22
-0.82
-4.83
-13.45
-25.53
-38.78
-50.12
-56.30
-54.79
-44.52
-26.39
-3.04
21.97
45.08
63.38
74.99
79.14
76.30
68.26
57.96
48.85
43.92
44.60
50.18
58.09
64.89
67.59
64.72
56.75
45.69
34.16
24.39
17.62
13.97
12.88
13.51
15.04
16.59
17.20
15.76
11.42
3.98
-5.72
-16.12
-25.49
-32.84
-38.45
-43.84
-51.00
-61.41
-75.17
-90.73
-105.24
-115.44
-118.64
-113.63
-100.91
-82.50
-61.16
-39.59
-19.91
-3.33
9.69
19.32
26.05
30.59
33.59
35.72
37.57
39.72
42.62
46.44
50.82
54.89
57.53
57.85
55.62
51.34
45.95
40.39
35.34
31.17
28.07
26.02
24.68
23.36
21.20
17.58
12.54
6.64
0.45
-5.78
-12.26
-19.08
-25.60
-30.54
-32.67
-31.68
-28.56
-25.07
-22.88
-22.68
-24.49
-28.18
-34.26
-43.62
-56.52
-71.53
-85.47
-94.64
-96.75
-92.46
-85.19
-79.54
-79.02
-84.75
-95.42
-108.40
-120.84
-130.19
-134.11
-130.51
-118.19
-97.66
-71.81
-45.26
-22.86
-7.92
-1.25
-1.39
-5.79
-11.82
-17.35
-20.80
-21.00
-17.45
-10.62
-2.15
5.70
10.94
12.71
11.58
9.09
6.86
5.86
6.11
6.83
6.97
5.67
2.59
-2.10
-7.82
-13.69
-18.66
-21.57
-21.48
-17.94
-11.36
-3.08
4.99
10.93
13.49
12.27
7.74
1.15
-5.55
-9.78
-8.66
0.20
17.79
43.04
72.88
103.12
129.58
149.17
160.37
163.28
159.27
150.48
139.12
127.07
115.52
105.22
96.81
90.99
88.22
87.93
87.98
85.11
76.44
61.31
42.22
24.08
12.13
9.47
15.67
27.01
38.30
45.15
45.51
39.82
29.96
17.90
4.87
-8.52
-21.75
-33.93
-44.06
-51.72
-57.52
-63.05
-70.06
-79.55
-91.46
-104.85
-118.69
-132.47
-146.33
-160.51
-174.65
-187.34
-196.01
-197.51
-188.81
-168.22
-136.17
-95.63
-51.57
-9.61
25.56
51.32
67.20
74.25
74.07
68.35
59.04
48.51
39.43
34.05
33.48
37.28
43.92
51.44
58.15
62.90
65.06
64.32
60.78
54.81
47.01
37.96
28.10
17.86
7.86
-0.98
-7.59
-11.32
-12.59
-13.17
-15.83
-23.41
-37.49
-57.50
-80.65
-103.04
-121.38
-134.57
-144.21
-153.50
-165.20
-179.94
-195.77
-209.31
-217.59
-219.16
-214.10
-203.07
-186.43
-164.43
-137.98
-109.40
-82.32
-60.54
-46.50
-40.39
-40.28
-43.00
-45.22
-44.31
-38.56
-27.26
-10.74
9.82
32.58
55.57
77.27
96.83
114.03
128.89
141.16
150.09
154.62
153.77
147.24
135.85
121.75
108.04
98.04
94.15
96.67
103.23
108.65
106.13
89.33
55.03
5.31
-51.97
-104.96
-141.87
-155.40
-145.79
-120.75
-92.89
-75.37
-77.76
-103.43
-148.95
-205.50
-261.53
-305.90
-330.53
-332.07
-311.83
-274.46
-225.95
-171.98
-116.90
-63.95
-15.50
27.16
64.18
97.79
132.46
173.90
227.02
293.40
369.28
445.56
509.69
549.82
558.99
537.58
492.92
435.78
376.06
319.35
266.38
214.90
162.45
108.09
52.02
-5.52
-64.97
-126.19
-186.75
-240.59
-279.04
-293.97
-281.09
-241.70
-181.72
-108.77
-29.68
50.21
125.82
191.01
238.54
262.03
258.70
230.92
185.27
129.69
70.49
11.44
-45.30
-97.54
-141.96
-174.71
-193.31
-198.12
-192.67
-182.33
-171.90
-163.53
-155.73
-143.87
-122.54
-88.38
-42.29
9.91
58.98
95.31
112.07
107.00
82.25
42.51
-7.31
-63.17
-121.84
-180.14
-234.49
-281.23
-317.48
-341.56
-353.12
-352.57
-340.52
-317.76
-285.49
-245.39
-199.51
-149.88
-98.25
-46.26
4.32
51.32
92.26
124.55
145.96
154.90
150.83
134.38
107.42
72.92
34.73
-2.97
-36.42
-62.94
-81.23
-91.18
-93.28
-87.95
-75.16
-54.28
-24.33
15.58
65.27
122.37
181.69
235.38
274.69
292.57
286.48
260.03
222.45
185.86
160.98
153.45
162.02
179.58
196.14
202.28
191.81
162.73
116.83
58.66
-5.43
-68.08
-121.77
-160.15
-179.40
-179.74
-165.42
-143.46
-121.25
-104.07
-93.68
-88.51
-85.20
-80.42
-71.98
-59.09
-41.89
-21.23
1.39
23.75
43.26
57.82
66.58
70.02
69.17
64.47
55.17
39.88
18.13
-8.23
-34.71
-55.59
-66.51
-66.36
-57.60
-44.52
-30.47
-16.34
-0.87
17.65
39.61
63.54
87.19
109.05
129.02
147.51
163.80
175.01
176.72
165.37
140.55
105.93
67.99
33.35
6.31
-12.05
-23.40
-30.78
-37.55
-46.83
-61.16
-81.95
-108.62
-137.86
-163.97
-180.34
-181.76
-166.44
-136.80
-98.39
-57.78
-20.19
11.70
37.52
58.09
74.11
85.62
92.26
93.97
91.56
86.87
82.56
81.47
86.11
98.06
117.28
141.62
166.78
187.00
196.34
190.42
167.92
131.48
87.46
44.78
12.68
-1.95
2.97
23.53
50.67
72.92
80.13
66.78
33.38
-14.18
-66.89
-115.38
-152.36
-174.14
-181.18
-177.68
-170.16
-165.18
-166.83
-174.69
-183.80
-186.49
-175.90
-149.02
-108.09
-59.67
-12.27
26.56
52.17
63.57
62.95
54.76
44.29
36.41
34.34
38.82
48.01
58.22
65.16
65.54
58.21
44.51
27.80
12.20
1.27
-3.30
-2.18
1.89
5.22
4.56
-1.72
-13.35
-28.46
-44.39
-58.61
-69.38
-76.02
-78.72
-78.20
-75.19
-70.16
-63.38
-55.08
-45.54
-35.02
-23.54
-10.89
3.07
17.89
32.40
44.99
54.23
59.44
60.89
59.58
56.73
53.45
50.45
48.13
46.71
46.41
47.76
51.81
60.11
73.98
93.55
116.90
139.88
157.13
164.02
158.52
141.97
118.52
93.39
71.12
54.49
44.27
39.94
40.28
44.16
50.78
59.80
71.03
83.92
96.89
107.09
110.75
104.32
85.97
56.73
20.54
-17.11
-51.10
-78.30
-97.89
-110.33
-115.76
-113.12
-100.67
-77.71
-46.26
-11.61
19.01
38.76
43.48
32.71
9.17
-22.42
-56.68
-88.17
-111.90
-123.91
-122.29
-108.00
-85.11
-59.72
-37.91
-23.71
-17.71
-17.39
-18.61
-17.46
-11.61
-0.75
13.86
30.06
45.27
56.81
62.33
60.23
50.20
33.52
12.91
-8.05
-25.86
-38.02
-43.73
-44.15
-41.88
-39.96
-40.53
-43.86
-48.31
-51.24
-50.48
-45.61
-38.22
-31.25
-27.53
-28.74
-35.00
-45.35
-58.51
-73.35
-88.92
-104.21
-118.00
-129.09
-136.86
-141.46
-143.72
-144.55
-144.30
-142.56
-138.34
-130.88
-120.11
-107.28
-94.48
-83.47
-74.58
-66.14
-55.18
-39.43
-19.23
1.83
18.43
26.17
23.79
13.69
0.47
-11.24
-17.91
-16.88
-5.26
20.31
61.98
117.70
179.36
233.59
265.90
266.45
234.26
177.78
111.42
49.71
1.98
-30.12
-50.99
-67.39
-83.84
-99.92
-110.73
-109.69
-91.94
-56.54
-6.44
53.09
116.19
177.53
231.85
273.56
297.05
298.05
275.44
232.14
174.43
109.44
42.91
-21.87
-83.36
-139.72
-187.42
-221.30
-236.24
-229.38
-201.29
-155.69
-98.08
-34.10
31.19
92.83
145.14
181.63
196.41
186.74
155.34
111.06
67.23
37.99
33.72
57.59
104.17
161.23
213.69
248.43
258.09
242.25
206.13
157.34
102.80
47.21
-7.20
-59.45
-108.86
-154.78
-197.20
-237.67
-279.59
-327.52
-385.34
-453.89
-529.28
-602.87
-663.34
-700.45
-708.88
-690.14
-651.80
-604.16
-556.18
-512.64
-473.94
-437.85
-402.17
-366.48
-332.07
-300.75
-273.38
-249.27
-226.63
-203.68
-179.61
-154.87
-130.97
-109.49
-91.41
-76.67
-64.28
-52.85
-41.18
-28.68
-15.54
-2.42
9.89
20.86
30.41
38.85
46.78
54.82
63.42
72.82
82.94
93.46
103.88
113.68
122.46
130.18
137.25
144.38
152.45
162.06
173.34
185.75
198.46
210.57
221.59
231.61
241.26
251.54
263.65
278.94
298.57
322.84
350.29
377.10
397.54
405.45
396.47
369.89
329.19
280.86
232.00
188.12
152.10
124.76
106.17
96.73
97.04
106.82
123.85
143.95
162.24
174.94
180.62
180.04
175.06
167.20
157.04
144.61
130.23
115.12
101.02
89.35
80.71
74.86
71.27
69.69
70.17
72.56
76.10
79.35
80.85
79.91
77.06
73.70
71.20
70.00
69.27
67.31
62.44
53.85
42.08
28.99
17.18
9.12
6.38
9.12
16.01
24.81
33.06
38.82
40.79
38.33
31.26
19.87
5.29
-10.55
-25.21
-36.49
-43.26
-45.61
-44.32
-39.73
-31.21
-17.55
1.78
25.35
49.65
70.37
84.19
90.23
89.97
86.06
80.76
75.29
70.13
65.60
62.25
60.56
60.46
61.10
61.16
59.43
55.25
48.67
40.37
31.53
23.73
18.75
18.18
22.72
31.73
43.33
54.80
63.33
66.40
62.03
48.96
27.07
-2.09
-35.38
-68.74
-98.40
-121.96
-138.68
-149.07
-154.09
-154.70
-151.88
-147.15
-142.62
-140.50
-141.95
-146.12
-150.00
-149.61
-141.67
-125.19
-101.93
-75.74
-51.07
-31.53
-18.94
-13.18
-12.63
-15.05
-18.25
-20.64
-21.34
-20.09
-17.12
-12.85
-7.79
-2.48
2.39
5.98
7.52
6.62
3.64
-0.29
-3.62
-5.07
-4.21
-1.71
0.80
1.29
-1.99
-10.09
-22.90
-39.05
-56.24
-71.84
-83.71
-90.87
-93.70
-93.53
-91.99
-90.29
-88.84
-87.30
-84.93
-80.92
-74.73
-66.34
-56.51
-46.83
-39.60
-36.95
-40.05
-48.08
-58.21
-66.47
-69.15
-64.29
-52.26
-35.44
-17.06
0.00
14.19
25.43
34.82
43.92
54.18
66.43
80.95
97.56
115.84
135.05
153.97
170.57
182.08
185.67
179.73
164.95
144.64
123.78
107.26
98.13
96.65
100.48
105.87
109.03
107.30
99.71
86.98
71.02
54.20
38.49
24.91
13.48
3.39
-6.33
-16.32
-26.59
-36.65
-45.93
-54.20
-61.64
-68.69
-75.67
-82.52
-88.78
-93.81
-97.06
-98.04
-96.32
-91.49
-83.14
-71.10
-55.83
-38.54
-21.18
-5.92
5.55
12.67
16.12
17.42
18.09
19.15
20.87
23.12
25.77
28.87
32.48
36.33
39.58
41.02
39.59
35.03
28.13
20.54
14.09
10.19
9.52
12.10
17.49
24.98
33.39
41.04
45.93
46.32
41.35
31.53
18.50
4.44
-8.70
-19.65
-27.84
-33.28
-36.38
-37.93
-39.16
-41.59
-46.64
-55.25
-67.34
-81.54
-95.36
-105.71
-109.82
-106.06
-94.35
-75.90
-52.50
-26.16
0.89
25.62
44.15
52.34
47.58
30.43
5.11
-21.89
-44.28
-58.30
-63.37
-61.01
-52.92
-39.93
-22.39
-1.49
19.71
36.98
46.73
48.11
43.77
38.67
37.67
43.27
54.76
68.86
81.61
90.09
93.23
91.52
86.02
77.39
65.47
49.69
29.77
6.37
-18.90
-43.86
-66.44
-85.03
-98.61
-106.63
-109.01
-106.28
-99.74
-91.30
-82.93
-75.95
-70.55
-65.84
-60.40
-53.02
-43.37
-32.14
-20.75
-10.87
-3.77
-0.06
0.31
-2.03
-6.25
-11.41
-16.55
-20.89
-23.88
-25.40
-25.94
-26.63
-28.77
-33.09
-39.14
-45.15
-48.68
-47.61
-41.26
-30.52
-17.48
-4.35
7.38
17.14
25.12
31.62
36.78
40.52
42.84
43.93
44.21
44.02
43.31
41.62
38.25
32.66
24.70
14.75
3.66
-7.64
-18.42
-28.39
-37.52
-45.74
-52.62
-57.41
-59.23
-57.45
-51.94
-42.77
-30.00
-13.42
6.96
30.40
54.93
77.54
95.13
105.69
109.17
107.50
103.71
100.70
100.43
103.53
109.57
117.51
126.11
134.06
139.96
142.38
140.01
132.08
118.82
101.71
83.27
66.27
52.88
43.87
38.65
35.89
34.26
33.01
31.84
30.41
28.03
23.97
18.06
11.49
6.88
7.44
15.41
30.62
50.13
68.87
81.58
84.56
76.75
59.64
36.53
11.61
-11.04
-27.96
-37.16
-38.92
-36.07
-33.65
-37.43
-52.06
-79.56
-119.38
-169.56
-228.15
-293.45
-362.80
-430.91
-489.54
-529.34
-543.06
-528.56
-489.54
-433.79
-370.42
-307.22
-249.80
-201.71
-165.29
-141.88
-131.42
-131.98
-139.73
-149.72
-157.07
-157.96
-150.05
-132.68
-106.84
-74.67
-38.90
-1.92
35.26
73.39
114.26
158.73
205.00
247.72
279.42
293.06
285.07
256.95
214.69
166.35
119.10
77.07
40.68
7.81
-24.29
-57.35
-91.65
-126.58
-161.48
-196.06
-229.88
-261.61
-288.60
-307.32
-314.51
-308.82
-291.67
-266.93
-239.42
-213.15
-190.07
-169.95
-151.40
-133.04
-114.24
-95.22
-76.49
-58.58
-41.83
-26.42
-12.43
-0.02
10.64
19.42
26.26
31.29
34.77
37.07
38.53
39.33
39.46
38.70
36.84
33.83
29.84
25.30
20.74
16.52
12.76
9.19
5.33
0.82
-4.37
-9.74
-14.33
-17.00
-16.83
-13.45
-7.08
1.54
11.68
23.01
35.85
51.15
70.05
93.40
121.29
152.99
187.23
222.64
258.34
294.18
330.71
369.07
410.85
457.80
511.20
570.97
634.57
696.67
749.92
786.92
802.59
795.97
770.33
731.78
686.96
640.99
596.69
554.95
515.74
478.96
444.66
412.78
382.77
353.69
324.58
294.93
264.85
234.96
205.96
178.18
151.40
125.02
98.36
71.08
43.25
15.24
-12.57
-40.10
-67.68
-95.82
-124.91
-154.91
-185.31
-215.25
-243.93
-270.91
-296.36
-321.15
-346.80
-375.29
-408.32
-446.19
-486.83
-525.37
-555.00
-568.97
-563.04
-537.13
-495.40
-444.70
-392.03
-342.52
-298.52
-260.05
-225.99
-195.13
-166.75
-140.72
-117.15
-96.24
-78.00
-62.24
-48.79
-37.90
-30.40
-27.19
-28.42
-32.70
-37.27
-39.01
-36.15
-29.03
-19.77
-10.81
-3.41
2.36
6.92
9.78
9.40
4.30
-5.42
-17.34
-27.46
-32.10
-29.56
-20.63
-7.77
6.11
18.62
28.05
33.37
34.17
30.87
24.63
16.88
8.60
-0.01
-9.34
-19.79
-31.24
-43.02
-54.21
-63.83
-70.77
-73.61
-70.99
-62.29
-48.66
-33.22
-20.17
-13.06
-13.09
-18.70
-26.42
-32.63
-35.03
-33.26
-28.49
-22.61
-17.36
-13.72
-11.79
-10.79
-9.47
-6.56
-1.40
5.97
14.89
24.62
34.68
44.73
54.19
61.91
66.39
66.66
63.05
57.38
52.20
49.67
50.64
54.44
59.33
63.10
63.83
60.40
52.83
42.40
31.18
21.22
13.46
7.38
1.41
-5.94
-15.01
-24.83
-33.84
-40.90
-45.83
-49.17
-51.65
-53.81
-56.21
-59.65
-64.94
-72.46
-81.67
-91.25
-99.82
-106.36
-110.08
-109.60
-102.44
-85.48
-56.58
-16.30
31.68
81.96
129.70
172.02
207.76
235.94
254.62
261.46
255.51
238.80
216.08
192.70
172.23
155.35
140.86
127.58
115.43
104.81
94.92
83.09
65.78
40.83
9.15
-25.47
-58.40
-86.06
-106.52
-118.76
-121.68
-114.55
-98.52
-77.81
-58.97
-48.21
-48.35
-57.35
-69.69
-79.32
-82.50
-78.72
-69.58
-56.85
-41.49
-23.87
-4.61
14.89
32.76
47.54
58.70
66.31
69.91
67.91
57.82
37.75
8.19
-26.96
-61.11
-87.12
-100.12
-99.51
-88.93
-74.41
-61.99
-55.80
-57.52
-66.84
-82.13
-100.78
-119.33
-133.90
-140.89
-138.11
-125.50
-105.15
-80.87
-57.40
-39.28
-29.69
-29.31
-35.87
-44.74
-50.53
-48.96
-38.00
-17.87
9.99
43.69
80.90
118.18
150.77
173.36
181.82
174.84
154.42
124.73
90.29
54.56
19.81
-12.31
-40.16
-62.20
-77.59
-86.45
-89.53
-87.60
-80.84
-69.05
-52.13
-30.55
-5.31
22.15
50.10
76.30
97.79
111.20
113.67
104.15
84.26
58.01
30.31
5.24
-14.91
-29.40
-37.93
-39.79
-34.10
-20.84
-1.84
19.42
39.01
54.21
64.33
70.28
73.41
74.51
73.67
70.99
67.37
64.53
64.23
67.20
72.55
78.07
81.15
79.50
71.44
55.82
32.22
1.08
-35.86
-75.73
-114.79
-149.14
-174.87
-188.17
-185.87
-166.64
-132.26
-87.99
-41.34
0.48
33.16
55.97
70.38
77.44
76.39
65.45
44.33
16.31
-12.15
-34.08
-45.36
-46.33
-40.85
-33.58
-27.50
-23.12
-19.42
-15.64
-11.98
-9.55
-9.53
-12.45
-17.76
-24.12
-29.82
-33.43
-34.46
-33.81
-33.58
-35.82
-41.22
-48.40
-54.63
-57.40
-55.97
-51.73
-47.18
-44.33
-43.61
-43.98
-43.87
-42.11
-38.40
-33.10
-26.74
-19.48
-11.09
-1.26
9.84
21.01
30.04
34.47
32.71
25.15
14.18
3.19
-5.04
-9.56
-11.41
-12.53
-14.46
-17.55
-21.16
-24.29
-26.21
-26.46
-24.69
-20.78
-15.12
-8.80
-3.30
0.22
1.64
1.94
2.60
4.72
8.44
13.11
17.94
22.57
27.27
32.49
38.32
44.15
48.82
51.18
50.79
48.23
44.98
42.91
43.54
47.48
54.40
63.14
72.16
79.70
84.04
83.76
78.27
68.28
55.86
43.67
33.75
26.58
21.14
15.74
9.29
1.71
-6.43
-14.73
-23.21
-31.90
-40.09
-46.25
-48.88
-47.88
-45.18
-44.04
-47.18
-55.22
-66.49
-78.19
-88.10
-95.24
-99.19
-98.99
-92.92
-79.59
-59.82
-37.39
-17.96
-6.45
-4.39
-9.37
-16.45
-21.05
-20.77
-15.56
-6.32
6.46
22.76
41.72
60.08
72.57
73.93
61.72
38.25
9.87
-15.69
-32.64
-38.88
-35.88
-26.84
-15.02
-2.85
8.15
17.03
23.56
28.31
32.42
36.79
41.22
44.16
43.51
37.99
28.11
16.02
4.39
-4.83
-11.02
-14.53
-16.22
-16.83
-17.03
-17.67
-19.45
-22.38
-25.61
-27.72
-27.34
-24.04
-18.39
-11.54
-4.36
2.97
10.91
20.05
30.68
42.66
55.31
67.45
77.22
82.41
81.14
72.81
58.74
42.03
26.49
15.26
9.97
10.73
16.77
27.10
40.48
55.06
68.08
76.42
77.87
72.34
62.18
51.12
42.66
38.41
38.00
39.78
42.08
44.05
45.61
46.77
46.97
45.15
40.34
32.42
22.24
11.09
-0.27
-12.11
-25.39
-40.72
-57.42
-73.26
-85.51
-92.47
-94.74
-95.08
-96.93
-102.34
-110.72
-119.08
-123.66
-121.90
-113.45
-99.81
-83.06
-65.04
-46.92
-29.81
-15.31
-5.35
-1.28
-2.84
-7.82
-12.86
-15.03
-13.13
-7.99
-1.53
4.66
10.19
15.67
21.66
27.70
32.16
33.24
30.24
24.17
17.44
12.68
11.54
14.19
19.42
25.23
29.73
31.73
31.18
28.94
26.12
23.13
19.16
12.60
2.35
-10.95
-24.79
-36.08
-43.07
-46.82
-50.24
-56.05
-64.60
-73.47
-79.01
-79.07
-74.45
-68.19
-63.17
-59.90
-56.28
-49.52
-38.22
-23.34
-7.15
8.62
23.47
37.05
47.43
50.53
41.84
19.57
-13.31
-49.69
-81.50
-103.25
-113.55
-113.91
-106.24
-91.35
-69.45
-42.32
-14.17
9.53
24.88
31.66
33.13
33.63
36.01
40.71
46.63
52.73
58.61
64.02
68.22
70.34
70.50
70.28
71.74
75.33
78.72
77.81
69.75
55.63
40.42
30.08
27.67
31.68
37.94
43.23
47.66
53.90
63.56
74.30
80.22
75.29
57.51
30.63
1.83
-22.58
-40.42
-53.52
-64.59
-74.23
-80.24
-79.78
-72.42
-61.22
-51.23
-46.62
-48.86
-57.11
-70.04
-86.95
-107.35
-129.71
-151.03
-168.13
-179.79
-187.71
-194.99
-202.79
-208.24
-205.35
-189.43
-161.69
-129.68
-103.38
-88.82
-84.02
-80.91
-71.71
-55.41
-39.47
-35.42
-51.39
-87.19
-134.55
-181.68
-219.04
-242.48
-252.56
-251.74
-241.64
-222.30
-193.85
-157.55
-115.50
-68.93
-17.38
40.16
102.48
164.23
217.32
252.91
264.83
251.57
216.19
164.73
103.95
40.19
-20.65
-70.57
-103.08
-115.30
-109.41
-91.41
-68.87
-48.26
-33.38
-24.79
-16.26
-2.04
20.65
50.81
85.97
123.89
162.78
200.97
236.76
276.12
323.62
379.95
441.55
504.44
567.33
631.44
698.03
766.03
840.10
918.26
991.34
1045.82
1072.35
1070.81
1049.03
1017.40
927.79
759.24
525.52
272.01
44.26
-133.57
-258.68
-339.94
-390.46
-422.48
-435.06
-428.11
-405.86
-377.54
-352.24
-335.43
-328.69
-332.50
-346.40
-361.54
-373.35
-371.21
-353.97
-325.01
-288.92
-249.47
-210.20
-181.53
-156.77
-130.51
-101.17
-72.69
-50.38
-38.85
-33.51
-32.45
-33.99
-33.28
-28.07
-18.04
-5.73
6.26
16.46
24.84
30.99
35.22
39.82
45.57
52.44
59.10
64.26
67.27
68.25
66.93
63.62
59.50
55.02
50.43
45.45
39.77
33.16
25.64
16.95
7.23
-2.81
-12.86
-22.80
-32.86
-43.45
-54.97
-67.67
-81.78
-97.16
-113.36
-130.08
-147.12
-164.38
-181.81
-199.39
-217.23
-235.92
-256.50
-280.08
-306.96
-335.66
-362.77
-383.74
-394.55
-393.46
-381.54
-361.83
-337.61
-310.74
-281.34
-249.05
-214.40
-179.84
-149.06
-125.08
-108.61
-97.94
-90.74
-86.60
-88.06
-99.30
-122.71
-155.93
-190.86
-216.25
-222.23
-204.32
-164.56
-109.33
-45.69
21.03
87.27
149.24
200.98
234.78
243.74
225.13
181.97
121.74
52.61
-20.15
-95.40
-174.34
-256.77
-338.08
-409.22
-459.75
-482.33
-476.10
-446.96
-404.78
-359.26
-316.49
-277.75
-241.07
-203.79
-164.73
-124.78
-86.01
-50.23
-17.85
12.28
42.15
73.62
107.67
143.96
181.17
217.65
252.21
284.57
315.49
346.37
378.66
413.46
451.62
494.12
541.96
595.27
651.98
706.81
751.74
778.14
779.80
755.44
709.10
648.48
581.97
516.03
454.06
396.94
344.37
295.88
250.99
208.79
167.56
125.21
80.09
31.97
-17.70
-66.57
-112.47
-154.76
-194.72
-234.72
-276.64
-320.26
-362.41
-397.66
-419.87
-424.39
-409.55
-377.08
-331.51
-279.15
-226.71
-180.37
-144.61
-121.11
-107.97
-99.96
-90.08
-72.54
-45.49
-12.33
19.45
41.51
48.46
40.21
21.59
-0.26
-19.39
-33.40
-43.34
-51.88
-61.05
-71.02
-80.40
-87.48
-91.10
-90.89
-86.70
-78.33
-65.82
-49.99
-32.47
-15.45
-0.69
11.10
20.06
26.67
31.01
32.74
31.60
27.80
22.36
16.64
11.77
8.24
6.19
5.89
8.22
14.76
27.25
46.54
71.43
98.09
120.49
132.33
129.82
113.67
89.20
64.09
44.83
33.95
29.58
27.40
23.72
17.58
10.85
6.65
7.30
13.00
21.98
31.46
38.67
41.35
38.06
28.41
13.34
-4.84
-22.80
-37.21
-45.70
-47.60
-43.87
-36.71
-28.91
-23.16
-21.52
-24.95
-33.08
-44.12
-55.57
-64.85
-70.24
-71.42
-69.40
-66.23
-64.21
-65.13
-69.74
-77.33
-85.98
-93.36
-97.67
-98.46
-96.93
-95.21
-95.25
-97.72
-101.70
-105.05
-105.32
-100.70
-90.41
-75.11
-56.66
-37.75
-21.37
-9.74
-3.41
-1.05
-0.06
2.20
6.99
13.95
21.57
28.47
34.38
40.22
47.36
56.67
67.73
79.02
88.66
95.18
98.20
98.36
96.73
94.12
90.64
85.85
79.15
70.53
60.82
51.35
43.62
38.47
36.01
35.82
37.18
39.16
40.60
39.95
35.68
27.00
14.50
0.35
-12.42
-21.11
-24.39
-22.60
-17.37
-10.75
-4.60
-0.27
1.36
-0.17
-4.78
-11.78
-19.96
-28.07
-35.23
-41.31
-46.72
-51.85
-56.51
-59.66
-59.58
-54.52
-43.45
-26.64
-5.73
16.39
36.30
50.81
57.77
56.60
48.33
35.34
20.68
7.46
-1.74
-5.18
-2.13
6.93
20.36
35.37
48.56
56.73
57.83
51.90
41.33
30.06
22.22
20.61
25.77
36.02
48.24
59.13
66.30
68.72
66.63
61.12
53.54
45.17
36.99
29.63
23.27
17.77
12.79
8.09
3.66
-0.42
-4.21
-8.09
-12.63
-18.34
-25.17
-32.31
-38.32
-41.71
-41.90
-40.23
-40.40
-47.92
-68.27
-104.26
-153.62
-208.37
-256.31
-285.00
-286.24
-259.26
-211.02
-153.66
-100.42
-61.59
-41.97
-40.36
-50.85
-65.30
-75.93
-77.24
-67.12
-46.69
-19.52
9.54
35.38
53.38
60.10
54.07
36.57
12.03
-12.70
-30.10
-34.57
-24.36
-2.20
25.95
53.33
74.49
86.61
89.55
84.95
75.23
62.86
50.11
38.84
30.26
24.64
21.30
19.02
16.57
13.30
9.34
5.27
1.69
-0.96
-2.53
-3.05
-2.80
-2.50
-3.34
-6.75
-13.66
-23.86
-35.82
-47.29
-56.20
-61.31
-62.23
-58.89
-51.20
-39.20
-23.65
-6.47
9.38
20.85
26.00
24.80
18.98
11.17
3.75
-1.75
-4.64
-4.72
-1.81
4.16
12.76
22.82
32.46
39.71
43.08
42.21
37.87
31.62
25.32
20.64
18.76
20.32
25.43
33.72
44.25
55.58
65.97
73.78
77.93
78.16
74.92
68.91
60.74
50.78
39.42
27.41
15.90
6.04
-1.52
-7.01
-11.34
-15.58
-20.30
-25.58
-31.23
-37.12
-43.20
-49.09
-53.63
-54.98
-51.36
-42.12
-28.39
-12.93
0.85
10.14
13.71
12.14
7.42
1.99
-2.21
-4.41
-5.11
-5.58
-7.10
-10.30
-15.11
-21.15
-28.10
-35.89
-44.42
-53.03
-60.41
-64.93
-65.33
-61.45
-54.42
-46.43
-40.04
-37.57
-40.52
-49.33
-63.29
-80.94
-100.82
-122.08
-144.72
-168.87
-193.76
-217.10
-235.78
-247.67
-253.41
-256.83
-262.98
-275.17
-292.48
-309.74
-320.16
-318.95
-305.88
-285.10
-262.52
-242.58
-226.32
-211.75
-195.96
-177.38
-156.67
-136.16
-118.14
-103.50
-91.30
-79.56
-66.61
-51.81
-35.99
-20.80
-7.85
2.00
8.90
13.79
17.78
21.61
25.34
28.37
29.89
29.32
26.66
22.49
17.79
13.51
10.33
8.50
7.92
8.39
9.78
12.11
15.47
19.91
25.31
31.42
37.90
44.57
51.44
58.71
66.62
75.28
84.53
94.02
103.38
112.48
121.56
131.22
142.18
154.98
169.69
185.94
203.00
220.16
237.03
253.67
270.56
288.53
308.68
332.05
359.30
390.01
422.26
452.51
476.28
489.38
489.22
475.65
450.88
418.70
383.27
348.21
316.02
288.15
265.24
247.45
234.60
226.08
220.63
216.23
210.28
200.23
184.41
162.79
137.18
110.73
86.95
68.57
56.78
51.05
49.63
50.14
50.23
47.90
41.70
30.93
15.73
-2.73
-22.55
-41.52
-57.82
-70.58
-79.96
-86.90
-92.59
-97.95
-103.28
-108.15
-111.59
-112.45
-109.87
-103.89
-95.62
-86.93
-79.69
-74.79
-71.56
-68.01
-61.75
-51.20
-36.37
-18.87
-1.19
14.21
25.61
32.34
34.74
33.95
31.71
29.87
29.88
32.35
36.92
42.55
47.96
52.09
54.19
53.74
50.48
44.41
36.10
26.69
17.54
9.74
3.44
-2.27
-8.92
-17.80
-29.06
-41.32
-51.99
-58.20
-58.07
-51.42
-40.05
-27.09
-15.90
-8.90
-6.85
-8.76
-12.51
-15.84
-17.24
-16.47
-14.29
-11.93
-10.25
-9.48
-9.39
-9.68
-10.29
-11.30
-12.51
-13.07
-11.64
-6.91
1.56
12.89
25.26
36.89
46.93
55.78
64.58
74.11
84.03
92.80
98.32
99.09
94.98
87.45
78.91
71.60
66.68
63.79
61.23
56.66
48.19
35.02
17.83
-1.39
-20.06
-35.77
-46.99
-53.23
-54.99
-53.32
-49.59
-45.15
-41.13
-38.37
-37.44
-38.66
-42.10
-47.43
-53.76
-59.80
-64.10
-65.55
-63.92
-59.98
-55.31
-51.72
-50.48
-51.96
-55.55
-59.91
-63.46
-64.98
-63.96
-60.81
-56.65
-53.00
-51.22
-51.96
-55.04
-59.40
-63.40
-65.36
-64.12
-59.67
-53.13
-46.34
-41.08
-38.23
-37.49
-37.62
-37.19
-35.37
-32.17
-28.19
-23.92
-19.39
-14.23
-8.18
-1.70
3.81
6.49
4.87
-1.26
-10.49
-20.20
-27.52
-30.27
-27.82
-21.02
-11.66
-1.65
7.40
14.36
18.38
18.89
15.68
9.31
1.17
-6.90
-13.34
-17.49
-19.80
-21.50
-23.82
-27.49
-32.42
-37.81
-42.55
-45.51
-45.75
-42.89
-37.28
-30.20
-23.61
-19.59
-19.40
-22.88
-28.37
-33.32
-35.32
-33.05
-26.90
-18.75
-11.20
-6.45
-5.52
-7.90
-12.08
-16.35
-19.58
-21.39
-21.84
-20.77
-17.59
-11.64
-2.98
7.03
15.95
21.13
20.98
15.70
7.33
-1.03
-6.36
-6.67
-1.47
8.16
19.96
31.09
38.98
42.09
40.33
35.00
28.11
21.52
16.36
12.82
10.46
8.58
6.54
4.02
0.99
-2.44
-6.20
-10.48
-15.77
-22.56
-31.03
-40.88
-51.43
-61.90
-71.64
-80.19
-86.91
-90.77
-90.35
-84.37
-72.52
-55.98
-37.36
-19.91
-6.34
1.92
5.03
4.18
0.99
-2.96
-6.21
-7.45
-5.68
-0.38
8.12
18.59
29.14
37.77
42.87
43.66
40.27
33.72
25.70
18.28
13.33
12.06
14.38
19.01
23.92
27.21
27.81
25.70
21.55
16.11
9.90
3.22
-3.55
-9.78
-14.84
-18.52
-21.29
-24.07
-27.67
-32.11
-36.46
-39.28
-39.52
-37.11
-33.15
-29.30
-27.02
-27.10
-29.59
-34.20
-40.72
-48.95
-58.31
-67.33
-73.68
-74.77
-68.91
-56.27
-39.21
-21.52
-7.02
1.95
5.18
4.25
1.34
-1.99
-5.27
-8.78
-12.53
-15.64
-16.41
-13.40
-6.50
2.56
10.66
14.70
13.06
6.28
-3.11
-11.69
-16.56
-16.43
-12.05
-5.86
-0.96
0.13
-3.70
-11.90
-22.76
-34.45
-45.83
-56.81
-68.08
-80.56
-95.11
-112.68
-134.44
-161.46
-193.72
-228.88
-261.98
-286.50
-296.52
-289.24
-266.15
-232.41
-194.53
-157.75
-124.37
-93.93
-64.80
-35.96
-7.93
17.90
40.61
61.01
81.46
104.52
131.23
159.85
186.48
206.65
217.33
218.26
211.62
200.80
188.82
177.57
167.78
159.64
153.38
149.42
148.11
149.30
152.09
154.82
155.41
151.99
143.78
131.60
117.95
106.25
99.45
98.75
103.06
109.46
114.58
115.89
112.44
104.81
94.39
82.54
70.18
57.82
45.77
34.35
23.90
14.77
7.00
0.42
-5.43
-11.08
-16.88
-22.83
-28.59
-33.71
-37.94
-41.42
-44.51
-47.35
-49.48
-49.79
-46.85
-39.68
-28.25
-13.80
1.53
15.34
25.75
31.98
34.59
35.18
35.85
38.44
43.90
51.95
61.21
69.85
76.36
80.24
82.13
83.55
86.31
91.86
100.77
112.61
126.06
139.53
151.77
162.30
171.37
179.53
187.05
193.41
197.35
196.99
190.04
174.31
148.40
112.51
69.15
22.69
-22.10
-62.13
-97.85
-133.64
-176.20
-231.37
-300.72
-379.73
-458.64
-525.54
-570.59
-589.19
-582.91
-558.05
-522.71
-483.94
-446.22
-411.55
-380.67
-354.30
-333.77
-320.18
-313.40
-311.57
-311.52
-310.05
-305.35
-297.54
-288.32
-279.93
-273.85
-270.04
-267.05
-262.73
-255.22
-243.81
-229.19
-213.06
-197.47
-183.92
-172.96
-164.17
-156.54
-149.09
-141.26
-133.10
-125.13
-117.99
-112.02
-107.14
-102.79
-98.18
-92.53
-85.32
-76.36
-65.82
-54.11
-41.73
-29.14
-16.70
-4.61
7.06
18.30
29.10
39.37
48.81
57.03
63.59
68.23
70.99
72.30
72.88
73.54
74.88
77.08
79.87
82.72
85.16
87.15
89.19
92.30
97.63
106.01
117.70
132.30
149.03
167.12
186.20
206.43
228.47
253.28
281.96
315.49
354.16
396.86
440.57
480.36
510.47
526.07
525.13
509.22
483.00
452.37
422.30
395.39
371.65
349.49
327.04
303.17
277.76
251.38
224.91
199.24
175.37
154.48
137.71
125.90
119.10
116.26
115.41
114.12
110.24
102.51
90.95
76.66
61.35
46.64
33.56
22.39
12.91
4.81
-1.95
-7.04
-9.82
-9.76
-6.63
-0.61
7.70
17.36
27.17
35.63
41.06
41.95
37.42
27.76
14.48
0.06
-12.73
-21.58
-25.30
-24.00
-18.81
-11.47
-3.77
2.87
7.61
10.16
10.75
9.88
8.03
5.48
2.07
-2.71
-9.67
-19.60
-32.85
-48.88
-65.69
-79.90
-87.41
-84.83
-71.02
-48.09
-21.28
2.44
16.39
16.38
1.87
-23.96
-55.22
-85.02
-107.14
-117.38
-114.23
-98.85
-74.56
-45.84
-17.35
6.91
24.21
33.36
34.85
30.62
23.50
16.47
11.69
10.10
11.33
14.26
17.71
20.93
23.72
26.19
28.48
30.53
32.18
33.21
33.53
33.15
32.19
30.79
29.11
27.31
25.46
23.46
21.08
18.04
14.21
9.74
5.08
0.83
-2.50
-4.69
-5.81
-6.19
-6.24
-6.37
-6.85
-7.87
-9.41
-11.34
-13.40
-15.41
-17.33
-19.28
-21.41
-23.64
-25.52
-26.36
-25.56
-23.04
-19.41
-15.83
-13.47
-12.96
-14.14
-16.18
-18.06
-19.11
-19.19
-18.64
-17.95
-17.41
-17.09
-16.89
-16.73
-16.67
-16.79
-17.05
-17.11
-16.32
-13.95
-9.63
-3.60
3.21
9.44
13.90
16.01
16.08
15.06
14.02
13.69
14.17
15.10
16.08
16.95
17.87
19.04
20.36
21.32
21.15
19.28
15.65
10.92
6.15
2.38
0.14
-0.72
-0.91
-1.26
-2.30
-4.02
-6.01
-7.72
-8.85
-9.54
-10.20
-11.26
-12.83
-14.60
-16.01
-16.53
-15.94
-14.38
-12.23
-9.83
-7.39
-5.01
-2.75
-0.81
0.54
1.14
1.01
0.48
-0.03
-0.12
0.40
1.52
3.08
4.88
6.66
8.24
9.39
10.00
10.10
9.86
9.56
9.42
9.51
9.65
9.57
9.06
8.07
6.76
5.41
4.17
2.98
1.51
-0.76
-4.29
-9.27
-15.43
-22.05
-28.13
-32.75
-35.41
-36.36
-36.43
-36.83
-38.67
-42.63
-48.90
-57.28
-67.40
-78.64
-89.89
-99.30
-104.48
-103.25
-94.75
-80.20
-62.78
-46.39
-33.86
-25.64
-19.73
-12.90
-2.54
12.10
29.76
48.18
65.51
81.07
95.12
108.11
119.70
128.68
133.50
133.12
127.49
117.33
103.47
86.20
65.25
40.36
12.15
-17.50
-45.86
-70.16
-88.73
-101.66
-110.58
-118.11
-126.83
-138.37
-152.77
-168.18
-181.16
-187.60
-184.04
-168.93
-143.26
-109.81
-71.69
-31.19
10.06
49.93
84.80
110.05
122.37
122.33
115.22
108.72
108.46
114.24
119.62
115.31
94.70
58.27
14.05
-25.78
-49.65
-50.40
-26.32
19.47
80.46
147.61
210.07
256.99
280.10
276.41
249.30
207.14
159.52
113.71
72.64
35.32
-0.98
-38.82
-79.94
-125.99
-179.13
-241.35
-312.25
-386.98
-455.95
-507.45
-531.87
-525.82
-493.56
-445.01
-391.43
-341.13
-297.25
-258.30
-220.67
-181.28
-139.08
-94.73
-49.26
-3.07
44.28
93.17
142.95
191.60
236.15
274.02
304.02
326.42
342.10
351.30
353.01
345.31
326.73
297.42
259.67
217.15
173.51
131.35
91.70
54.47
19.19
-14.16
-44.63
-69.93
-86.68
-91.33
-81.50
-57.16
-21.48
19.76
59.70
92.17
112.99
120.07
112.94
92.20
59.59
18.59
-25.11
-64.24
-91.71
-102.87
-97.15
-78.15
-52.12
-25.54
-3.08
13.40
24.23
30.71
33.76
33.46
29.41
21.58
10.81
-1.32
-13.05
-23.23
-31.67
-38.79
-44.92
-49.56
-51.11
-47.43
-36.87
-19.27
3.37
27.26
47.93
61.64
66.57
63.17
53.41
39.51
22.85
3.87
-17.04
-38.03
-55.21
-63.23
-57.39
-35.88
-1.03
41.04
82.66
117.22
141.21
154.46
159.07
157.55
151.31
140.28
123.49
100.34
71.53
39.47
7.67
-20.33
-42.16
-57.36
-67.14
-73.56
-78.33
-82.01
-83.91
-82.66
-77.17
-67.38
-54.37
-39.97
-26.00
-13.58
-2.96
6.15
13.87
19.61
21.95
19.13
9.95
-5.50
-25.52
-47.33
-67.92
-85.13
-98.32
-108.32
-116.76
-125.05
-133.50
-141.01
-145.39
-144.14
-135.32
-118.33
-94.11
-65.12
-34.84
-6.90
15.65
31.20
39.98
43.97
46.18
49.56
55.86
65.03
75.43
84.75
91.12
93.86
93.57
91.48
88.75
85.98
83.32
80.93
79.31
79.30
81.56
85.89
90.99
94.70
94.84
89.86
79.22
63.17
42.29
17.28
-10.92
-40.85
-70.36
-96.88
-118.02
-132.19
-138.80
-138.12
-130.79
-117.57
-99.41
-77.64
-54.26
-31.75
-12.69
1.00
8.44
9.97
6.87
0.92
-6.25
-13.55
-20.53
-27.25
-33.82
-40.05
-45.30
-48.70
-49.68
-48.35
-45.75
-43.48
-43.12
-45.61
-50.87
-57.83
-64.88
-70.49
-73.74
-74.55
-73.52
-71.41
-68.63
-64.90
-59.27
-50.52
-37.73
-20.75
-0.39
21.80
44.00
64.70
83.05
98.92
112.72
124.93
135.70
144.56
150.40
151.57
146.33
133.24
111.61
81.98
46.45
8.66
-26.75
-55.21
-73.49
-80.66
-78.32
-69.94
-59.80
-51.79
-48.63
-51.51
-60.05
-72.36
-85.32
-95.06
-97.90
-91.44
-75.47
-52.18
-25.55
-0.26
19.58
31.40
34.52
30.01
20.29
8.44
-2.55
-10.31
-13.57
-12.32
-7.65
-1.48
4.01
6.87
6.03
1.56
-5.18
-12.00
-16.58
-17.22
-13.28
-5.27
5.52
17.46
28.89
38.31
44.49
46.58
44.38
38.39
29.91
20.73
12.73
7.35
5.27
6.18
9.04
12.42
15.04
16.11
15.54
13.85
11.83
10.18
9.22
8.83
8.63
8.19
7.48
7.14
8.43
12.86
21.37
33.54
47.28
59.37
66.88
68.51
65.47
61.01
58.87
61.39
68.18
76.32
81.77
81.37
74.29
62.05
47.29
32.07
16.72
-0.09
-20.05
-43.56
-68.77
-91.90
-108.73
-116.47
-115.13
-107.63
-98.53
-92.20
-91.13
-95.24
-102.41
-109.65
-114.49
-115.77
-113.60
-108.77
-101.97
-93.41
-82.84
-70.04
-55.21
-39.23
-23.37
-8.89
3.38
13.22
20.84
26.63
30.83
33.49
34.53
34.05
32.54
30.86
29.95
30.41
32.09
34.05
34.87
33.21
28.31
20.41
10.63
0.56
-8.20
-14.52
-17.98
-18.83
-17.82
-15.91
-14.00
-12.67
-12.08
-11.92
-11.58
-10.44
-8.06
-4.42
0.14
5.00
9.38
12.57
14.04
13.60
11.52
8.55
5.76
4.19
4.48
6.60
9.87
13.26
15.89
17.34
17.83
18.04
18.68
20.21
22.59
25.42
28.14
30.25
31.54
32.09
32.22
32.35
32.90
34.06
35.72
37.42
38.57
38.73
37.99
37.06
36.90
38.28
41.23
44.96
48.07
49.22
47.68
43.61
37.84
31.48
25.40
20.13
15.90
12.84
11.09
10.66
11.11
11.56
10.79
7.75
2.02
-5.95
-15.02
-23.79
-31.13
-36.53
-40.01
-41.94
-42.73
-42.76
-42.37
-41.97
-41.99
-42.68
-44.06
-45.80
-47.44
-48.51
-48.70
-47.92
-46.29
-44.17
-42.11
-40.71
-40.44
-41.35
-42.98
-44.45
-44.85
-43.69
-41.06
-37.62
-34.23
-31.50
-29.65
-28.49
-27.65
-26.78
-25.53
-23.56
-20.49
-16.10
-10.52
-4.37
1.39
5.83
8.36
8.95
7.99
6.12
3.96
2.04
0.73
0.22
0.45
1.09
1.70
1.85
1.43
0.63
-0.12
-0.46
-0.30
0.19
0.73
1.12
1.26
1.09
0.49
-0.73
-2.81
-5.76
-9.40
-13.34
-17.24
-20.96
-24.53
-28.06
-31.61
-35.07
-38.34
-41.39
-44.44
-47.79
-51.68
-56.02
-60.30
-63.66
-65.11
-63.77
-59.13
-51.14
-40.28
-27.52
-14.21
-1.87
8.11
14.85
18.16
18.66
17.44
15.67
14.20
13.32
12.91
12.65
12.24
11.53
10.46
9.08
7.47
5.90
4.76
4.55
5.62
7.94
10.99
13.95
15.94
16.34
14.99
12.11
8.17
3.73
-0.65
-4.45
-7.28
-8.93
-9.44
-9.10
-8.41
-7.94
-8.12
-9.14
-10.88
-13.00
-15.06
-16.63
-17.38
-17.09
-15.63
-12.96
-9.21
-4.70
0.01
4.26
7.49
9.46
10.29
10.40
10.19
9.93
9.67
9.42
9.20
9.10
9.21
9.49
9.74
9.75
9.43
8.93
8.57
8.67
9.37
10.54
11.84
12.94
13.53
13.42
12.54
10.97
8.93
6.77
4.86
3.47
2.68
2.31
2.11
1.89
1.65
1.54
1.76
2.28
2.83
2.94
2.13
0.13
-2.91
-6.48
-9.85
-12.33
-13.43
-12.93
-10.86
-7.36
-2.76
2.39
7.27
11.00
12.98
13.21
12.25
10.98
10.06
9.73
9.76
9.81
9.72
9.65
9.85
10.52
11.63
13.01
14.55
16.22
17.98
19.59
20.59
20.47
18.99
16.35
13.09
9.82
6.94
4.51
2.36
0.19
-2.20
-4.99
-8.20
-11.68
-15.09
-17.95
-20.00
-21.32
-22.52
-24.38
-27.51
-31.96
-37.11
-41.87
-44.85
-44.71
-40.31
-30.97
-16.70
1.47
21.58
41.04
57.30
68.57
74.23
74.83
71.67
66.28
59.99
53.72
47.92
42.67
37.87
33.41
29.37
26.05
23.73
22.47
21.93
21.59
21.13
20.68
20.83
22.11
24.46
26.95
28.15
26.85
22.90
17.41
12.22
8.94
8.09
8.86
9.58
8.70
5.48
0.18
-6.29
-12.92
-18.93
-23.92
-27.73
-30.41
-32.27
-33.84
-35.77
-38.49
-41.99
-45.75
-49.01
-51.08
-51.54
-50.23
-47.09
-42.04
-35.09
-26.60
-17.38
-8.57
-1.28
3.79
6.58
7.60
7.69
7.71
8.21
9.39
11.01
12.58
13.60
13.75
13.16
12.35
12.00
12.69
14.57
17.34
20.39
23.05
24.84
25.60
25.48
24.83
24.08
23.52
23.16
22.71
21.59
19.21
15.19
9.54
2.72
-4.47
-11.15
-16.66
-20.70
-23.47
-25.51
-27.48
-29.89
-32.83
-35.83
-37.97
-38.10
-35.25
-29.13
-20.38
-10.52
-1.47
5.14
8.62
9.41
8.83
8.35
8.96
10.79
13.28
15.58
17.03
17.46
17.04
16.15
15.12
14.18
13.51
13.31
13.83
15.19
17.35
20.02
22.73
24.93
26.15
26.05
24.52
21.75
18.22
14.63
11.65
9.65
8.53
7.74
6.56
4.50
1.59
-1.68
-4.61
-6.66
-7.69
-7.97
-7.87
-7.57
-7.01
-6.08
-4.73
-3.17
-1.74
-0.64
0.11
0.69
1.32
2.04
2.76
3.39
3.91
4.39
4.98
5.82
7.02
8.69
10.86
13.34
15.66
17.15
17.15
15.39
12.01
7.42
1.95
-4.37
-11.74
-20.19
-29.28
-38.14
-45.82
-51.85
-56.42
-60.13
-63.63
-67.18
-70.63
-73.68
-76.11
-77.95
-79.41
-80.69
-81.91
-83.14
-84.53
-86.48
-89.62
-94.60
-101.82
-111.01
-121.15
-130.54
-137.28
-139.79
-137.29
-129.92
-118.54
-104.38
-88.59
-72.09
-55.62
-39.93
-25.72
-13.42
-2.94
6.51
16.16
27.15
39.95
53.98
67.69
79.10
86.46
88.99
87.14
82.37
76.48
70.79
65.68
60.60
54.78
48.02
41.34
36.75
36.42
41.43
50.98
62.54
72.91
79.69
82.20
81.48
79.43
77.62
76.66
76.19
75.51
74.18
72.28
70.24
68.45
66.96
65.50
63.70
61.41
58.89
56.69
55.31
54.82
54.77
54.49
53.62
52.57
52.61
55.41
62.26
73.26
87.15
101.62
114.11
122.49
125.48
122.52
113.68
99.47
80.98
60.06
39.15
20.92
7.49
-0.23
-2.78
-1.88
0.25
1.71
1.48
-0.46
-3.40
-6.34
-8.39
-9.09
-8.29
-6.13
-2.81
1.52
6.63
12.16
17.53
21.94
24.67
25.32
24.05
21.48
18.44
15.51
12.74
9.64
5.47
-0.44
-8.20
-17.24
-26.37
-34.19
-39.42
-41.36
-40.18
-37.13
-34.66
-36.12
-45.22
-65.11
-97.34
-141.10
-193.03
-247.77
-299.33
-342.72
-375.22
-396.87
-409.63
-416.01
-417.57
-414.10
-403.86
-384.71
-355.35
-316.18
-269.34
-218.05
-165.45
-113.96
-64.89
-18.56
25.32
67.49
109.21
152.50
199.81
252.95
311.38
370.92
423.84
460.74
473.84
460.17
423.11
371.30
315.44
264.55
223.41
192.34
168.81
149.73
133.12
118.38
105.53
94.30
83.76
72.62
59.89
45.31
29.49
13.53
-1.56
-15.13
-27.05
-37.62
-47.34
-56.70
-65.79
-74.18
-80.98
-85.33
-86.87
-86.08
-84.00
-81.64
-79.13
-75.52
-69.20
-58.84
-44.35
-27.15
-9.65
5.77
17.56
25.42
29.96
32.15
32.86
32.63
31.74
30.25
28.02
24.80
20.29
14.46
7.73
0.96
-4.89
-9.29
-12.36
-14.88
-17.70
-21.31
-25.51
-29.72
-33.34
-36.07
-37.91
-38.72
-38.11
-35.44
-30.39
-23.24
-15.00
-6.98
-0.26
4.58
7.37
8.01
6.40
2.56
-3.04
-9.27
-14.60
-17.68
-17.92
-15.63
-11.86
-7.83
-4.53
-2.51
-1.83
-2.27
-3.40
-4.75
-6.01
-7.11
-8.28
-9.87
-12.08
-14.72
-17.18
-18.72
-18.81
-17.37
-14.73
-11.38
-7.65
-3.65
0.66
5.21
9.65
13.28
15.35
15.31
13.10
9.31
4.96
1.18
-1.16
-1.75
-0.83
1.05
3.51
6.49
10.28
15.16
20.98
26.97
31.93
34.83
35.40
34.46
33.53
34.15
37.15
42.32
48.61
54.72
59.59
62.64
63.62
62.42
58.96
53.29
45.81
37.34
28.91
21.51
15.76
11.96
10.12
10.21
12.07
15.31
19.17
22.76
25.35
26.62
26.68
25.87
24.41
22.26
19.24
15.26
10.58
5.75
1.50
-1.56
-3.00
-2.74
-1.13
1.11
2.82
2.69
-0.33
-6.44
-14.66
-22.99
-29.10
-31.23
-28.88
-23.00
-15.50
-8.52
-3.66
-1.64
-2.29
-4.88
-8.50
-12.35
-15.99
-19.34
-22.65
-26.25
-30.34
-34.65
-38.41
-40.57
-40.29
-37.38
-32.32
-26.25
-20.50
-16.22
-14.06
-14.10
-15.86
-18.49
-21.12
-23.16
-24.49
-25.35
-26.07
-26.79
-27.36
-27.61
-27.57
-27.55
-27.95
-28.87
-29.93
-30.47
-30.06
-28.77
-27.18
-26.07
-25.91
-26.69
-28.05
-29.50
-30.64
-31.18
-30.86
-29.53
-27.21
-24.22
-21.14
-18.58
-16.97
-16.36
-16.55
-17.15
-17.79
-18.25
-18.58
-19.12
-20.38
-22.74
-26.13
-29.85
-32.79
-33.94
-32.85
-29.88
-25.92
-21.92
-18.37
-15.29
-12.37
-9.36
-6.25
-3.19
-0.30
2.46
5.25
8.24
11.41
14.63
17.71
20.49
22.89
24.93
26.66
28.13
29.38
30.43
31.22
31.69
31.77
31.43
30.73
29.74
28.53
27.05
25.22
23.05
20.66
18.33
16.32
14.71
13.48
12.46
11.55
10.65
9.69
8.43
6.61
4.08
0.98
-2.20
-4.85
-6.63
-7.71
-8.72
-10.50
-13.64
-18.30
-24.26
-31.02
-37.91
-44.04
-48.36
-49.90
-48.13
-43.35
-36.66
-29.61
-23.53
-19.02
-15.84
-13.33
-10.86
-8.26
-5.76
-3.75
-2.38
-1.49
-0.66
0.49
2.06
3.87
5.61
7.08
8.31
9.57
11.13
13.06
15.17
17.10
18.45
19.03
18.84
18.05
16.92
15.63
14.38
13.31
12.58
12.21
12.09
11.91
11.32
10.08
8.23
5.99
3.71
1.63
-0.20
-1.92
-3.80
-6.01
-8.52
-11.07
-13.17
-14.29
-14.05
-12.34
-9.39
-5.59
-1.42
2.73
6.57
9.88
12.50
14.38
15.55
16.17
16.39
16.32
15.98
15.29
14.23
12.84
11.27
9.74
8.49
7.77
7.83
8.79
10.51
12.54
14.17
14.68
13.64
11.08
7.35
3.01
-1.40
-5.48
-8.93
-11.56
-13.33
-14.25
-14.39
-13.79
-12.44
-10.31
-7.54
-4.50
-1.75
0.06
0.45
-0.89
-3.97
-8.52
-13.95
-19.29
-23.30
-24.85
-23.35
-19.05
-13.02
-6.75
-1.50
2.12
4.22
5.40
6.22
6.96
7.54
7.73
7.47
6.94
6.49
6.36
6.52
6.73
6.76
6.62
6.60
7.06
8.14
9.60
10.93
11.64
11.53
10.73
9.62
8.55
7.74
7.22
6.94
6.80
6.62
6.12
4.96
2.94
0.18
-2.87
-5.62
-7.65
-8.94
-9.85
-10.83
-12.15
-13.79
-15.62
-17.53
-19.57
-21.73
-23.74
-24.99
-24.68
-22.36
-18.21
-13.11
-8.17
-4.25
-1.57
0.23
1.71
3.27
4.92
6.43
7.61
8.41
8.97
9.50
10.11
10.83
11.68
12.69
13.90
15.34
16.93
18.49
19.82
20.74
21.13
20.95
20.18
18.85
17.15
15.42
14.11
13.61
13.96
14.76
15.37
15.20
14.13
12.55
11.14
10.48
10.71
11.59
12.75
13.87
14.83
15.47
15.53
14.71
12.88
10.45
8.34
7.74
9.47
13.51
18.75
23.43
25.76
24.76
20.65
14.81
9.20
5.54
4.71
6.52
10.02
13.98
17.43
19.75
20.59
19.66
16.73
11.79
5.30
-1.91
-8.78
-14.39
-18.29
-20.52
-21.56
-22.07
-22.61
-23.41
-24.39
-25.16
-25.33
-24.64
-23.15
-21.23
-19.39
-18.08
-17.55
-17.80
-18.64
-19.84
-21.16
-22.41
-23.37
-23.84
-23.76
-23.25
-22.63
-22.34
-22.61
-23.41
-24.29
-24.63
-23.84
-21.61
-18.06
-13.66
-9.05
-4.74
-1.05
1.97
4.37
6.27
7.77
9.04
10.28
11.67
13.25
14.88
16.23
16.97
16.89
16.07
14.94
14.09
14.01
14.84
16.29
17.77
18.75
18.97
18.49
17.61
16.55
15.34
13.87
12.04
9.90
7.74
5.89
4.60
3.91
3.64
3.52
3.29
2.80
2.00
0.85
-0.57
-2.20
-3.96
-5.86
-7.94
-10.31
-13.03
-16.16
-19.65
-23.39
-27.14
-30.55
-33.14
-34.34
-33.78
-31.37
-27.42
-22.48
-17.19
-12.01
-7.17
-2.76
1.16
4.44
6.96
8.73
9.95
10.92
11.89
12.83
13.52
13.61
12.92
11.52
9.84
8.45
7.91
8.53
10.23
12.54
14.70
15.98
15.91
14.51
12.31
10.10
8.54
7.79
7.57
7.26
6.35
4.69
2.55
0.41
-1.31
-2.40
-2.92
-3.09
-3.22
-3.55
-4.26
-5.40
-6.89
-8.58
-10.29
-11.94
-13.50
-14.98
-16.43
-17.98
-19.73
-21.80
-24.16
-26.43
-27.93
-27.84
-25.50
-20.78
-14.24
-6.92
0.04
5.78
9.98
12.78
14.55
15.66
16.33
16.60
16.49
16.03
15.31
14.49
13.66
12.86
12.07
11.28
10.55
10.00
9.80
9.97
10.40
10.80
10.89
10.53
9.77
8.86
8.09
7.65
7.46
7.20
6.45
4.90
2.56
-0.20
-2.87
-5.08
-6.77
-8.16
-9.59
-11.19
-12.80
-14.05
-14.63
-14.53
-14.11
-14.02
-14.86
-17.01
-20.51
-25.07
-30.16
-35.07
-38.84
-40.53
-39.40
-35.25
-28.57
-20.46
-12.26
-5.13
0.32
4.05
6.51
8.18
9.52
10.72
11.87
12.88
13.57
13.66
12.91
11.29
9.14
7.10
5.81
5.67
6.74
8.77
11.45
14.52
17.71
20.61
22.63
23.08
21.42
17.54
11.74
4.65
-2.98
-10.47
-17.24
-22.83
-26.92
-29.49
-30.86
-31.68
-32.69
-34.33
-36.50
-38.57
-39.49
-38.17
-33.85
-26.32
-16.02
-4.05
8.13
18.92
26.98
31.43
32.05
29.21
23.84
17.20
10.60
5.16
1.62
0.15
0.45
1.84
3.52
4.85
5.49
5.39
4.80
4.06
3.44
3.02
2.73
2.48
2.19
1.88
1.46
0.83
-0.22
-1.74
-3.47
-4.87
-5.35
-4.64
-3.01
-1.17
0.11
0.36
-0.31
-1.35
-2.07
-1.98
-0.99
0.69
2.70
4.82
6.96
9.16
11.42
13.59
15.29
16.04
15.42
13.28
9.93
6.03
2.36
-0.54
-2.68
-4.53
-6.83
-10.13
-14.54
-19.65
-24.73
-29.03
-31.97
-33.25
-32.93
-31.24
-28.59
-25.41
-22.13
-19.14
-16.77
-15.19
-14.48
-14.52
-15.08
-15.87
-16.68
-17.31
-17.64
-17.50
-16.62
-14.65
-11.24
-6.20
0.34
7.91
15.77
23.13
29.38
34.25
37.74
39.96
41.01
40.91
39.60
37.16
33.82
30.02
26.27
22.96
20.26
18.10
16.23
14.40
12.41
10.19
7.77
5.24
2.78
0.53
-1.38
-2.95
-4.39
-6.04
-8.17
-10.91
-14.09
-17.34
-20.20
-22.27
-23.26
-22.99
-21.38
-18.50
-14.64
-10.35
-6.31
-3.14
-1.11
-0.08
0.48
1.23
2.63
4.82
7.49
10.09
12.04
12.94
12.71
11.62
10.12
8.79
8.07
8.24
9.30
11.02
13.04
14.98
16.55
17.58
18.09
18.14
17.84
17.24
16.28
14.90
13.10
11.05
9.02
7.36
6.25
5.66
5.28
4.72
3.66
2.00
-0.10
-2.38
-4.51
-6.35
-7.98
-9.62
-11.62
-14.25
-17.60
-21.53
-25.62
-29.24
-31.74
-32.52
-31.26
-28.01
-23.21
-17.62
-12.20
-7.83
-5.07
-4.00
-4.22
-4.98
-5.47
-5.16
-3.94
-2.12
-0.16
1.55
2.91
4.10
5.36
6.81
8.31
9.55
10.22
10.19
9.63
8.88
8.32
8.14
8.27
8.50
8.57
8.32
7.75
6.96
6.00
4.94
3.74
2.34
0.73
-1.03
-2.74
-4.13
-4.99
-5.26
-5.06
-4.67
-4.33
-4.18
-4.23
-4.51
-5.10
-6.17
-7.83
-9.87
-11.76
-12.82
-12.42
-10.35
-6.77
-2.20
2.72
7.40
11.36
14.32
16.26
17.38
18.05
18.61
19.17
19.62
19.72
19.33
18.52
17.48
16.43
15.44
14.52
13.60
12.71
11.95
11.41
11.15
11.17
11.41
11.78
12.03
11.87
11.00
9.36
7.23
5.12
3.57
2.84
2.80
3.06
3.20
3.04
2.67
2.31
2.10
1.89
1.42
0.40
-1.19
-3.16
-5.15
-6.85
-8.05
-8.67
-8.63
-7.93
-6.62
-4.94
-3.30
-2.13
-1.73
-2.09
-2.96
-3.97
-4.82
-5.33
-5.42
-5.12
-4.49
-3.68
-2.85
-2.09
-1.26
-0.08
1.71
4.15
6.95
9.63
11.82
13.48
14.85
16.14
17.35
18.19
18.29
17.50
15.96
14.08
12.26
10.73
9.52
8.51
7.55
6.44
4.98
3.02
0.55
-2.19
-4.74
-6.66
-7.78
-8.30
-8.71
-9.51
-10.94
-12.97
-15.44
-18.21
-21.13
-23.99
-26.32
-27.45
-26.78
-24.13
-19.90
-14.99
-10.41
-6.95
-4.89
-3.99
-3.71
-3.38
-2.53
-1.02
0.94
2.86
4.31
5.03
5.12
4.91
4.69
4.62
4.68
4.85
5.15
5.75
6.75
8.03
9.26
9.99
9.86
8.86
7.24
5.40
3.66
2.22
1.19
0.59
0.39
0.46
0.58
0.48
0.01
-0.75
-1.58
-2.24
-2.59
-2.70
-2.70
-2.72
-2.86
-3.21
-4.01
-5.59
-8.15
-11.49
-14.83
-17.06
-17.19
-14.90
-10.65
-5.46
-0.37
3.82
6.74
8.33
8.67
8.04
6.97
6.08
5.89
6.49
7.45
8.18
8.32
8.06
7.98
8.64
10.06
11.73
12.94
13.23
12.70
11.88
11.30
11.23
11.46
11.61
11.34
10.57
9.44
8.15
6.89
5.72
4.58
3.34
1.80
-0.19
-2.66
-5.38
-7.94
-9.90
-10.97
-11.20
-10.95
-10.80
-11.23
-12.41
-14.15
-15.92
-17.09
-17.07
-15.52
-12.33
-7.62
-1.78
4.58
10.59
15.32
18.01
18.41
16.93
14.56
12.43
11.37
11.54
12.50
13.62
14.56
15.42
16.61
18.41
20.50
22.02
21.89
19.43
14.80
8.85
2.71
-2.78
-7.37
-11.19
-14.49
-17.31
-19.41
-20.51
-20.49
-19.51
-17.97
-16.35
-15.16
-14.77
-15.34
-16.76
-18.61
-20.25
-21.09
-20.90
-19.90
-18.70
-17.99
-18.22
-19.47
-21.54
-24.03
-26.48
-28.34
-29.01
-27.94
-24.79
-19.67
-13.15
-6.28
-0.22
4.06
6.04
5.86
4.27
2.35
1.10
1.09
2.25
4.03
5.66
6.58
6.60
5.89
4.81
3.66
2.65
1.89
1.49
1.63
2.57
4.50
7.42
10.97
14.43
17.02
18.20
17.98
16.90
15.79
15.33
15.77
16.79
17.74
17.94
16.91
14.49
10.84
6.43
1.95
-1.74
-3.93
-4.26
-2.98
-0.82
1.26
2.41
2.12
0.23
-3.01
-7.01
-10.85
-13.42
-13.81
-11.63
-7.39
-2.33
1.90
3.88
3.00
-0.35
-4.98
-9.44
-12.59
-14.08
-14.21
-13.61
-12.83
-12.03
-11.16
-10.19
-9.37
-9.10
-9.67
-10.91
-12.18
-12.65
-11.75
-9.44
-6.21
-2.79
0.13
2.17
3.29
3.65
3.54
3.19
2.74
2.12
1.14
-0.41
-2.71
-5.72
-9.12
-12.36
-14.74
-15.72
-15.08
-13.07
-10.39
-7.97
-6.63
-6.81
-8.46
-11.14
-14.16
-16.72
-18.00
-17.27
-14.07
-8.59
-1.71
5.15
10.58
13.72
14.53
13.59
11.64
9.28
6.92
4.88
3.53
3.14
3.67
4.70
5.72
6.43
7.06
8.14
10.11
12.89
15.91
18.51
20.40
21.84
23.29
24.91
26.37
27.02
26.48
24.94
23.10
21.58
20.43
19.05
16.66
12.84
7.93
2.90
-1.24
-3.95
-5.45
-6.42
-7.61
-9.50
-12.16
-15.38
-18.87
-22.32
-25.44
-27.83
-28.98
-28.44
-25.90
-21.53
-16.00
-10.35
-5.69
-2.75
-1.58
-1.60
-1.83
-1.39
0.15
2.66
5.51
7.96
9.44
9.77
9.21
8.31
7.71
7.94
9.25
11.56
14.49
17.48
20.00
21.60
22.01
21.21
19.33
16.74
13.98
11.56
9.78
8.65
7.84
7.00
5.98
4.87
3.91
3.17
2.45
1.36
-0.36
-2.57
-4.88
-6.91
-8.63
-10.47
-13.03
-16.68
-21.19
-25.85
-29.74
-32.12
-32.64
-31.34
-28.54
-24.70
-20.39
-16.13
-12.29
-9.04
-6.40
-4.36
-2.97
-2.24
-2.02
-1.87
-1.22
0.33
2.67
5.34
7.80
9.96
12.24
15.19
18.93
22.71
25.21
25.25
22.56
18.02
13.20
9.46
7.36
6.52
6.12
5.53
4.70
4.03
4.09
5.09
6.85
8.80
10.26
10.69
9.81
7.64
4.39
0.44
-3.87
-8.28
-12.57
-16.56
-20.02
-22.70
-24.51
-25.59
-26.40
-27.39
-28.76
-30.13
-30.64
-29.31
-25.63
-19.94
-13.39
-7.42
-3.02
-0.30
1.58
3.72
6.88
10.94
15.05
18.10
19.36
18.77
16.80
14.11
11.19
8.31
5.61
3.40
2.10
2.15
3.76
6.70
10.45
14.20
17.20
18.87
18.89
17.32
14.55
11.23
8.10
5.77
4.56
4.40
4.85
5.35
5.50
5.31
5.17
5.54
6.53
7.62
7.81
6.06
1.94
-4.19
-11.36
-18.50
-24.87
-30.15
-34.16
-36.47
-36.46
-33.71
-28.48
-21.90
-15.57
-10.69
-7.58
-5.51
-3.38
-0.45
3.29
7.22
10.60
13.03
14.50
15.24
15.52
15.53
15.48
15.58
16.00
16.78
17.80
18.80
19.61
20.07
20.05
19.35
17.79
15.35
12.42
9.70
7.88
7.21
7.46
8.07
8.66
9.28
10.18
11.53
13.00
13.87
13.52
11.81
9.29
6.75
4.78
3.41
2.13
0.28
-2.58
-6.53
-11.35
-16.67
-22.04
-26.98
-30.88
-33.20
-33.52
-31.76
-28.18
-23.29
-17.77
-12.29
-7.44
-3.69
-1.26
-0.16
-0.12
-0.66
-1.16
-1.04
0.18
2.68
6.22
10.15
13.56
15.64
16.04
15.09
13.65
12.79
13.28
15.27
18.28
21.42
23.86
25.07
25.03
24.08
22.65
21.05
19.32
17.31
14.86
12.02
9.07
6.43
4.43
3.19
2.59
2.41
2.46
2.61
2.65
2.17
0.73
-1.89
-5.42
-9.12
-12.11
-13.89
-14.69
-15.33
-16.67
-19.05
-22.00
-24.52
-25.59
-24.70
-21.90
-17.65
-12.51
-7.01
-1.66
2.92
6.14
7.70
7.77
6.96
6.10
5.82
6.36
7.60
9.20
10.80
12.21
13.32
14.15
14.73
15.09
15.28
15.33
15.30
15.21
15.07
14.84
14.46
13.84
12.96
11.87
10.68
9.52
8.41
7.20
5.70
3.78
1.57
-0.55
-2.16
-3.00
-3.13
-2.74
-2.14
-1.58
-1.34
-1.78
-3.29
-6.12
-10.11
-14.67
-19.01
-22.51
-24.98
-26.57
-27.60
-28.15
-28.07
-27.11
-25.21
-22.59
-19.59
-16.37
-12.74
-8.24
-2.61
3.89
10.37
15.66
18.88
19.87
19.22
17.96
17.04
17.01
17.97
19.67
21.76
23.94
25.99
27.73
28.96
29.52
29.34
28.56
27.48
26.45
25.74
25.37
25.26
25.31
25.52
26.08
27.23
29.08
31.55
34.30
36.76
38.27
38.06
35.36
29.60
20.56
8.75
-4.51
-17.32
-27.83
-34.85
-38.36
-39.23
-38.75
-37.93
-37.10
-36.13
-34.75
-33.00
-31.27
-30.14
-29.86
-30.12
-30.15
-28.99
-26.00
-21.23
-15.44
-9.79
-5.27
-2.18
-0.14
1.69
4.04
7.05
10.19
12.59
13.55
12.86
10.89
8.29
5.70
3.58
2.19
1.63
1.86
2.70
3.86
4.97
5.69
5.69
4.69
2.51
-0.80
-4.88
-9.07
-12.74
-15.43
-17.12
-18.07
-18.64
-19.10
-19.59
-20.17
-20.89
-21.74
-22.66
-23.45
-23.97
-24.31
-24.84
-25.98
-27.87
-30.29
-32.72
-34.73
-36.26
-37.51
-38.78
-40.23
-41.84
-43.56
-45.42
-47.44
-49.45
-50.94
-51.25
-49.93
-47.07
-43.26
-39.35
-36.04
-33.65
-32.15
-31.36
-31.12
-31.48
-32.69
-35.28
-39.81
-46.70
-55.90
-66.78
-78.34
-89.72
-100.64
-111.48
-123.04
-135.98
-150.46
-166.20
-182.85
-200.33
-218.73
-237.87
-256.85
-274.10
-288.00
-297.68
-303.27
-305.57
-305.19
-301.92
-294.73
-282.53
-265.00
-243.16
-219.10
-195.15
-173.02
-153.40
-136.12
-120.71
-106.88
-94.54
-83.58
-73.57
-63.73
-53.11
-41.07
-27.51
-12.82
2.37
17.62
32.99
49.07
66.65
86.39
108.40
132.23
156.96
181.66
205.72
229.04
252.05
275.70
301.31
330.18
362.97
398.87
435.01
466.79
489.04
497.83
491.94
473.36
446.33
415.68
385.16
356.61
330.34
305.94
283.11
261.86
242.21
223.82
205.94
187.79
169.07
150.23
132.21
116.09
102.44
91.10
81.24
71.74
61.68
50.59
38.64
26.39
14.46
3.17
-7.58
-18.16
-28.96
-40.09
-51.33
-62.20
-72.27
-81.30
-89.25
-96.12
-101.78
-105.91
-108.12
-108.23
-106.40
-103.09
-98.88
-94.18
-89.13
-83.62
-77.50
-70.73
-63.41
-55.74
-47.91
-40.05
-32.18
-24.29
-16.39
-8.58
-1.07
5.79
11.59
16.00
18.86
20.33
20.91
21.23
21.86
23.06
24.67
26.29
27.47
27.99
27.97
27.78
27.80
28.22
28.94
29.65
30.00
29.79
29.07
28.13
27.32
26.92
27.08
27.71
28.55
29.27
29.49
28.97
27.62
25.54
22.98
20.21
17.45
14.74
12.04
9.24
6.26
3.15
0.03
-2.92
-5.61
-8.11
-10.64
-13.55
-17.12
-21.46
-26.43
-31.69
-36.73
-41.05
-44.18
-45.85
-46.00
-44.83
-42.81
-40.52
-38.42
-36.71
-35.27
-33.77
-31.93
-29.66
-27.15
-24.67
-22.43
-20.39
-18.38
-16.24
-13.93
-11.65
-9.66
-8.21
-7.34
-6.94
-6.79
-6.66
-6.40
-5.95
-5.36
-4.79
-4.40
-4.30
-4.47
-4.75
-4.95
-4.95
-4.90
-5.12
-6.07
-7.99
-10.83
-14.19
-17.54
-20.48
-22.88
-24.94
-26.95
-29.11
-31.41
-33.62
-35.43
-36.58
-36.90
-36.32
-34.77
-32.21
-28.61
-24.12
-19.04
-13.84
-8.99
-4.83
-1.51
1.04
2.97
4.43
5.49
6.22
6.74
7.29
8.10
9.22
10.51
11.59
12.14
12.00
11.35
10.54
9.87
9.42
8.96
8.15
6.78
4.91
2.91
1.32
0.60
0.98
2.43
4.63
7.12
9.34
10.83
11.30
10.74
9.44
7.87
6.52
5.80
5.91
6.83
8.37
10.18
11.80
12.78
12.73
11.52
9.25
6.29
3.04
-0.20
-3.34
-6.39
-9.34
-12.03
-14.18
-15.53
-15.99
-15.65
-14.77
-13.70
-12.75
-12.18
-12.13
-12.61
-13.49
-14.47
-15.16
-15.22
-14.41
-12.73
-10.43
-7.96
-5.93
-4.95
-5.46
-7.48
-10.52
-13.70
-16.09
-17.11
-16.73
-15.41
-13.82
-12.58
-12.13
-12.76
-14.63
-17.74
-21.81
-26.25
-30.20
-32.79
-33.39
-31.75
-27.93
-22.19
-14.90
-6.52
2.29
10.73
18.04
23.68
27.57
30.04
31.65
32.98
34.37
35.84
37.12
37.74
37.30
35.60
32.81
29.42
25.99
22.99
20.55
18.60
16.97
15.68
14.95
15.10
16.27
18.25
20.51
22.27
22.94
22.26
20.45
18.08
15.90
14.47
14.05
14.50
15.42
16.34
16.92
17.08
16.93
16.65
16.39
16.13
15.73
14.96
13.68
11.90
9.80
7.64
5.72
4.20
3.10
2.25
1.41
0.37
-0.95
-2.49
-4.01
-5.29
-6.18
-6.72
-7.09
-7.52
-8.16
-9.03
-10.07
-11.23
-12.55
-14.11
-15.91
-17.76
-19.32
-20.21
-20.24
-19.50
-18.31
-17.00
-15.71
-14.31
-12.56
-10.36
-7.85
-5.43
-3.47
-2.15
-1.30
-0.60
0.24
1.20
2.00
2.27
1.82
0.84
-0.19
-0.72
-0.43
0.61
2.02
3.30
4.14
4.52
4.65
4.77
4.92
4.90
4.32
2.94
0.85
-1.51
-3.56
-4.86
-5.41
-5.64
-6.10
-7.13
-8.63
-10.13
-11.14
-11.47
-11.38
-11.42
-11.99
-13.06
-14.22
-14.92
-14.91
-14.42
-14.01
-14.19
-15.01
-16.00
-16.37
-15.54
-13.39
-10.34
-7.04
-4.03
-1.50
0.60
2.39
3.84
4.82
5.27
5.45
5.88
7.10
9.35
12.33
15.29
17.31
17.82
16.79
14.82
12.76
11.39
11.03
11.48
12.12
12.21
11.12
8.59
4.72
-0.11
-5.37
-10.52
-15.13
-18.93
-21.76
-23.55
-24.30
-24.08
-23.04
-21.46
-19.67
-17.94
-16.42
-15.10
-13.84
-12.53
-11.21
-10.06
-9.38
-9.39
-10.13
-11.49
-13.31
-15.42
-17.67
-19.83
-21.55
-22.38
-21.99
-20.39
-17.99
-15.47
-13.42
-12.02
-10.96
-9.62
-7.49
-4.49
-1.06
2.12
4.49
5.87
6.48
6.78
7.18
7.86
8.75
9.68
10.53
11.25
11.91
12.54
13.15
13.66
14.03
14.24
14.32
14.32
14.24
14.05
13.69
13.16
12.53
11.88
11.32
10.83
10.32
9.67
8.77
7.62
6.26
4.77
3.22
1.66
0.12
-1.37
-2.76
-4.03
-5.24
-6.53
-8.06
-9.96
-12.27
-14.92
-17.74
-20.51
-22.99
-24.93
-26.09
-26.34
-25.68
-24.21
-22.17
-19.80
-17.26
-14.63
-11.96
-9.27
-6.67
-4.24
-2.05
-0.05
1.83
3.68
5.43
6.92
7.97
8.49
8.58
8.50
8.53
8.83
9.38
10.01
10.51
10.79
10.87
10.86
10.87
10.94
11.04
11.14
11.18
11.17
11.10
10.94
10.64
10.17
9.57
8.95
8.40
7.92
7.39
6.63
5.46
3.85
1.91
-0.12
-2.00
-3.58
-4.87
-5.99
-7.11
-8.39
-9.94
-11.84
-14.13
-16.73
-19.42
-21.86
-23.65
-24.49
-24.28
-23.15
-21.32
-19.05
-16.49
-13.67
-10.65
-7.54
-4.58
-1.97
0.14
1.83
3.28
4.68
6.08
7.42
8.56
9.45
10.15
10.83
11.66
12.69
13.84
14.92
15.76
16.19
16.11
15.54
14.54
13.33
12.19
11.35
10.91
10.73
10.52
9.98
8.97
7.59
6.18
5.07
4.42
4.13
3.92
3.48
2.65
1.48
0.16
-1.15
-2.37
-3.54
-4.71
-5.88
-7.01
-8.08
-9.17
-10.50
-12.26
-14.53
-17.09
-19.48
-21.12
-21.56
-20.61
-18.44
-15.46
-12.17
-9.02
-6.24
-3.88
-1.80
0.20
2.24
4.28
6.17
7.74
8.91
9.81
10.62
11.50
12.46
13.35
14.00
14.30
14.31
14.22
14.16
14.18
14.21
14.15
13.92
13.57
13.15
12.64
11.98
11.12
10.11
9.14
8.43
8.09
7.99
7.79
7.13
5.82
3.92
1.69
-0.58
-2.79
-5.07
-7.66
-10.71
-14.22
-17.96
-21.64
-24.95
-27.68
-29.66
-30.77
-30.94
-30.19
-28.59
-26.31
-23.55
-20.50
-17.30
-14.12
-11.09
-8.29
-5.74
-3.33
-0.98
1.38
3.66
5.60
6.98
7.73
8.02
8.21
8.64
9.43
10.41
11.22
11.61
11.52
11.19
10.94
10.96
11.17
11.30
11.08
10.44
9.60
8.87
8.43
8.19
7.80
6.87
5.23
3.04
0.75
-1.15
-2.42
-3.16
-3.72
-4.51
-5.73
-7.32
-9.02
-10.61
-12.11
-13.74
-15.80
-18.43
-21.38
-24.12
-26.02
-26.61
-25.82
-23.86
-21.10
-17.84
-14.18
-10.21
-6.05
-1.98
1.62
4.44
6.45
7.94
9.35
10.98
12.81
14.50
15.53
15.60
14.83
13.72
12.91
12.78
13.28
13.99
14.43
14.32
13.79
13.17
12.77
12.66
12.62
12.33
11.59
10.45
9.15
8.05
7.35
7.06
7.00
6.84
6.28
5.12
3.40
1.37
-0.60
-2.18
-3.26
-3.98
-4.63
-5.55
-6.89
-8.61
-10.58
-12.65
-14.71
-16.67
-18.39
-19.63
-20.09
-19.53
-17.92
-15.44
-12.45
-9.36
-6.51
-4.08
-2.10
-0.45
1.05
2.53
4.01
5.42
6.64
7.61
8.33
8.91
9.48
10.09
10.72
11.27
11.65
11.84
11.87
11.77
11.57
11.24
10.75
10.07
9.21
8.25
7.25
6.29
5.44
4.70
4.01
3.27
2.35
1.22
-0.11
-1.53
-2.92
-4.23
-5.51
-6.90
-8.56
-10.57
-12.87
-15.26
-17.45
-19.17
-20.21
-20.52
-20.14
-19.15
-17.63
-15.64
-13.22
-10.48
-7.60
-4.87
-2.52
-0.64
0.96
2.66
4.86
7.82
11.45
15.38
19.04
21.94
23.78
24.56
24.48
23.82
22.80
21.55
20.13
18.59
16.97
15.33
13.68
12.02
10.36
8.73
7.21
5.90
4.88
4.13
3.52
2.86
1.91
0.60
-1.04
-2.81
-4.46
-5.84
-6.95
-8.00
-9.24
-10.88
-12.95
-15.28
-17.58
-19.56
-20.99
-21.75
-21.70
-20.78
-18.97
-16.36
-13.20
-9.90
-6.91
-4.57
-2.99
-2.04
-1.37
-0.60
0.50
1.94
3.52
4.94
5.93
6.41
6.45
6.29
6.17
6.28
6.65
7.26
8.02
8.87
9.78
10.62
11.20
11.24
10.58
9.29
7.74
6.46
5.84
5.96
6.45
6.73
6.32
5.10
3.38
1.63
0.26
-0.65
-1.32
-2.01
-2.90
-3.92
-4.86
-5.58
-6.13
-6.78
-7.81
-9.38
-11.36
-13.37
-14.98
-15.89
-16.09
-15.76
-15.13
-14.29
-13.13
-11.43
-9.02
-5.99
-2.66
0.56
3.32
5.51
7.18
8.49
9.50
10.21
10.65
10.95
11.39
12.23
13.48
14.68
15.06
13.79
10.50
5.54
-0.04
-4.91
-7.97
-8.85
-7.97
-6.37
-5.25
-5.49
-7.32
-10.31
-13.52
-15.88
-16.52
-15.09
-11.88
-7.66
-3.37
0.19
2.64
3.99
4.49
4.35
3.65
2.34
0.42
-1.95
-4.42
-6.61
-8.32
-9.60
-10.72
-11.92
-13.20
-14.25
-14.57
-13.75
-11.69
-8.74
-5.48
-2.51
-0.12
1.69
3.16
4.52
5.80
6.86
7.55
7.82
7.85
7.93
8.26
8.80
9.29
9.43
9.08
8.37
7.64
7.22
7.24
7.57
7.94
8.11
8.03
7.81
7.63
7.64
7.87
8.25
8.66
8.94
8.90
8.35
7.16
5.38
3.25
1.15
-0.54
-1.68
-2.31
-2.70
-3.13
-3.79
-4.71
-5.86
-7.17
-8.68
-10.48
-12.63
-15.10
-17.69
-20.10
-21.97
-23.00
-23.02
-22.08
-20.31
-17.95
-15.26
-12.45
-9.74
-7.30
-5.21
-3.43
-1.76
-0.02
1.94
4.05
6.09
7.76
8.88
9.46
9.72
9.89
10.16
10.53
10.88
11.07
11.04
10.86
10.67
10.58
10.61
10.62
10.44
9.91
9.00
7.87
6.74
5.84
5.30
5.05
4.95
4.77
4.34
3.58
2.54
1.34
0.20
-0.74
-1.37
-1.74
-1.99
-2.34
-2.97
-4.02
-5.50
-7.30
-9.24
-11.09
-12.69
-13.99
-15.06
-16.00
-16.89
-17.68
-18.21
-18.26
-17.71
-16.54
-14.88
-12.86
-10.58
-8.12
-5.54
-2.97
-0.63
1.32
2.75
3.67
4.21
4.51
4.72
4.93
5.19
5.52
5.92
6.41
6.97
7.57
8.15
8.68
9.10
9.41
9.58
9.60
9.46
9.16
8.72
8.20
7.65
7.07
6.44
5.71
4.87
4.02
3.27
2.75
2.44
2.19
1.80
1.12
0.14
-1.01
-2.13
-3.07
-3.76
-4.29
-4.79
-5.48
-6.53
-8.07
-10.05
-12.27
-14.36
-15.92
-16.64
-16.40
-15.31
-13.57
-11.43
-9.06
-6.62
-4.23
-2.03
-0.13
1.43
2.73
3.89
4.97
5.93
6.62
6.87
6.59
5.84
4.84
3.84
3.07
2.67
2.68
3.06
3.68
4.38
4.98
5.33
5.40
5.23
4.92
4.55
4.11
3.57
2.91
2.15
1.37
0.60
-0.17
-1.01
-1.92
-2.87
-3.75
-4.45
-5.04
-5.66
-6.54
-7.85
-9.63
-11.76
-14.08
-16.38
-18.40
-19.89
-20.57
-20.26
-18.96
-16.89
-14.43
-11.97
-9.75
-7.82
-6.07
-4.35
-2.59
-0.84
0.77
2.12
3.14
3.83
4.29
4.64
5.00
5.45
6.01
6.65
7.29
7.85
8.30
8.61
8.79
8.84
8.75
8.54
8.25
7.93
7.66
7.50
7.43
7.35
7.09
6.47
5.40
3.94
2.30
0.77
-0.41
-1.20
-1.75
-2.37
-3.32
-4.76
-6.63
-8.75
-10.94
-13.02
-14.96
-16.74
-18.38
-19.79
-20.84
-21.32
-21.08
-20.03
-18.23
-15.87
-13.21
-10.55
-8.09
-5.93
-4.03
-2.26
-0.49
1.37
3.32
5.30
7.17
8.76
9.93
10.67
11.06
11.28
11.54
11.98
12.58
13.22
13.75
14.05
14.09
13.91
13.56
13.01
12.25
11.24
10.04
8.79
7.63
6.66
5.86
5.11
4.27
3.27
2.15
1.00
-0.07
-1.02
-1.88
-2.75
-3.73
-4.90
-6.30
-7.90
-9.62
-11.34
-12.93
-14.24
-15.05
-15.18
-14.46
-12.87
-10.54
-7.80
-5.01
-2.47
-0.28
1.63
3.43
5.21
6.92
8.38
9.45
10.08
10.38
10.57
10.81
11.17
11.62
12.03
12.30
12.38
12.26
11.96
11.49
10.89
10.19
9.43
8.70
8.06
7.60
7.33
7.15
6.89
6.32
5.32
3.94
2.40
0.94
-0.30
-1.42
-2.68
-4.37
-6.64
-9.44
-12.56
-15.74
-18.67
-21.03
-22.48
-22.78
-21.85
-19.85
-17.15
-14.19
-11.31
-8.67
-6.26
-4.06
-2.05
-0.30
1.12
2.21
3.08
3.87
4.74
5.77
6.92
8.14
9.30
10.25
10.94
11.37
11.63
11.87
12.16
12.52
12.83
12.97
12.83
12.45
11.93
11.40
10.93
10.50
9.99
9.30
8.38
7.28
6.08
4.86
3.61
2.27
0.80
-0.78
-2.39
-3.93
-5.35
-6.70
-8.12
-9.72
-11.49
-13.19
-14.50
-15.14
-14.93
-13.95
-12.40
-10.53
-8.54
-6.57
-4.68
-2.91
-1.26
0.32
1.94
3.65
5.40
6.97
8.14
8.77
8.96
9.01
9.29
10.00
11.08
12.25
13.18
13.67
13.76
13.61
13.39
13.17
12.88
12.42
11.76
10.97
10.21
9.56
9.03
8.55
8.00
7.32
6.52
5.66
4.82
4.01
3.15
2.19
1.07
-0.18
-1.48
-2.79
-4.09
-5.41
-6.82
-8.37
-10.05
-11.72
-13.16
-14.07
-14.24
-13.58
-12.21
-10.39
-8.44
-6.60
-4.98
-3.49
-2.03
-0.51
1.03
2.47
3.72
4.74
5.56
6.23
6.75
7.06
7.09
6.90
6.61
6.44
6.55
6.93
7.44
7.81
7.79
7.26
6.25
4.95
3.58
2.38
1.47
0.85
0.40
-0.04
-0.64
-1.41
-2.29
-3.15
-3.89
-4.51
-5.14
-5.92
-6.98
-8.32
-9.87
-11.46
-12.93
-14.12
-14.92
-15.25
-15.08
-14.45
-13.44
-12.16
-10.66
-8.98
-7.16
-5.25
-3.34
-1.54
0.07
1.45
2.62
3.59
4.38
4.95
5.27
5.34
5.24
5.13
5.15
5.38
5.77
6.21
6.55
6.66
6.56
6.28
5.92
5.49
4.97
4.32
3.55
2.75
2.08
1.70
1.65
1.82
1.97
1.86
1.35
0.45
-0.71
-1.97
-3.20
-4.35
-5.40
-6.42
-7.48
-8.70
-10.15
-11.83
-13.58
-15.14
-16.19
-16.50
-15.99
-14.79
-13.12
-11.23
-9.26
-7.24
-5.19
-3.17
-1.34
0.13
1.13
1.71
2.04
2.34
2.78
3.40
4.13
4.87
5.53
6.15
6.80
7.55
8.36
9.08
9.50
9.48
9.00
8.15
7.09
5.98
4.90
3.84
2.83
1.88
1.07
0.46
0.05
-0.18
-0.31
-0.34
-0.20
0.13
0.57
0.85
0.69
-0.06
-1.27
-2.52
-3.39
-3.69
-3.61
-3.65
-4.32
-5.86
-8.09
-10.55
-12.66
-14.00
-14.37
-13.72
-12.12
-9.70
-6.70
-3.49
-0.48
1.98
3.71
4.81
5.58
6.37
7.46
8.91
10.48
11.72
12.10
11.27
9.21
6.33
3.32
0.82
-0.86
-1.86
-2.64
-3.66
-5.09
-6.66
-7.84
-8.14
-7.39
-5.83
-4.03
-2.51
-1.56
-1.11
-0.83
-0.32
0.70
2.33
4.44
6.84
9.21
11.11
11.90
10.92
7.70
2.25
-4.82
-12.48
-19.62
-25.56
-30.24
-34.06
-37.48
-40.56
-42.83
-43.47
-41.78
-37.50
-30.93
-22.75
-13.78
-4.92
2.96
9.03
12.68
13.69
12.43
9.69
6.37
3.16
0.35
-2.06
-4.00
-5.05
-4.53
-1.73
3.53
10.74
18.69
25.93
31.24
33.88
33.71
30.96
26.03
19.35
11.42
2.94
-5.26
-12.34
-17.66
-20.88
-21.99
-21.09
-18.43
-14.39
-9.76
-5.74
-3.68
-4.61
-8.68
-15.00
-21.97
-27.93
-31.74
-33.00
-31.94
-28.91
-24.25
-18.26
-11.44
-4.68
0.89
4.32
5.18
3.75
0.89
-2.33
-5.02
-6.60
-6.83
-5.59
-2.89
1.15
6.24
11.85
17.26
21.75
24.77
26.05
25.64
23.85
21.07
17.67
13.87
9.74
5.33
0.79
-3.53
-7.10
-9.32
-9.71
-8.06
-4.51
0.39
5.71
10.27
12.90
12.79
9.83
4.74
-1.22
-6.75
-11.04
-14.01
-16.07
-17.64
-18.69
-18.67
-16.86
-12.84
-6.88
0.12
6.97
12.67
16.68
18.85
19.31
18.14
15.44
11.40
6.54
1.71
-2.06
-3.96
-3.68
-1.64
1.23
3.90
5.64
6.25
6.03
5.49
5.01
4.70
4.39
3.82
2.77
1.15
-1.02
-3.62
-6.49
-9.43
-12.19
-14.49
-16.11
-16.90
-16.78
-15.79
-13.98
-11.51
-8.58
-5.46
-2.54
-0.18
1.37
2.05
2.01
1.52
0.82
-0.00
-1.03
-2.38
-4.02
-5.72
-7.00
-7.43
-6.80
-5.24
-3.21
-1.22
0.42
1.75
3.07
4.69
6.67
8.85
10.82
12.25
13.05
13.42
13.73
14.23
14.96
15.72
16.23
16.36
16.17
15.88
15.62
15.43
15.21
14.89
14.58
14.45
14.63
15.02
15.21
14.69
13.11
10.49
7.22
3.91
1.09
-1.03
-2.53
-3.64
-4.62
-5.60
-6.59
-7.49
-8.19
-8.55
-8.48
-7.98
-7.20
-6.43
-6.02
-6.23
-7.04
-8.12
-8.98
-9.12
-8.30
-6.62
-4.46
-2.23
-0.25
1.37
2.67
3.79
4.83
5.88
6.93
7.99
9.07
10.21
11.47
12.85
14.28
15.54
16.33
16.35
15.48
13.89
12.00
10.34
9.24
8.73
8.48
8.10
7.46
6.77
6.54
7.24
9.01
11.54
14.15
16.06
16.57
15.23
11.80
6.36
-0.79
-9.02
-17.52
-25.41
-31.96
-36.74
-39.60
-40.64
-39.96
-37.69
-33.98
-29.10
-23.45
-17.52
-11.82
-6.65
-2.11
1.93
5.66
9.19
12.53
15.51
17.98
19.86
21.16
22.01
22.59
23.08
23.63
24.33
25.16
25.99
26.52
26.43
25.53
23.93
21.97
20.04
18.35
16.75
14.91
12.55
9.70
6.78
4.31
2.68
1.90
1.60
1.31
0.72
-0.24
-1.38
-2.50
-3.50
-4.46
-5.49
-6.73
-8.23
-10.00
-12.07
-14.45
-17.11
-19.91
-22.55
-24.60
-25.63
-25.35
-23.69
-20.87
-17.28
-13.41
-9.69
-6.43
-3.80
-1.82
-0.39
0.61
1.37
2.04
2.77
3.66
4.79
6.18
7.83
9.70
11.68
13.54
15.03
15.84
15.81
14.96
13.54
11.96
10.63
9.78
9.44
9.37
9.27
8.84
7.92
6.50
4.69
2.65
0.57
-1.40
-3.13
-4.48
-5.37
-5.78
-5.80
-5.64
-5.67
-6.24
-7.58
-9.68
-12.24
-14.73
-16.63
-17.55
-17.39
-16.28
-14.47
-12.16
-9.49
-6.57
-3.52
-0.57
2.06
4.20
5.78
6.82
7.35
7.39
6.94
6.02
4.77
3.42
2.24
1.45
1.19
1.51
2.34
3.58
5.04
6.49
7.69
8.51
8.92
9.06
9.06
8.97
8.67
7.95
6.58
4.49
1.79
-1.19
-4.07
-6.49
-8.21
-9.16
-9.41
-9.13
-8.53
-7.87
-7.40
-7.36
-7.88
-8.93
-10.29
-11.57
-12.36
-12.41
-11.68
-10.41
-8.94
-7.59
-6.49
-5.58
-4.69
-3.66
-2.39
-0.96
0.54
1.99
3.33
4.53
5.62
6.61
7.44
8.04
8.33
8.26
7.89
7.34
6.83
6.57
6.71
7.31
8.31
9.50
10.60
11.28
11.32
10.64
9.35
7.68
5.83
3.95
2.16
0.66
-0.24
-0.24
0.76
2.42
3.98
4.60
3.79
1.68
-1.06
-3.64
-5.62
-7.11
-8.58
-10.30
-12.04
-13.02
-12.37
-9.70
-5.41
-0.57
3.62
6.41
7.79
8.41
9.08
10.31
12.02
13.60
14.27
13.51
11.38
8.50
5.74
3.80
2.89
2.68
2.65
2.48
2.24
2.39
3.33
5.03
6.95
8.24
8.27
6.94
4.76
2.51
0.79
-0.25
-0.86
-1.38
-2.03
-2.73
-3.32
-3.68
-3.91
-4.27
-4.98
-6.11
-7.58
-9.16
-10.68
-12.01
-13.11
-13.93
-14.41
-14.40
-13.78
-12.49
-10.59
-8.21
-5.58
-2.97
-0.63
1.19
2.37
2.95
3.11
3.13
3.24
3.54
3.99
4.49
4.96
5.40
5.91
6.58
7.39
8.26
9.01
9.51
9.74
9.75
9.60
9.29
8.71
7.76
6.39
4.68
2.83
1.04
-0.50
-1.69
-2.49
-2.96
-3.19
-3.39
-3.84
-4.77
-6.26
-8.17
-10.27
-12.26
-13.99
-15.45
-16.67
-17.65
-18.27
-18.35
-17.77
-16.57
-14.91
-12.99
-10.95
-8.89
-6.83
-4.83
-3.01
-1.51
-0.46
0.07
0.10
-0.26
-0.86
-1.45
-1.78
-1.60
-0.73
0.83
2.93
5.33
7.70
9.76
11.30
12.20
12.45
12.11
11.33
10.30
9.23
8.26
7.45
6.75
6.04
5.18
4.09
2.81
1.44
0.11
-1.12
-2.26
-3.34
-4.44
-5.55
-6.63
-7.63
-8.52
-9.33
-10.17
-11.16
-12.42
-13.98
-15.68
-17.26
-18.33
-18.54
-17.72
-15.99
-13.67
-11.18
-8.85
-6.73
-4.66
-2.41
0.13
2.84
5.45
7.74
9.68
11.42
13.18
15.00
16.68
17.83
18.16
17.61
16.44
15.05
13.72
12.52
11.33
10.09
8.89
7.98
7.62
7.83
8.35
8.71
8.48
7.45
5.72
3.65
1.73
0.43
0.05
0.60
1.84
3.25
4.28
4.52
3.77
2.07
-0.40
-3.51
-7.14
-11.17
-15.29
-19.04
-21.84
-23.22
-22.92
-20.94
-17.54
-13.14
-8.32
-3.68
0.18
2.78
3.98
3.94
3.10
1.93
0.84
0.05
-0.42
-0.58
-0.57
-0.54
-0.62
-0.86
-1.13
-1.15
-0.70
0.16
1.07
1.40
0.62
-1.37
-4.14
-6.84
-8.59
-8.87
-7.69
-5.51
-3.01
-0.78
0.75
1.30
0.68
-1.19
-4.20
-7.91
-11.59
-14.37
-15.59
-15.01
-12.95
-10.12
-7.31
-5.10
-3.62
-2.63
-1.75
-0.65
0.78
2.43
4.10
5.62
6.89
7.88
8.55
8.83
8.61
7.84
6.57
4.97
3.25
1.55
-0.10
-1.78
-3.56
-5.36
-6.96
-8.05
-8.43
-8.07
-7.17
-6.06
-4.97
-4.01
-3.15
-2.34
-1.66
-1.26
-1.31
-1.81
-2.56
-3.24
-3.60
-3.64
-3.56
-3.64
-3.99
-4.54
-5.08
-5.41
-5.53
-5.58
-5.73
-6.01
-6.31
-6.35
-5.91
-4.89
-3.35
-1.50
0.40
2.09
3.38
4.21
4.61
4.75
4.77
4.75
4.64
4.32
3.69
2.74
1.61
0.58
-0.04
0.03
0.94
2.68
5.03
7.57
9.78
11.15
11.34
10.28
8.18
5.42
2.47
-0.27
-2.58
-4.36
-5.69
-6.62
-7.24
-7.62
-7.86
-8.10
-8.53
-9.24
-10.16
-11.05
-11.56
-11.41
-10.46
-8.77
-6.53
-3.98
-1.38
1.05
3.10
4.59
5.49
5.94
6.22
6.71
7.64
9.06
10.78
12.49
13.89
14.81
15.23
15.27
15.03
14.57
13.87
12.90
11.69
10.43
9.39
8.86
9.02
9.75
10.75
11.57
11.76
11.08
9.52
7.32
4.82
2.37
0.20
-1.58
-2.94
-3.93
-4.61
-5.09
-5.53
-6.13
-7.04
-8.30
-9.78
-11.16
-12.04
-12.05
-11.01
-8.99
-6.27
-3.30
-0.53
1.64
3.05
3.75
3.99
4.10
4.36
4.92
5.76
6.70
7.51
8.01
8.14
8.01
7.77
7.62
7.65
7.85
8.11
8.30
8.37
8.35
8.29
8.24
8.16
7.98
7.61
7.03
6.27
5.40
4.52
3.67
2.86
2.05
1.24
0.39
-0.46
-1.26
-1.94
-2.44
-2.79
-3.05
-3.39
-4.01
-5.04
-6.50
-8.22
-9.88
-11.13
-11.70
-11.46
-10.49
-8.97
-7.14
-5.23
-3.42
-1.83
-0.60
0.23
0.75
1.15
1.74
2.70
4.08
5.65
7.12
8.19
8.74
8.83
8.67
8.48
8.44
8.67
9.25
10.22
11.57
13.21
14.91
16.37
17.27
17.37
16.59
15.04
12.97
10.63
8.21
5.73
3.15
0.47
-2.18
-4.52
-6.22
-7.21
-7.74
-8.36
-9.70
-12.10
-15.42
-19.16
-22.68
-25.48
-27.30
-28.03
-27.55
-25.71
-22.50
-18.21
-13.50
-9.20
-5.95
-3.87
-2.55
-1.34
0.24
2.21
4.19
5.64
6.26
6.12
5.66
5.43
5.82
6.92
8.55
10.27
11.67
12.44
12.51
12.05
11.39
10.88
10.73
10.95
11.35
11.57
11.31
10.39
8.82
6.83
4.69
2.65
0.87
-0.62
-1.84
-2.84
-3.59
-4.02
-4.10
-3.85
-3.41
-3.01
-2.83
-3.01
-3.59
-4.52
-5.73
-7.09
-8.52
-9.85
-10.95
-11.71
-12.09
-12.07
-11.63
-10.74
-9.32
-7.45
-5.36
-3.45
-2.05
-1.23
-0.73
-0.05
1.23
3.17
5.43
7.36
8.37
8.22
7.06
5.40
3.85
2.87
2.66
3.08
3.77
4.26
4.19
3.47
2.28
1.03
0.13
-0.24
-0.23
-0.21
-0.55
-1.38
-2.49
-3.37
-3.57
-2.85
-1.37
0.38
1.87
2.78
3.13
3.23
3.42
3.89
4.51
4.91
4.72
3.79
2.28
0.59
-0.77
-1.49
-1.52
-1.06
-0.46
-0.04
0.03
-0.22
-0.65
-1.05
-1.23
-1.16
-0.90
-0.64
-0.55
-0.70
-1.09
-1.57
-2.01
-2.37
-2.73
-3.26
-4.07
-5.12
-6.16
-6.86
-6.97
-6.49
-5.75
-5.26
-5.48
-6.58
-8.28
-9.95
-10.88
-10.60
-9.10
-6.82
-4.43
-2.57
-1.55
-1.34
-1.67
-2.19
-2.64
-2.86
-2.82
-2.50
-1.96
-1.23
-0.40
0.42
1.09
1.45
1.43
1.06
0.54
0.15
0.15
0.63
1.41
2.15
2.47
2.20
1.49
0.66
0.07
-0.16
-0.18
-0.29
-0.76
-1.61
-2.63
-3.53
-4.07
-4.25
-4.23
-4.20
-4.26
-4.34
-4.32
-4.13
-3.87
-3.74
-3.90
-4.34
-4.87
-5.20
-5.09
-4.49
-3.56
-2.55
-1.66
-0.97
-0.49
-0.16
0.04
0.09
-0.00
-0.13
-0.18
-0.05
0.25
0.53
0.60
0.34
-0.21
-0.82
-1.30
-1.51
-1.52
-1.43
-1.30
-1.09
-0.71
-0.15
0.47
0.94
1.03
0.67
-0.03
-0.83
-1.53
-2.05
-2.45
-2.83
-3.27
-3.79
-4.34
-4.89
-5.45
-6.04
-6.71
-7.49
-8.33
-9.13
-9.70
-9.88
-9.52
-8.65
-7.46
-6.24
-5.25
-4.61
-4.27
-4.08
-3.86
-3.55
-3.18
-2.83
-2.56
-2.34
-2.10
-1.81
-1.48
-1.19
-1.01
-0.94
-0.93
-0.92
-0.89
-0.88
-0.94
-1.06
-1.18
-1.19
-1.03
-0.78
-0.63
-0.76
-1.27
-2.07
-2.96
-3.77
-4.38
-4.85
-5.33
-5.94
-6.73
-7.70
-8.79
-9.99
-11.28
-12.65
-13.94
-14.94
-15.41
-15.20
-14.38
-13.17
-11.85
-10.65
-9.62
-8.67
-7.63
-6.42
-5.06
-3.72
-2.58
-1.72
-1.09
-0.56
-0.00
0.61
1.21
1.67
1.94
2.04
2.12
2.30
2.62
3.03
3.35
3.42
3.15
2.60
1.90
1.26
0.81
0.63
0.61
0.60
0.41
-0.07
-0.81
-1.69
-2.53
-3.25
-3.91
-4.67
-5.73
-7.20
-9.01
-10.90
-12.52
-13.55
-13.83
-13.39
-12.47
-11.34
-10.17
-8.95
-7.52
-5.72
-3.52
-1.05
1.37
3.42
4.91
5.83
6.34
6.67
6.97
7.29
7.55
7.69
7.72
7.75
7.94
8.40
9.08
9.80
10.30
10.44
10.21
9.77
9.28
8.87
8.53
8.17
7.73
7.23
6.70
6.15
5.52
4.71
3.65
2.41
1.16
0.09
-0.64
-1.06
-1.33
-1.69
-2.43
-3.75
-5.73
-8.24
-10.94
-13.36
-15.10
-15.88
-15.70
-14.75
-13.31
-11.59
-9.73
-7.76
-5.70
-3.60
-1.53
0.41
2.17
3.74
5.12
6.33
7.36
8.14
8.64
8.85
8.88
8.93
9.24
9.97
11.14
12.50
13.72
14.49
14.70
14.48
14.05
13.64
13.32
12.99
12.57
12.08
11.63
11.33
11.16
10.91
10.29
9.11
7.45
5.62
4.02
2.93
2.30
1.86
1.18
-0.07
-2.03
-4.62
-7.59
-10.54
-13.03
-14.70
-15.28
-14.70
-13.08
-10.69
-7.82
-4.69
-1.47
1.74
4.82
7.59
9.83
11.33
11.89
11.40
9.86
7.41
4.42
1.42
-0.99
-2.39
-2.59
-1.78
-0.32
1.36
2.97
4.39
5.68
6.94
8.23
9.61
11.14
12.85
14.77
16.75
18.51
19.57
19.53
18.16
15.64
12.40
9.03
5.99
3.45
1.31
-0.66
-2.70
-4.89
-7.24
-9.64
-11.95
-13.93
-15.23
-15.46
-14.30
-11.76
-8.22
-4.37
-0.93
1.61
3.13
3.87
4.23
4.61
5.25
6.20
7.35
8.47
9.27
9.53
9.13
8.19
6.94
5.71
4.75
4.24
4.21
4.66
5.52
6.71
8.07
9.34
10.22
10.48
10.01
8.89
7.33
5.60
3.87
2.23
0.64
-0.91
-2.38
-3.63
-4.51
-4.98
-5.17
-5.40
-6.03
-7.26
-8.99
-10.81
-12.20
-12.67
-12.06
-10.45
-8.10
-5.31
-2.32
0.67
3.48
5.92
7.83
9.16
9.97
10.36
10.44
10.23
9.75
9.07
8.38
7.93
7.95
8.42
9.16
9.83
10.12
9.94
9.39
8.69
8.06
7.59
7.22
6.84
6.34
5.69
4.91
4.02
2.97
1.69
0.16
-1.58
-3.37
-5.06
-6.60
-8.08
-9.71
-11.61
-13.70
-15.64
-16.95
-17.20
-16.19
-14.06
-11.16
-7.91
-4.68
-1.63
1.17
3.72
5.97
7.87
9.36
10.46
11.27
11.87
12.34
12.62
12.59
12.12
11.18
9.85
8.35
7.00
6.10
5.88
6.40
7.55
9.02
10.37
11.14
11.01
9.91
8.05
5.83
3.65
1.80
0.37
-0.72
-1.62
-2.50
-3.47
-4.64
-6.08
-7.83
-9.88
-12.09
-14.23
-15.96
-16.94
-16.95
-15.97
-14.17
-11.94
-9.67
-7.64
-5.98
-4.61
-3.34
-1.98
-0.45
1.20
2.84
4.27
5.35
6.04
6.44
6.70
7.04
7.55
8.26
9.04
9.75
10.33
10.81
11.27
11.78
12.25
12.47
12.21
11.35
9.98
8.34
6.76
5.48
4.58
3.99
3.51
2.95
2.20
1.22
0.05
-1.23
-2.52
-3.74
-4.79
-5.65
-6.40
-7.22
-8.41
-10.30
-13.03
-16.45
-20.09
-23.31
-25.52
-26.44
-26.12
-24.79
-22.71
-19.98
-16.66
-12.81
-8.69
-4.64
-1.04
1.91
4.24
6.11
7.73
9.24
10.70
12.14
13.57
15.04
16.58
18.20
19.87
21.50
22.89
23.73
23.61
22.13
19.17
14.94
10.02
5.21
1.27
-1.34
-2.53
-2.59
-2.01
-1.31
-0.85
-0.75
-0.87
-0.95
-0.72
-0.05
1.01
2.19
3.12
3.39
2.70
0.88
-2.10
-6.08
-10.71
-15.53
-20.00
-23.59
-25.94
-26.86
-26.40
-24.72
-22.09
-18.75
-14.94
-10.89
-6.86
-3.12
0.12
2.71
4.66
6.13
7.34
8.46
9.58
10.65
11.49
11.98
12.09
11.92
11.69
11.56
11.58
11.61
11.46
10.97
10.14
9.11
8.11
7.30
6.78
6.53
6.50
6.67
7.02
7.52
8.08
8.55
8.77
8.58
7.92
6.80
5.31
3.55
1.63
-0.40
-2.54
-4.77
-7.06
-9.33
-11.44
-13.29
-14.82
-16.06
-17.06
-17.84
-18.30
-18.23
-17.39
-15.57
-12.80
-9.29
-5.50
-1.89
1.18
3.51
5.11
6.07
6.53
6.66
6.59
6.51
6.58
6.92
7.52
8.23
8.79
8.96
8.61
7.79
6.71
5.60
4.64
3.93
3.45
3.20
3.20
3.51
4.08
4.76
5.24
5.19
4.39
2.87
0.89
-1.20
-3.10
-4.69
-6.01
-7.21
-8.42
-9.71
-11.10
-12.56
-14.07
-15.54
-16.84
-17.78
-18.16
-17.82
-16.72
-14.92
-12.61
-10.03
-7.40
-4.88
-2.54
-0.42
1.45
3.04
4.35
5.39
6.22
6.89
7.41
7.75
7.92
7.96
8.00
8.17
8.50
8.92
9.23
9.27
8.98
8.48
7.96
7.55
7.27
6.96
6.45
5.63
4.54
3.28
2.01
0.82
-0.27
-1.31
-2.40
-3.62
-5.08
-6.82
-8.85
-11.09
-13.37
-15.49
-17.27
-18.58
-19.33
-19.46
-18.94
-17.75
-15.94
-13.64
-11.11
-8.60
-6.34
-4.46
-2.95
-1.73
-0.65
0.42
1.60
2.93
4.33
5.66
6.71
7.32
7.47
7.34
7.21
7.34
7.83
8.59
9.39
10.02
10.38
10.48
10.35
10.01
9.42
8.62
7.70
6.87
6.27
5.91
5.65
5.24
4.54
3.57
2.49
1.45
0.51
-0.43
-1.55
-2.97
-4.76
-6.91
-9.39
-12.21
-15.37
-18.70
-21.86
-24.37
-25.73
-25.64
-24.16
-21.72
-18.89
-16.18
-13.81
-11.66
-9.39
-6.73
-3.69
-0.58
2.13
4.10
5.36
6.23
7.13
8.28
9.63
10.88
11.79
12.30
12.60
12.93
13.43
14.03
14.53
14.74
14.63
14.27
13.78
13.19
12.45
11.54
10.49
9.46
8.62
8.05
7.73
7.48
7.12
6.54
5.73
4.76
3.71
2.58
1.31
-0.22
-2.12
-4.43
-7.11
-10.00
-12.84
-15.32
-17.13
-18.04
-17.95
-16.91
-15.11
-12.88
-10.59
-8.52
-6.81
-5.32
-3.82
-2.01
0.19
2.58
4.79
6.39
7.20
7.31
7.10
6.94
7.04
7.35
7.71
7.96
8.12
8.36
8.83
9.58
10.46
11.29
11.87
12.16
12.23
12.17
12.08
11.91
11.56
10.88
9.75
8.15
6.13
3.85
1.52
-0.67
-2.62
-4.28
-5.71
-6.99
-8.21
-9.48
-10.93
-12.65
-14.68
-16.93
-19.13
-20.93
-22.02
-22.22
-21.52
-20.10
-18.17
-15.95
-13.59
-11.17
-8.66
-5.98
-3.04
0.17
3.48
6.57
9.04
10.60
11.17
11.00
10.46
9.92
9.54
9.32
9.16
9.03
9.01
9.30
10.03
11.23
12.73
14.20
15.31
15.79
15.58
14.75
13.52
12.12
10.70
9.32
7.91
6.42
4.83
3.18
1.55
-0.06
-1.73
-3.63
-5.90
-8.61
-11.69
-14.95
-18.18
-21.13
-23.54
-25.17
-25.82
-25.40
-23.97
-21.72
-18.99
-16.13
-13.47
-11.22
-9.46
-8.16
-7.14
-6.16
-5.01
-3.54
-1.77
0.21
2.22
4.12
5.86
7.43
8.85
10.12
11.27
12.35
13.45
14.64
15.88
17.05
17.91
18.28
18.09
17.43
16.53
15.63
14.87
14.27
13.68
12.93
11.90
10.61
9.19
7.83
6.64
5.63
4.65
3.52
2.05
0.17
-2.13
-4.90
-8.09
-11.65
-15.35
-18.83
-21.69
-23.62
-24.51
-24.46
-23.68
-22.35
-20.62
-18.57
-16.32
-14.03
-11.90
-10.10
-8.68
-7.59
-6.66
-5.78
-4.89
-4.02
-3.26
-2.65
-2.09
-1.39
-0.34
1.16
3.02
4.95
6.60
7.72
8.30
8.50
8.52
8.42
8.04
7.05
5.20
2.46
-0.89
-4.38
-7.58
-10.33
-12.79
-15.36
-18.42
-22.15
-26.50
-31.22
-36.01
-40.60
-44.86
-48.79
-52.59
-56.66
-61.49
-67.42
-74.45
-82.06
-89.27
-95.00
-98.57
-100.00
-100.06
-99.90
-100.49
-102.15
-104.14
-104.68
-101.15
-90.66
-70.80
-40.62
-1.19
44.24
90.96
133.90
169.01
194.14
209.22
215.70
215.74
211.35
204.11
195.12
185.25
175.26
165.72
156.88
148.58
140.26
131.26
121.16
110.02
98.46
87.41
77.70
69.69
63.06
56.95
50.38
42.67
33.77
24.23
14.84
6.25
-1.38
-8.39
-15.29
-22.43
-29.76
-36.84
-43.18
-48.51
-52.97
-56.95
-60.78
-64.47
-67.63
-69.73
-70.42
-69.77
-68.23
-66.37
-64.53
-62.66
-60.41
-57.49
-53.91
-50.10
-46.67
-44.10
-42.45
-41.30
-40.00
-37.94
-34.89
-31.05
-26.90
-23.00
-19.69
-17.06
-14.98
-13.25
-11.71
-10.30
-9.05
-7.97
-7.07
-6.28
-5.53
-4.76
-4.03
-3.48
-3.24
-3.40
-3.92
-4.60
-5.18
-5.45
-5.36
-5.08
-4.91
-5.17
-6.00
-7.33
-8.93
-10.51
-11.86
-12.93
-13.83
-14.76
-15.86
-17.15
-18.51
-19.69
-20.37
-20.29
-19.34
-17.56
-15.13
-12.29
-9.27
-6.23
-3.28
-0.52
1.95
4.04
5.75
7.13
8.35
9.58
10.94
12.47
14.09
15.62
16.86
17.60
17.72
17.22
16.33
15.40
14.77
14.64
14.91
15.26
15.26
14.66
13.49
12.06
10.74
9.76
9.09
8.50
7.76
6.81
5.76
4.82
4.08
3.42
2.56
1.29
-0.40
-2.31
-4.09
-5.57
-6.80
-8.14
-9.99
-12.56
-15.71
-18.99
-21.79
-23.66
-24.36
-23.94
-22.58
-20.49
-17.81
-14.64
-11.09
-7.29
-3.47
0.14
3.32
5.85
7.69
8.88
9.64
10.23
10.87
11.58
12.17
12.43
12.23
11.71
11.20
11.10
11.61
12.62
13.82
14.82
15.37
15.45
15.17
14.69
14.12
13.40
12.46
11.22
9.68
7.95
6.17
4.52
3.07
1.79
0.58
-0.72
-2.17
-3.73
-5.28
-6.73
-8.11
-9.56
-11.28
-13.34
-15.67
-17.97
-19.95
-21.34
-21.97
-21.79
-20.73
-18.76
-15.92
-12.41
-8.65
-5.14
-2.26
-0.19
1.21
2.23
3.18
4.21
5.27
6.19
6.80
7.03
6.97
6.82
6.79
7.02
7.48
8.06
8.63
9.12
9.56
10.02
10.48
10.82
10.81
10.23
9.04
7.42
5.72
4.28
3.27
2.61
2.06
1.36
0.37
-0.84
-2.15
-3.44
-4.72
-6.15
-7.93
-10.20
-12.93
-15.96
-19.04
-21.85
-24.09
-25.44
-25.61
-24.48
-22.15
-18.93
-15.28
-11.65
-8.29
-5.25
-2.47
0.11
2.50
4.59
6.35
7.74
8.86
9.78
10.60
11.35
12.04
12.69
13.28
13.80
14.19
14.45
14.60
14.73
14.86
14.94
14.83
14.39
13.58
12.47
11.24
10.08
9.06
8.17
7.28
6.28
5.09
3.68
2.07
0.33
-1.44
-3.13
-4.66
-6.07
-7.49
-9.16
-11.20
-13.64
-16.29
-18.84
-20.94
-22.33
-22.84
-22.39
-20.98
-18.67
-15.64
-12.13
-8.47
-4.97
-1.83
0.88
3.27
5.49
7.69
9.85
11.83
13.40
14.42
14.91
15.08
15.24
15.64
16.30
17.10
17.82
18.35
18.66
18.84
18.92
18.85
18.52
17.84
16.87
15.75
14.59
13.38
12.01
10.33
8.34
6.19
4.11
2.30
0.80
-0.52
-1.87
-3.40
-5.17
-7.12
-9.16
-11.17
-13.08
-14.86
-16.56
-18.26
-20.08
-22.07
-24.08
-25.82
-26.89
-26.88
-25.60
-23.14
-19.77
-15.84
-11.65
-7.36
-3.12
0.93
4.57
7.60
9.94
11.72
13.20
14.64
16.15
17.60
18.75
19.46
19.78
20.00
20.42
21.17
22.09
22.76
22.70
21.62
19.52
16.64
13.28
9.73
6.15
2.64
-0.65
-3.55
-5.90
-7.62
-8.84
-9.80
-10.74
-11.83
-13.05
-14.29
-15.43
-16.39
-17.11
-17.59
-17.81
-17.81
-17.70
-17.61
-17.64
-17.70
-17.53
-16.72
-15.00
-12.37
-9.13
-5.76
-2.66
0.03
2.40
4.67
6.98
9.33
11.56
13.53
15.12
16.32
17.17
17.69
17.92
17.94
17.89
17.91
18.12
18.51
19.01
19.53
20.05
20.55
21.03
21.40
21.53
21.35
20.86
20.17
19.41
18.65
17.87
17.08
16.22
15.31
14.34
13.20
11.77
9.86
7.36
4.23
0.53
-3.64
-8.19
-12.93
-17.65
-22.07
-26.03
-29.47
-32.56
-35.48
-38.26
-40.67
-42.28
-42.64
-41.51
-38.89
-35.02
-30.16
-24.57
-18.46
-12.14
-5.98
-0.39
4.36
8.20
11.31
13.95
16.27
18.26
19.79
20.70
20.99
20.78
20.28
19.72
19.25
18.96
18.86
18.89
18.96
18.88
18.50
17.71
16.49
14.97
13.31
11.73
10.38
9.35
8.60
7.99
7.38
6.69
5.92
5.17
4.54
4.05
3.59
3.01
2.16
0.99
-0.48
-2.15
-3.95
-5.88
-7.95
-10.19
-12.61
-15.22
-18.01
-20.96
-23.95
-26.80
-29.20
-30.80
-31.36
-30.76
-29.02
-26.27
-22.68
-18.42
-13.72
-8.87
-4.27
-0.32
2.71
4.77
6.06
6.85
7.38
7.75
7.87
7.69
7.26
6.82
6.63
6.88
7.53
8.36
9.10
9.60
9.86
10.01
10.12
10.19
10.12
9.79
9.19
8.40
7.59
6.87
6.26
5.71
5.15
4.56
3.95
3.34
2.66
1.76
0.51
-1.09
-2.88
-4.59
-5.99
-7.02
-7.88
-8.86
-10.23
-12.01
-14.02
-15.86
-17.17
-17.67
-17.26
-15.99
-14.00
-11.49
-8.68
-5.84
-3.20
-0.90
1.01
2.58
3.90
5.06
6.12
7.06
7.82
8.29
8.40
8.15
7.63
7.04
6.59
6.43
6.57
6.94
7.35
7.67
7.80
7.72
7.43
6.92
6.19
5.25
4.16
3.04
2.05
1.26
0.69
0.24
-0.26
-0.93
-1.83
-2.91
-4.06
-5.14
-6.11
-6.99
-7.89
-8.97
-10.34
-12.01
-13.84
-15.59
-17.01
-17.88
-18.10
-17.70
-16.75
-15.31
-13.44
-11.20
-8.70
-6.16
-3.85
-1.99
-0.66
0.26
1.01
1.81
2.76
3.76
4.64
5.25
5.54
5.62
5.66
5.80
6.08
6.43
6.77
7.02
7.15
7.15
7.01
6.74
6.31
5.73
5.04
4.27
3.49
2.71
1.95
1.20
0.46
-0.26
-0.96
-1.65
-2.38
-3.22
-4.21
-5.33
-6.54
-7.76
-8.97
-10.23
-11.67
-13.36
-15.33
-17.37
-19.14
-20.22
-20.30
-19.31
-17.44
-15.14
-12.82
-10.78
-9.02
-7.35
-5.56
-3.62
-1.66
0.08
1.42
2.39
3.16
3.94
4.83
5.75
6.59
7.25
7.77
8.31
8.98
9.80
10.62
11.25
11.53
11.44
11.07
10.56
9.97
9.30
8.50
7.56
6.55
5.63
4.92
4.44
4.05
3.54
2.74
1.62
0.33
-0.98
-2.21
-3.44
-4.87
-6.64
-8.76
-11.10
-13.44
-15.64
-17.64
-19.45
-21.04
-22.30
-22.98
-22.87
-21.83
-19.95
-17.45
-14.68
-11.95
-9.47
-7.27
-5.27
-3.34
-1.38
0.59
2.41
3.89
4.87
5.35
5.47
5.48
5.61
5.95
6.46
7.02
7.52
7.96
8.35
8.69
8.92
8.95
8.72
8.28
7.78
7.33
6.95
6.54
5.93
5.05
3.98
2.94
2.07
1.43
0.89
0.26
-0.60
-1.67
-2.81
-3.91
-4.90
-5.91
-7.07
-8.55
-10.38
-12.48
-14.67
-16.72
-18.40
-19.51
-19.90
-19.49
-18.25
-16.24
-13.59
-10.51
-7.34
-4.43
-2.07
-0.37
0.77
1.56
2.26
2.99
3.75
4.47
5.04
5.48
5.88
6.35
6.93
7.57
8.16
8.63
8.97
9.27
9.66
10.16
10.69
11.01
10.89
10.23
9.09
7.73
6.43
5.39
4.61
3.93
3.11
1.99
0.53
-1.19
-3.00
-4.76
-6.38
-7.86
-9.27
-10.73
-12.38
-14.28
-16.41
-18.59
-20.59
-22.14
-23.05
-23.23
-22.66
-21.35
-19.34
-16.66
-13.47
-10.02
-6.65
-3.68
-1.31
0.45
1.74
2.77
3.73
4.69
5.62
6.45
7.13
7.70
8.28
9.03
10.02
11.17
12.27
13.04
13.31
13.09
12.60
12.12
11.89
11.94
12.08
12.09
11.75
11.04
10.04
8.91
7.74
6.57
5.36
4.06
2.68
1.29
-0.01
-1.16
-2.15
-3.11
-4.21
-5.66
-7.59
-10.01
-12.79
-15.73
-18.54
-20.91
-22.58
-23.32
-22.98
-21.59
-19.32
-16.51
-13.55
-10.73
-8.18
-5.83
-3.54
-1.22
1.11
3.31
5.24
6.82
8.09
9.20
10.23
11.17
11.94
12.42
12.63
12.74
12.99
13.56
14.41
15.32
15.99
16.23
16.06
15.64
15.16
14.69
14.12
13.33
12.23
10.93
9.63
8.56
7.79
7.24
6.70
5.95
4.89
3.53
2.03
0.54
-0.80
-2.00
-3.18
-4.52
-6.19
-8.24
-10.59
-13.06
-15.41
-17.44
-18.98
-19.86
-19.91
-18.99
-17.07
-14.32
-11.08
-7.75
-4.65
-1.94
0.40
2.47
4.36
6.05
7.47
8.56
9.31
9.78
10.08
10.32
10.60
10.99
11.51
12.15
12.81
13.37
13.72
13.82
13.72
13.57
13.44
13.32
13.05
12.45
11.41
9.97
8.30
6.61
5.07
3.72
2.54
1.45
0.41
-0.63
-1.70
-2.85
-4.19
-5.76
-7.61
-9.75
-12.14
-14.67
-17.19
-19.47
-21.26
-22.34
-22.54
-21.81
-20.24
-17.98
-15.24
-12.28
-9.30
-6.45
-3.79
-1.32
0.98
3.09
4.92
6.40
7.49
8.23
8.74
9.16
9.60
10.16
10.85
11.69
12.61
13.52
14.28
14.72
14.75
14.38
13.69
12.84
11.95
11.06
10.13
9.12
8.03
6.92
5.86
4.85
3.87
2.81
1.60
0.21
-1.29
-2.81
-4.27
-5.72
-7.21
-8.88
-10.82
-13.01
-15.34
-17.62
-19.57
-20.94
-21.52
-21.21
-20.00
-17.98
-15.28
-12.12
-8.78
-5.57
-2.76
-0.51
1.18
2.51
3.70
4.95
6.30
7.60
8.66
9.30
9.50
9.43
9.33
9.43
9.86
10.53
11.28
11.88
12.20
12.21
12.01
11.70
11.32
10.83
10.15
9.25
8.19
7.09
6.07
5.16
4.38
3.67
3.02
2.40
1.73
0.93
-0.12
-1.47
-3.06
-4.82
-6.63
-8.48
-10.37
-12.28
-14.10
-15.64
-16.62
-16.90
-16.40
-15.20
-13.42
-11.18
-8.64
-5.95
-3.31
-0.91
1.10
2.63
3.73
4.51
5.18
5.91
6.81
7.87
8.97
9.92
10.63
11.08
11.41
11.76
12.23
12.75
13.15
13.29
13.09
12.60
11.95
11.21
10.35
9.31
8.08
6.70
5.32
4.05
2.94
1.90
0.81
-0.42
-1.73
-3.00
-4.08
-4.99
-5.87
-7.02
-8.63
-10.74
-13.09
-15.27
-16.85
-17.49
-17.07
-15.68
-13.55
-10.98
-8.32
-5.84
-3.71
-1.94
-0.41
1.06
2.55
4.01
5.27
6.17
6.68
6.93
7.16
7.56
8.13
8.79
9.36
9.80
10.15
10.52
10.98
11.44
11.73
11.64
11.07
10.07
8.81
7.55
6.46
5.65
5.05
4.53
3.92
3.12
2.13
1.07
0.05
-0.90
-1.88
-3.08
-4.67
-6.67
-8.96
-11.33
-13.61
-15.67
-17.45
-18.84
-19.69
-19.81
-19.06
-17.44
-15.15
-12.51
-9.86
-7.44
-5.32
-3.44
-1.65
0.14
1.94
3.67
5.21
6.51
7.61
8.59
9.54
10.45
11.24
11.83
12.24
12.56
12.92
13.37
13.82
14.11
14.06
13.61
12.78
11.68
10.43
9.16
7.99
7.02
6.31
5.81
5.39
4.83
3.97
2.76
1.29
-0.26
-1.71
-3.01
-4.17
-5.24
-6.26
-7.26
-8.24
-9.27
-10.46
-11.93
-13.73
-15.77
-17.75
-19.25
-19.89
-19.42
-17.85
-15.46
-12.63
-9.74
-7.03
-4.54
-2.25
-0.11
1.85
3.56
4.97
6.09
7.01
7.79
8.43
8.86
9.04
8.99
8.85
8.82
9.04
9.51
10.12
10.65
10.94
10.92
10.60
10.01
9.19
8.15
6.90
5.51
4.11
2.89
2.00
1.50
1.32
1.25
1.06
0.61
-0.14
-1.04
-1.94
-2.74
-3.48
-4.28
-5.30
-6.61
-8.19
-9.96
-11.85
-13.77
-15.61
-17.17
-18.16
-18.34
-17.52
-15.80
-13.48
-10.96
-8.64
-6.70
-5.11
-3.70
-2.29
-0.80
0.74
2.22
3.53
4.60
5.41
5.97
6.28
6.39
6.38
6.36
6.43
6.63
6.89
7.10
7.20
7.24
7.30
7.43
7.58
7.58
7.28
6.61
5.66
4.61
3.62
2.78
2.11
1.55
1.03
0.45
-0.32
-1.34
-2.59
-3.92
-5.09
-5.95
-6.49
-6.90
-7.46
-8.37
-9.68
-11.26
-12.91
-14.49
-15.87
-16.94
-17.57
-17.60
-16.94
-15.63
-13.79
-11.61
-9.30
-7.01
-4.86
-2.93
-1.24
0.22
1.49
2.63
3.69
4.68
5.54
6.22
6.68
6.89
6.88
6.77
6.73
6.92
7.42
8.14
8.83
9.22
9.19
8.81
8.28
7.82
7.49
7.22
6.88
6.40
5.84
5.32
4.94
4.64
4.29
3.70
2.78
1.60
0.28
-0.98
-2.07
-2.98
-3.79
-4.65
-5.69
-6.97
-8.47
-10.13
-11.90
-13.72
-15.53
-17.20
-18.52
-19.25
-19.20
-18.33
-16.75
-14.63
-12.19
-9.57
-6.90
-4.27
-1.83
0.31
2.07
3.47
4.58
5.50
6.28
6.92
7.41
7.75
8.01
8.24
8.49
8.77
9.02
9.22
9.37
9.54
9.80
10.11
10.37
10.37
9.98
9.17
8.08
6.92
5.88
5.00
4.19
3.30
2.23
0.97
-0.42
-1.81
-3.16
-4.45
-5.75
-7.11
-8.60
-10.27
-12.14
-14.14
-16.17
-18.00
-19.35
-19.96
-19.66
-18.41
-16.37
-13.83
-11.11
-8.49
-6.12
-4.02
-2.09
-0.25
1.51
3.11
4.44
5.45
6.20
6.79
7.33
7.80
8.10
8.17
8.06
7.94
8.03
8.49
9.21
9.95
10.37
10.27
9.63
8.62
7.50
6.46
5.58
4.84
4.17
3.47
2.67
1.70
0.55
-0.74
-2.10
-3.43
-4.67
-5.81
-6.93
-8.10
-9.39
-10.79
-12.28
-13.83
-15.46
-17.14
-18.75
-20.08
-20.84
-20.82
-19.91
-18.23
-16.00
-13.49
-10.95
-8.51
-6.19
-3.99
-1.86
0.20
2.18
4.00
5.59
6.90
7.91
8.64
9.12
9.42
9.59
9.73
9.97
10.45
11.22
12.24
13.32
14.25
14.86
15.09
14.98
14.62
14.02
13.17
12.08
10.80
9.47
8.27
7.31
6.56
5.89
5.10
4.07
2.79
1.34
-0.18
-1.67
-3.08
-4.43
-5.79
-7.24
-8.87
-10.76
-12.89
-15.18
-17.42
-19.34
-20.67
-21.24
-20.98
-19.96
-18.29
-16.13
-13.62
-10.87
-8.06
-5.32
-2.82
-0.63
1.25
2.92
4.42
5.76
6.81
7.45
7.62
7.45
7.18
7.09
7.36
7.98
8.79
9.60
10.31
10.89
11.38
11.75
11.87
11.61
10.91
9.85
8.67
7.56
6.63
5.81
4.90
3.71
2.18
0.44
-1.32
-2.90
-4.25
-5.45
-6.68
-8.11
-9.84
-11.85
-14.00
-16.10
-17.95
-19.34
-20.09
-20.07
-19.20
-17.54
-15.23
-12.53
-9.70
-6.92
-4.27
-1.75
0.61
2.76
4.58
6.01
7.12
8.08
9.06
10.14
11.22
12.06
12.49
12.48
12.18
11.89
11.83
12.08
12.53
12.94
13.12
12.98
12.55
11.96
11.31
10.61
9.84
8.95
7.90
6.72
5.48
4.27
3.14
2.07
0.97
-0.23
-1.63
-3.23
-4.98
-6.83
-8.77
-10.82
-13.02
-15.33
-17.57
-19.42
-20.54
-20.67
-19.77
-18.03
-15.75
-13.25
-10.68
-8.06
-5.36
-2.58
0.18
2.69
4.73
6.20
7.13
7.73
8.22
8.75
9.33
9.88
10.32
10.65
10.99
11.48
12.20
13.11
14.08
14.92
15.50
15.75
15.65
15.22
14.55
13.74
12.90
12.14
11.46
10.73
9.82
8.63
7.18
5.62
4.11
2.74
1.50
0.27
-1.04
-2.45
-3.96
-5.53
-7.23
-9.12
-11.24
-13.49
-15.61
-17.24
-18.08
-17.96
-16.96
-15.30
-13.25
-11.01
-8.69
-6.31
-3.90
-1.53
0.69
2.69
4.41
5.93
7.34
8.70
10.01
11.14
11.94
12.33
12.33
12.11
11.87
11.78
11.88
12.13
12.42
12.63
12.69
12.59
12.29
11.80
11.15
10.38
9.56
8.74
7.92
7.05
6.08
4.97
3.78
2.54
1.33
0.14
-1.05
-2.23
-3.47
-4.79
-6.29
-8.05
-10.09
-12.31
-14.48
-16.32
-17.54
-17.99
-17.61
-16.48
-14.70
-12.46
-9.92
-7.28
-4.70
-2.30
-0.16
1.68
3.20
4.39
5.23
5.72
5.93
5.94
5.84
5.75
5.76
5.98
6.47
7.19
8.03
8.83
9.43
9.77
9.90
9.91
9.88
9.78
9.52
9.01
8.26
7.38
6.52
5.77
5.16
4.57
3.92
3.11
2.16
1.06
-0.17
-1.58
-3.23
-5.10
-7.12
-9.12
-10.97
-12.58
-14.01
-15.30
-16.53
-17.67
-18.59
-19.14
-19.11
-18.41
-17.02
-15.07
-12.76
-10.33
-7.94
-5.68
-3.56
-1.54
0.39
2.18
3.75
5.01
5.96
6.67
7.25
7.82
8.43
9.07
9.69
10.24
10.67
10.97
11.12
11.14
11.05
10.87
10.65
10.40
10.14
9.88
9.62
9.32
8.88
8.24
7.36
6.25
5.03
3.83
2.73
1.75
0.85
-0.04
-0.97
-1.95
-2.94
-3.91
-4.84
-5.76
-6.74
-7.90
-9.37
-11.26
-13.50
-15.88
-17.99
-19.42
-19.86
-19.24
-17.69
-15.53
-13.07
-10.56
-8.13
-5.88
-3.82
-1.96
-0.25
1.38
2.95
4.40
5.64
6.54
7.06
7.27
7.32
7.38
7.56
7.87
8.24
8.60
8.90
9.14
9.38
9.64
9.89
10.01
9.86
9.33
8.40
7.21
5.96
4.82
3.87
3.03
2.14
1.11
-0.05
-1.21
-2.21
-2.96
-3.54
-4.09
-4.80
-5.82
-7.19
-8.87
-10.81
-12.93
-15.08
-17.12
-18.84
-20.04
-20.57
-20.33
-19.28
-17.46
-14.99
-12.08
-9.03
-6.13
-3.62
-1.60
-0.03
1.21
2.24
3.13
3.90
4.60
5.25
5.88
6.45
6.88
7.10
7.11
6.97
6.81
6.73
6.74
6.80
6.85
6.86
6.85
6.78
6.62
6.26
5.60
4.65
3.49
2.28
1.13
0.11
-0.76
-1.54
-2.30
-3.12
-4.10
-5.30
-6.76
-8.45
-10.30
-12.23
-14.17
-16.09
-17.94
-19.64
-21.00
-21.78
-21.76
-20.82
-19.04
-16.70
-14.17
-11.74
-9.62
-7.75
-5.97
-4.09
-2.05
0.08
2.08
3.72
4.92
5.71
6.26
6.72
7.19
7.69
8.17
8.61
9.05
9.55
10.17
10.88
11.54
11.99
12.09
11.82
11.26
10.58
9.94
9.45
9.09
8.76
8.33
7.75
7.03
6.25
5.47
4.70
3.85
2.81
1.53
0.02
-1.58
-3.14
-4.57
-5.91
-7.29
-8.87
-10.72
-12.81
-14.97
-17.00
-18.69
-19.91
-20.57
-20.61
-19.99
-18.67
-16.65
-14.07
-11.14
-8.13
-5.26
-2.63
-0.22
2.04
4.18
6.17
7.92
9.35
10.40
11.08
11.44
11.58
11.64
11.78
12.16
12.87
13.81
14.76
15.42
15.60
15.30
14.69
14.03
13.49
13.08
12.68
12.16
11.42
10.50
9.49
8.49
7.54
6.65
5.81
5.00
4.23
3.46
2.66
1.74
0.65
-0.62
-2.04
-3.53
-5.07
-6.64
-8.32
-10.17
-12.25
-14.51
-16.81
-18.89
-20.44
-21.17
-20.94
-19.75
-17.77
-15.26
-12.47
-9.59
-6.73
-3.95
-1.34
0.98
2.92
4.40
5.45
6.16
6.67
7.10
7.55
8.05
8.58
9.12
9.64
10.14
10.63
11.14
11.67
12.15
12.45
12.46
12.11
11.42
10.56
9.67
8.88
8.18
7.51
6.78
5.94
5.03
4.12
3.22
2.29
1.23
-0.02
-1.44
-2.89
-4.23
-5.38
-6.44
-7.63
-9.23
-11.37
-13.93
-16.55
-18.78
-20.25
-20.83
-20.60
-19.76
-18.50
-16.89
-14.97
-12.76
-10.36
-7.90
-5.49
-3.19
-0.97
1.19
3.23
5.08
6.67
8.01
9.15
10.16
11.04
11.73
12.18
12.37
12.42
12.52
12.81
13.29
13.82
14.18
14.22
13.96
13.54
13.15
12.88
12.66
12.28
11.58
10.50
9.19
7.88
6.81
6.07
5.60
5.21
4.71
3.95
2.89
1.57
0.07
-1.51
-3.10
-4.64
-6.09
-7.45
-8.75
-10.08
-11.58
-13.37
-15.46
-17.68
-19.70
-21.07
-21.44
-20.65
-18.81
-16.26
-13.39
-10.49
-7.68
-4.94
-2.21
0.49
3.05
5.31
7.12
8.42
9.30
9.85
10.20
10.39
10.45
10.43
10.42
10.58
11.03
11.77
12.69
13.58
14.21
14.43
14.24
13.74
13.09
12.38
11.65
10.89
10.07
9.21
8.35
7.53
6.80
6.14
5.46
4.69
3.78
2.71
1.47
0.06
-1.50
-3.15
-4.80
-6.37
-7.87
-9.37
-10.99
-12.80
-14.73
-16.55
-17.93
-18.61
-18.43
-17.45
-15.83
-13.80
-11.55
-9.23
-6.90
-4.60
-2.37
-0.31
1.51
2.97
4.03
4.72
5.16
5.51
5.87
6.29
6.77
7.27
7.77
8.33
8.92
9.49
9.92
10.05
9.80
9.22
8.44
7.63
6.87
6.15
5.42
4.65
3.92
3.35
3.01
2.83
2.62
2.16
1.29
0.03
-1.45
-2.94
-4.28
-5.39
-6.27
-7.00
-7.66
-8.40
-9.41
-10.84
-12.73
-14.95
-17.18
-19.04
-20.17
-20.39
-19.66
-18.11
-15.96
-13.47
-10.92
-8.52
-6.37
-4.43
-2.59
-0.73
1.19
3.08
4.78
6.14
7.13
7.81
8.30
8.71
9.11
9.51
9.92
10.36
10.82
11.24
11.52
11.56
11.31
10.87
10.40
10.08
9.98
10.02
9.98
9.65
8.92
7.85
6.63
5.46
4.49
3.75
3.14
2.53
1.83
1.00
0.07
-0.92
-1.96
-3.10
-4.42
-5.94
-7.65
-9.39
-10.99
-12.33
-13.40
-14.29
-15.13
-15.93
-16.56
-16.80
-16.43
-15.40
-13.82
-11.93
-9.96
-8.02
-6.11
-4.20
-2.33
-0.58
0.95
2.24
3.35
4.37
5.36
6.26
7.00
7.50
7.84
8.13
8.50
8.95
9.42
9.78
9.99
10.06
10.07
10.03
9.88
9.51
8.83
7.84
6.69
5.52
4.44
3.50
2.66
1.85
1.06
0.29
-0.41
-1.04
-1.65
-2.32
-3.11
-4.09
-5.29
-6.74
-8.44
-10.36
-12.43
-14.49
-16.32
-17.64
-18.27
-18.08
-17.08
-15.37
-13.14
-10.62
-8.07
-5.73
-3.78
-2.28
-1.08
0.01
1.20
2.56
3.99
5.23
6.05
6.34
6.17
5.80
5.52
5.55
5.95
6.63
7.41
8.17
8.80
9.26
9.46
9.28
8.62
7.42
5.76
3.84
1.91
0.13
-1.47
-2.93
-4.36
-5.79
-7.16
-8.37
-9.35
-10.16
-10.96
-11.96
-13.29
-14.95
-16.74
-18.32
-19.39
-19.77
-19.46
-18.57
-17.28
-15.71
-13.93
-11.98
-9.89
-7.75
-5.65
-3.65
-1.76
0.02
1.66
3.10
4.26
5.11
5.67
6.05
6.38
6.77
7.27
7.89
8.63
9.46
10.35
11.26
12.09
12.70
12.97
12.82
12.28
11.47
10.56
9.71
8.98
8.30
7.58
6.69
5.60
4.34
3.01
1.71
0.45
-0.76
-1.94
-3.10
-4.26
-5.44
-6.73
-8.22
-9.93
-11.74
-13.36
-14.48
-14.83
-14.29
-12.97
-11.12
-9.02
-6.91
-4.90
-3.00
-1.19
0.54
2.17
3.61
4.78
5.60
6.07
6.22
6.16
6.03
5.93
5.94
6.11
6.49
7.11
8.02
9.24
10.74
12.37
13.94
15.26
16.17
16.61
16.59
16.09
15.08
13.48
11.27
8.55
5.53
2.53
-0.16
-2.36
-4.08
-5.43
-6.63
-7.88
-9.31
-10.93
-12.62
-14.18
-15.33
-15.87
-15.70
-14.84
-13.40
-11.52
-9.32
-6.93
-4.48
-2.08
0.15
2.15
3.87
5.33
6.55
7.51
8.21
8.62
8.75
8.63
8.36
8.02
7.71
7.51
7.46
7.54
7.70
7.88
8.02
8.07
7.98
7.70
7.19
6.45
5.54
4.53
3.52
2.52
1.52
0.52
-0.47
-1.39
-2.20
-2.91
-3.66
-4.62
-5.91
-7.58
-9.54
-11.61
-13.62
-15.38
-16.75
-17.55
-17.65
-16.95
-15.46
-13.36
-10.91
-8.41
-6.07
-4.00
-2.16
-0.50
1.01
2.37
3.57
4.57
5.40
6.12
6.82
7.54
8.29
8.99
9.59
10.07
10.45
10.82
11.26
11.79
12.35
12.81
13.03
12.95
12.55
11.90
11.07
10.09
9.03
7.96
7.02
6.29
5.76
5.29
4.65
3.71
2.43
0.94
-0.57
-2.01
-3.36
-4.71
-6.13
-7.62
-9.11
-10.55
-11.93
-13.28
-14.55
-15.60
-16.16
-15.98
-14.98
-13.31
-11.27
-9.21
-7.33
-5.61
-3.89
-2.03
-0.02
1.92
3.48
4.48
4.95
5.20
5.58
6.34
7.47
8.80
10.14
11.46
12.91
14.64
16.58
18.37
19.40
19.08
17.14
13.76
9.54
5.23
1.50
-1.23
-2.88
-3.53
-3.33
-2.45
-0.99
0.83
2.64
3.95
4.24
3.21
0.95
-2.03
-5.02
-7.30
-8.50
-8.65
-8.12
-7.39
-6.79
-6.40
-6.04
-5.48
-4.62
-3.61
-2.83
-2.65
-3.26
-4.50
-5.85
-6.62
-6.31
-4.78
-2.35
0.36
2.69
4.19
4.70
4.33
3.32
1.96
0.52
-0.75
-1.59
-1.80
-1.30
-0.18
1.35
2.98
4.45
5.58
6.27
6.50
6.28
5.64
4.61
3.25
1.70
0.12
-1.30
-2.43
-3.22
-3.80
-4.36
-5.11
-6.19
-7.58
-9.22
-10.99
-12.82
-14.62
-16.24
-17.43
-17.87
-17.36
-15.88
-13.70
-11.24
-8.92
-6.93
-5.27
-3.73
-2.10
-0.32
1.49
3.17
4.55
5.61
6.38
6.95
7.35
7.59
7.63
7.46
7.09
6.62
6.18
5.91
5.88
6.13
6.54
6.92
7.06
6.85
6.25
5.35
4.25
3.01
1.64
0.15
-1.41
-2.88
-4.05
-4.76
-4.97
-4.80
-4.52
-4.44
-4.82
-5.80
-7.38
-9.45
-11.79
-14.15
-16.29
-18.01
-19.18
-19.68
-19.45
-18.46
-16.76
-14.48
-11.83
-9.06
-6.39
-3.94
-1.77
0.06
1.55
2.71
3.59
4.30
4.97
5.70
6.47
7.23
7.88
8.42
8.91
9.47
10.16
10.93
11.60
11.94
11.76
11.01
9.76
8.26
6.80
5.61
4.81
4.31
3.92
3.42
2.66
1.66
0.56
-0.48
-1.33
-1.99
-2.52
-3.06
-3.74
-4.65
-5.86
-7.40
-9.23
-11.18
-13.00
-14.35
-14.95
-14.66
-13.53
-11.78
-9.71
-7.61
-5.68
-3.96
-2.45
-1.07
0.25
1.51
2.69
3.75
4.66
5.39
5.93
6.29
6.53
6.75
7.05
7.52
8.19
8.97
9.70
10.19
10.29
9.94
9.13
7.92
6.36
4.54
2.61
0.77
-0.76
-1.83
-2.48
-2.88
-3.28
-3.87
-4.69
-5.65
-6.63
-7.59
-8.64
-9.93
-11.49
-13.14
-14.51
-15.18
-14.88
-13.59
-11.53
-9.00
-6.30
-3.64
-1.12
1.17
3.13
4.64
5.68
6.28
6.58
6.73
6.82
6.87
6.88
6.84
6.85
7.02
7.44
8.13
8.99
9.85
10.52
10.92
11.01
10.81
10.33
9.54
8.43
7.07
5.60
4.23
3.11
2.31
1.81
1.54
1.38
1.25
1.02
0.53
-0.41
-1.90
-3.92
-6.26
-8.63
-10.74
-12.38
-13.44
-13.87
-13.63
-12.76
-11.32
-9.46
-7.36
-5.17
-3.00
-0.91
1.06
2.82
4.30
5.44
6.25
6.84
7.32
7.78
8.22
8.60
8.90
9.16
9.51
10.05
10.77
11.56
12.17
12.30
11.67
10.13
7.70
4.61
1.21
-2.09
-4.97
-7.31
-9.20
-10.95
-12.83
-14.97
-17.22
-19.22
-20.57
-20.98
-20.33
-18.70
-16.35
-13.65
-11.01
-8.73
-6.74
-4.50
-1.14
4.19
11.90
21.60
32.13
41.90
49.37
53.51
53.99
51.12
45.78
39.22
32.78
27.63
24.43
23.15
23.11
23.34
23.05
21.90
20.01
17.73
15.35
12.95
10.49
7.91
5.36
3.00
1.02
-0.59
-2.00
-3.43
-5.05
-6.84
-8.70
-10.46
-11.98
-13.20
-14.19
-15.04
-15.90
-16.84
-17.85
-18.82
-19.59
-20.10
-20.39
-20.57
-20.75
-20.90
-20.82
-20.28
-19.12
-17.38
-15.27
-13.03
-10.88
-8.92
-7.18
-5.62
-4.21
-2.91
-1.68
-0.56
0.39
1.12
1.65
2.05
2.46
2.94
3.40
3.71
3.74
3.51
3.19
3.03
3.17
3.53
3.91
4.07
3.89
3.44
2.91
2.46
2.19
2.04
1.87
1.51
0.84
-0.10
-1.19
-2.20
-2.97
-3.46
-3.81
-4.25
-4.93
-5.93
-7.16
-8.56
-10.09
-11.73
-13.41
-14.89
-15.86
-16.03
-15.31
-13.89
-12.08
-10.18
-8.32
-6.42
-4.36
-2.09
0.32
2.72
4.97
6.95
8.60
9.81
10.52
10.68
10.33
9.62
8.68
7.62
6.47
5.28
4.14
3.23
2.73
2.72
3.10
3.61
3.98
4.03
3.79
3.42
3.09
2.92
2.84
2.71
2.35
1.68
0.76
-0.16
-0.85
-1.14
-1.09
-0.92
-0.90
-1.19
-1.77
-2.46
-3.07
-3.53
-3.98
-4.59
-5.49
-6.59
-7.61
-8.25
-8.37
-8.08
-7.67
-7.48
-7.65
-8.06
-8.40
-8.32
-7.61
-6.33
-4.75
-3.19
-1.85
-0.73
0.36
1.62
3.14
4.81
6.36
7.46
7.93
7.76
7.10
6.20
5.25
4.40
3.72
3.30
3.19
3.40
3.84
4.34
4.68
4.69
4.29
3.50
2.46
1.36
0.40
-0.23
-0.49
-0.44
-0.31
-0.36
-0.79
-1.61
-2.63
-3.59
-4.31
-4.87
-5.53
-6.62
-8.26
-10.34
-12.54
-14.51
-16.08
-17.27
-18.24
-19.10
-19.80
-20.17
-20.03
-19.30
-18.05
-16.42
-14.63
-12.77
-10.88
-8.91
-6.86
-4.74
-2.62
-0.60
1.23
2.81
4.10
5.07
5.71
6.05
6.14
6.06
5.90
5.76
5.69
5.72
5.84
6.00
6.12
6.13
5.96
5.60
5.10
4.51
3.90
3.28
2.67
2.06
1.48
0.91
0.36
-0.26
-1.03
-2.01
-3.18
-4.49
-5.84
-7.20
-8.57
-9.94
-11.32
-12.67
-14.00
-15.39
-16.95
-18.71
-20.53
-22.07
-22.94
-22.88
-21.86
-20.13
-18.02
-15.86
-13.79
-11.84
-9.96
-8.08
-6.14
-4.12
-2.05
-0.02
1.83
3.34
4.45
5.20
5.74
6.21
6.65
7.04
7.32
7.49
7.63
7.89
8.34
8.99
9.71
10.35
10.79
10.99
11.00
10.94
10.91
10.92
10.90
10.68
10.11
9.16
7.95
6.74
5.76
5.13
4.77
4.44
3.91
3.05
1.93
0.71
-0.42
-1.41
-2.28
-3.15
-4.10
-5.23
-6.56
-8.12
-9.91
-11.86
-13.81
-15.50
-16.61
-16.90
-16.24
-14.72
-12.58
-10.16
-7.75
-5.51
-3.44
-1.46
0.50
2.37
4.04
5.34
6.22
6.79
7.21
7.67
8.22
8.85
9.46
10.00
10.47
10.89
11.21
11.38
11.33
11.02
10.54
10.01
9.53
9.11
8.68
8.13
7.43
6.61
5.76
4.91
4.10
3.30
2.50
1.72
0.94
0.10
-0.88
-2.12
-3.63
-5.34
-7.07
-8.68
-10.07
-11.32
-12.59
-14.03
-15.66
-17.31
-18.62
-19.20
-18.82
-17.43
-15.27
-12.72
-10.13
-7.73
-5.55
-3.48
-1.39
0.77
2.94
4.94
6.61
7.82
8.61
9.08
9.40
9.70
10.05
10.44
10.80
11.12
11.40
11.71
12.07
12.48
12.86
13.13
13.26
13.22
13.04
12.79
12.60
12.62
12.98
13.72
14.66
15.49
15.84
15.52
14.59
13.35
12.11
11.05
10.19
9.42
8.72
8.09
7.45
6.50
4.71
1.59
-2.97
-8.47
-13.92
-18.28
-20.91
-21.86
-21.63
-20.78
-19.55
-17.79
-15.19
-11.66
-7.50
-3.33
0.25
2.96
4.93
6.52
8.00
9.39
10.44
10.82
10.31
8.94
6.91
4.59
2.41
0.89
0.46
1.39
3.56
6.44
9.28
11.47
12.85
13.76
14.72
16.06
17.61
18.81
19.07
18.19
16.50
14.63
13.07
11.88
10.69
9.02
6.61
3.56
0.14
-3.53
-7.60
-12.36
-17.87
-23.62
-28.63
-31.87
-32.86
-31.98
-30.38
-29.39
-29.94
-32.16
-35.37
-38.61
-41.05
-42.30
-42.41
-41.65
-40.20
-38.08
-35.14
-31.35
-26.97
-22.52
-18.59
-15.56
-13.39
-11.63
-9.75
-7.52
-5.24
-3.62
-3.35
-4.62
-6.90
-9.07
-9.98
-8.97
-6.20
-2.43
1.49
5.19
9.13
14.27
21.45
30.63
40.63
49.48
55.33
57.38
56.20
53.41
50.65
48.74
47.37
45.57
42.56
38.30
33.53
29.12
25.42
22.03
18.12
13.15
7.28
1.39
-3.40
-6.31
-7.20
-6.51
-4.92
-3.00
-1.09
0.67
2.19
3.41
4.27
4.79
5.05
5.18
5.24
5.25
5.15
4.93
4.56
4.11
3.63
3.20
2.88
2.71
2.66
2.67
2.61
2.34
1.79
0.99
0.13
-0.60
-1.10
-1.39
-1.69
-2.24
-3.15
-4.40
-5.80
-7.14
-8.30
-9.27
-10.11
-10.89
-11.69
-12.59
-13.73
-15.26
-17.23
-19.50
-21.70
-23.33
-23.92
-23.29
-21.53
-18.96
-15.97
-12.88
-9.90
-7.12
-4.56
-2.24
-0.12
1.89
3.89
5.93
7.96
9.78
11.14
11.91
12.16
12.15
12.25
12.76
13.73
15.00
16.26
17.21
17.67
17.60
17.05
16.11
14.89
13.57
12.32
11.33
10.70
10.34
10.07
9.60
8.74
7.39
5.62
3.59
1.47
-0.58
-2.41
-3.95
-5.22
-6.32
-7.50
-9.03
-11.17
-14.02
-17.42
-20.96
-24.06
-26.15
-26.82
-25.94
-23.69
-20.46
-16.69
-12.80
-9.06
-5.65
-2.67
-0.14
1.93
3.62
5.03
6.31
7.54
8.73
9.77
10.46
10.59
10.03
8.86
7.32
5.82
4.80
4.52
5.02
6.08
7.39
8.66
9.76
10.70
11.55
12.32
12.89
13.09
12.81
12.10
11.14
10.20
9.39
8.67
7.88
6.83
5.50
3.99
2.50
1.11
-0.26
-1.88
-4.01
-6.75
-9.95
-13.21
-16.03
-17.97
-18.77
-18.36
-16.91
-14.69
-12.03
-9.24
-6.59
-4.26
-2.29
-0.61
0.94
2.57
4.39
6.32
8.11
9.41
9.96
9.73
8.95
8.04
7.39
7.20
7.46
8.00
8.63
9.23
9.75
10.13
10.25
10.01
9.36
8.37
7.23
6.13
5.19
4.40
3.66
2.86
1.92
0.90
-0.09
-0.92
-1.45
-1.69
-1.72
-1.76
-2.12
-3.05
-4.58
-6.49
-8.39
-9.84
-10.61
-10.70
-10.27
-9.51
-8.45
-7.00
-5.09
-2.79
-0.39
1.74
3.30
4.28
4.90
5.55
6.51
7.87
9.47
11.07
12.47
13.57
14.38
14.95
15.36
15.61
15.73
15.74
15.63
15.43
15.12
14.68
14.06
13.24
12.19
10.89
9.41
7.84
6.32
4.96
3.79
2.71
1.56
0.20
-1.42
-3.23
-5.08
-6.84
-8.41
-9.80
-11.06
-12.28
-13.56
-14.96
-16.46
-17.94
-19.12
-19.66
-19.25
-17.80
-15.50
-12.74
-9.97
-7.46
-5.24
-3.17
-1.10
1.04
3.11
4.95
6.43
7.56
8.46
9.25
9.97
10.56
10.93
11.01
10.88
10.68
10.62
10.80
11.26
11.95
12.75
13.51
14.08
14.30
14.09
13.45
12.47
11.30
10.07
8.84
7.62
6.40
5.21
4.09
3.07
2.06
0.95
-0.34
-1.83
-3.35
-4.71
-5.75
-6.52
-7.22
-8.15
-9.56
-11.47
-13.71
-15.95
-17.86
-19.21
-19.90
-19.89
-19.18
-17.78
-15.80
-13.44
-11.02
-8.87
-7.20
-5.99
-5.07
-4.18
-3.17
-2.01
-0.82
0.30
1.28
2.11
2.81
3.35
3.66
3.80
3.88
4.11
4.67
5.55
6.57
7.41
7.83
7.69
7.04
6.03
4.82
3.58
2.48
1.70
1.34
1.40
1.67
1.84
1.57
0.70
-0.75
-2.62
-4.67
-6.74
-8.72
-10.54
-12.19
-13.65
-14.92
-15.94
-16.59
-16.66
-15.99
-14.56
-12.55
-10.30
-8.15
-6.22
-4.45
-2.68
-0.85
0.89
2.29
3.17
3.56
3.75
4.09
4.79
5.81
6.96
8.00
8.81
9.41
9.83
10.01
9.83
9.19
8.19
7.06
6.12
5.53
5.21
4.93
4.46
3.71
2.86
2.20
1.98
2.23
2.77
3.25
3.34
2.88
1.90
0.59
-0.86
-2.29
-3.67
-5.10
-6.60
-8.19
-9.79
-11.32
-12.76
-14.18
-15.62
-17.01
-18.08
-18.49
-17.96
-16.41
-14.04
-11.19
-8.18
-5.23
-2.47
0.03
2.16
3.90
5.32
6.62
8.02
9.62
11.31
12.88
14.15
15.11
15.90
16.71
17.70
18.82
19.99
21.07
21.96
22.53
22.53
21.68
19.71
16.59
12.63
8.41
4.54
1.40
-0.99
-2.94
-4.87
-7.14
-9.88
-13.05
-16.51
-20.09
-23.60
-26.72
-29.08
-30.27
-29.99
-28.27
-25.50
-22.42
-19.84
-18.45
-18.55
-20.06
-22.53
-25.35
-27.90
-29.68
-30.41
-30.00
-28.52
-26.20
-23.29
-20.08
-16.79
-13.60
-10.63
-7.96
-5.59
-3.51
-1.66
0.01
1.50
2.80
3.84
4.63
5.24
5.82
6.54
7.51
8.68
9.89
10.96
11.84
12.58
13.32
14.19
15.15
16.05
16.64
16.74
16.25
15.20
13.77
12.18
10.64
9.31
8.27
7.49
6.87
6.23
5.46
4.48
3.31
2.02
0.67
-0.71
-2.11
-3.55
-5.07
-6.73
-8.52
-10.39
-12.12
-13.44
-14.11
-14.02
-13.29
-12.23
-11.17
-10.39
-10.01
-10.00
-10.23
-10.52
-10.60
-10.19
-9.01
-6.94
-4.09
-0.79
2.48
5.28
7.34
8.57
9.05
8.90
8.28
7.39
6.49
5.85
5.60
5.68
5.86
5.83
5.40
4.60
3.66
2.86
2.38
2.23
2.23
2.16
1.90
1.44
0.91
0.40
-0.05
-0.51
-1.08
-1.85
-2.81
-3.92
-5.12
-6.42
-7.86
-9.51
-11.38
-13.41
-15.43
-17.23
-18.63
-19.47
-19.67
-19.19
-18.03
-16.25
-13.99
-11.43
-8.74
-6.06
-3.48
-1.00
1.36
3.54
5.42
6.90
7.95
8.66
9.21
9.75
10.36
10.98
11.50
11.87
12.14
12.45
12.92
13.52
14.09
14.40
14.33
13.88
13.26
12.64
12.16
11.77
11.35
10.78
10.02
9.13
8.22
7.39
6.62
5.81
4.85
3.67
2.32
0.91
-0.40
-1.55
-2.50
-3.37
-4.32
-5.51
-7.06
-8.97
-11.15
-13.40
-15.47
-17.09
-18.03
-18.14
-17.38
-15.85
-13.76
-11.37
-8.87
-6.40
-4.00
-1.67
0.61
2.84
4.96
6.89
8.57
9.93
10.99
11.76
12.25
12.51
12.60
12.62
12.71
12.95
13.35
13.80
14.15
14.31
14.28
14.20
14.23
14.37
14.50
14.35
13.74
12.65
11.31
10.01
8.97
8.22
7.59
6.85
5.86
4.64
3.33
2.11
1.06
0.16
-0.66
-1.52
-2.51
-3.71
-5.21
-7.06
-9.26
-11.66
-14.00
-15.95
-17.20
-17.60
-17.13
-15.92
-14.16
-12.00
-9.58
-7.00
-4.38
-1.79
0.67
2.95
4.98
6.69
8.00
8.88
9.40
9.71
10.02
10.45
11.03
11.61
12.06
12.28
12.33
12.33
12.41
12.59
12.77
12.80
12.53
11.91
11.00
9.96
8.96
8.09
7.30
6.43
5.29
3.80
2.03
0.24
-1.34
-2.55
-3.46
-4.26
-5.19
-6.39
-7.85
-9.44
-11.04
-12.60
-14.12
-15.63
-17.09
-18.32
-19.11
-19.25
-18.60
-17.16
-15.12
-12.77
-10.44
-8.37
-6.60
-5.01
-3.40
-1.61
0.33
2.20
3.76
4.81
5.38
5.65
5.86
6.16
6.56
6.99
7.35
7.60
7.82
8.09
8.46
8.91
9.39
9.79
10.01
9.95
9.59
8.91
8.02
7.04
6.11
5.30
4.57
3.80
2.88
1.77
0.51
-0.74
-1.88
-2.84
-3.64
-4.38
-5.16
-6.06
-7.14
-8.42
-9.94
-11.73
-13.74
-15.81
-17.64
-18.84
-19.07
-18.14
-16.15
-13.48
-10.64
-8.08
-5.95
-4.18
-2.50
-0.73
1.16
2.99
4.57
5.80
6.71
7.44
8.09
8.68
9.09
9.28
9.29
9.30
9.52
10.08
10.93
11.92
12.78
13.36
13.59
13.49
13.12
12.50
11.66
10.56
9.26
7.88
6.62
5.64
5.00
4.61
4.25
3.68
2.74
1.43
-0.07
-1.54
-2.82
-3.87
-4.83
-5.87
-7.19
-8.88
-10.89
-13.06
-15.11
-16.76
-17.70
-17.72
-16.78
-14.99
-12.65
-10.11
-7.70
-5.61
-3.89
-2.43
-1.13
0.09
1.23
2.22
3.03
3.67
4.18
4.61
4.96
5.18
5.22
5.09
4.90
4.79
4.86
5.11
5.39
5.52
5.32
4.74
3.83
2.76
1.69
0.73
-0.05
-0.72
-1.38
-2.19
-3.26
-4.63
-6.23
-7.91
-9.50
-10.93
-12.23
-13.53
-15.00
-16.69
-18.53
-20.32
-21.80
-22.67
-22.74
-21.91
-20.22
-17.83
-14.98
-11.95
-9.01
-6.37
-4.13
-2.29
-0.74
0.60
1.83
2.93
3.88
4.62
5.17
5.61
6.09
6.75
7.62
8.65
9.70
10.60
11.24
11.56
11.55
11.27
10.76
10.08
9.32
8.51
7.70
6.89
6.05
5.13
4.11
2.96
1.66
0.22
-1.33
-2.92
-4.47
-5.85
-7.03
-8.01
-8.93
-9.93
-11.19
-12.77
-14.53
-16.22
-17.48
-17.98
-17.56
-16.24
-14.29
-12.06
-9.87
-7.85
-5.99
-4.13
-2.18
-0.16
1.81
3.55
5.02
6.27
7.48
8.78
10.17
11.46
12.45
13.02
13.20
13.21
13.28
13.58
14.16
14.92
15.75
16.52
17.14
17.48
17.48
17.04
16.18
14.96
13.53
12.06
10.68
9.44
8.29
7.14
5.88
4.47
2.94
1.40
-0.06
-1.35
-2.47
-3.49
-4.51
-5.65
-7.01
-8.63
-10.49
-12.53
-14.57
-16.33
-17.52
-17.86
-17.20
-15.60
-13.26
-10.51
-7.66
-4.93
-2.44
-0.17
1.87
3.68
5.19
6.33
7.12
7.65
8.09
8.57
9.13
9.70
10.17
10.47
10.64
10.79
10.96
11.10
11.06
10.68
9.92
8.93
7.95
7.20
6.74
6.42
5.98
5.27
4.28
3.22
2.32
1.77
1.52
1.38
1.09
0.46
-0.54
-1.79
-3.18
-4.61
-6.14
-7.83
-9.76
-11.86
-13.98
-15.86
-17.18
-17.67
-17.11
-15.45
-12.80
-9.47
-5.93
-2.62
0.17
2.35
4.08
5.63
7.16
8.70
10.11
11.24
12.00
12.48
12.85
13.23
13.67
14.09
14.38
14.53
14.57
14.48
14.18
13.45
12.09
10.08
7.62
5.09
2.87
1.20
0.07
-0.64
-1.12
-1.46
-1.66
-1.74
-1.76
-1.82
-2.03
-2.44
-2.99
-3.60
-4.24
-4.95
-5.82
-6.92
-8.28
-9.88
-11.65
-13.45
-15.08
-16.28
-16.76
-16.33
-15.00
-12.97
-10.55
-8.10
-5.81
-3.74
-1.85
-0.07
1.61
3.19
4.64
5.96
7.18
8.32
9.32
10.10
10.61
10.87
10.99
11.12
11.37
11.73
12.13
12.46
12.64
12.72
12.78
12.94
13.21
13.50
13.65
13.50
13.03
12.27
11.37
10.39
9.31
8.01
6.39
4.45
2.37
0.42
-1.14
-2.25
-3.05
-3.74
-4.52
-5.48
-6.59
-7.82
-9.20
-10.81
-12.69
-14.73
-16.67
-18.15
-18.86
-18.66
-17.58
-15.82
-13.65
-11.36
-9.17
-7.19
-5.41
-3.71
-2.00
-0.26
1.44
2.92
4.09
4.96
5.64
6.25
6.84
7.36
7.69
7.81
7.74
7.58
7.45
7.34
7.23
7.06
6.82
6.51
6.17
5.80
5.40
4.92
4.35
3.69
2.94
2.08
1.10
0.01
-1.17
-2.39
-3.59
-4.75
-5.89
-7.02
-8.22
-9.56
-11.07
-12.73
-14.46
-16.06
-17.31
-17.98
-17.90
-17.03
-15.44
-13.35
-10.99
-8.61
-6.38
-4.36
-2.55
-0.93
0.54
1.85
3.02
4.04
4.91
5.61
6.09
6.37
6.49
6.56
6.74
7.11
7.65
8.28
8.84
9.26
9.48
9.52
9.34
8.88
8.08
6.93
5.55
4.18
3.00
2.10
1.41
0.76
0.00
-0.90
-1.90
-2.90
-3.89
-4.93
-6.15
-7.61
-9.29
-11.08
-12.84
-14.50
-16.00
-17.32
-18.36
-18.99
-19.08
-18.56
-17.46
-15.88
-13.95
-11.82
-9.56
-7.23
-4.88
-2.53
-0.27
1.80
3.55
4.87
5.71
6.15
6.38
6.62
7.02
7.60
8.24
8.77
9.08
9.17
9.12
9.03
8.95
8.86
8.74
8.53
8.25
7.95
7.63
7.27
6.78
6.05
5.00
3.64
2.06
0.41
-1.13
-2.42
-3.42
-4.18
-4.80
-5.44
-6.17
-7.01
-7.95
-8.98
-10.14
-11.48
-12.98
-14.50
-15.78
-16.50
-16.49
-15.71
-14.27
-12.37
-10.20
-7.91
-5.65
-3.54
-1.62
0.16
1.93
3.83
5.83
7.72
9.23
10.12
10.40
10.28
10.05
9.92
9.94
10.06
10.23
10.48
10.86
11.38
11.95
12.40
12.62
12.59
12.39
12.09
11.69
11.11
10.29
9.27
8.22
7.29
6.55
5.90
5.21
4.36
3.36
2.32
1.31
0.31
-0.82
-2.17
-3.73
-5.29
-6.63
-7.64
-8.44
-9.33
-10.57
-12.22
-14.02
-15.47
-16.12
-15.77
-14.53
-12.72
-10.69
-8.64
-6.67
-4.78
-2.98
-1.35
0.09
1.38
2.60
3.82
5.00
6.01
6.67
6.93
6.88
6.74
6.71
6.88
7.21
7.60
7.97
8.26
8.44
8.44
8.19
7.66
6.91
6.11
5.49
5.20
5.20
5.31
5.25
4.80
3.84
2.41
0.67
-1.18
-2.94
-4.50
-5.79
-6.82
-7.69
-8.52
-9.47
-10.67
-12.21
-14.00
-15.87
-17.49
-18.52
-18.70
-17.92
-16.23
-13.83
-11.02
-8.09
-5.27
-2.72
-0.51
1.33
2.82
3.97
4.79
5.32
5.63
5.82
6.01
6.33
6.81
7.44
8.09
8.63
8.96
9.05
8.99
8.86
8.76
8.71
8.63
8.45
8.05
7.42
6.62
5.76
4.94
4.22
3.60
3.05
2.52
1.98
1.43
0.85
0.20
-0.56
-1.44
-2.42
-3.44
-4.43
-5.37
-6.34
-7.48
-8.91
-10.65
-12.60
-14.50
-16.07
-17.05
-17.32
-16.89
-15.90
-14.49
-12.73
-10.70
-8.43
-6.02
-3.60
-1.31
0.78
2.66
4.36
5.83
6.96
7.60
7.72
7.44
7.06
6.85
6.90
7.08
7.14
6.96
6.63
6.41
6.52
6.97
7.54
7.96
8.06
7.93
7.75
7.64
7.53
7.20
6.47
5.34
3.99
2.66
1.51
0.54
-0.33
-1.17
-1.97
-2.68
-3.25
-3.71
-4.12
-4.58
-5.16
-5.92
-6.96
-8.35
-10.08
-11.96
-13.68
-14.86
-15.22
-14.68
-13.35
-11.51
-9.43
-7.33
-5.33
-3.46
-1.70
-0.04
1.47
2.72
3.64
4.17
4.41
4.56
4.79
5.21
5.74
6.21
6.48
6.52
6.47
6.51
6.73
7.04
7.29
7.33
7.15
6.86
6.58
6.33
6.03
5.50
4.64
3.47
2.13
0.81
-0.38
-1.38
-2.25
-3.07
-3.90
-4.82
-5.83
-6.96
-8.22
-9.62
-11.14
-12.66
-14.03
-15.05
-15.50
-15.23
-14.19
-12.47
-10.30
-7.97
-5.74
-3.75
-2.07
-0.62
0.65
1.77
2.73
3.50
4.06
4.43
4.71
5.02
5.45
6.03
6.71
7.42
8.05
8.56
8.95
9.25
9.45
9.54
9.44
9.06
8.35
7.40
6.37
5.45
4.74
4.22
3.76
3.17
2.36
1.33
0.16
-1.08
-2.34
-3.62
-4.91
-6.20
-7.46
-8.66
-9.87
-11.15
-12.53
-13.95
-15.20
-16.06
-16.30
-15.83
-14.65
-12.91
-10.78
-8.46
-6.14
-3.96
-2.01
-0.27
1.32
2.84
4.35
5.76
6.95
7.80
8.23
8.32
8.20
8.06
8.03
8.14
8.34
8.56
8.74
8.89
9.03
9.21
9.36
9.46
9.40
9.18
8.84
8.46
8.08
7.71
7.25
6.58
5.68
4.59
3.41
2.16
0.80
-0.77
-2.59
-4.58
-6.56
-8.36
-9.99
-11.56
-13.22
-15.00
-16.68
-17.97
-18.63
-18.60
-18.03
-17.07
-15.79
-14.17
-12.16
-9.86
-7.47
-5.25
-3.30
-1.59
0.04
1.68
3.24
4.56
5.51
6.11
6.50
6.87
7.27
7.59
7.69
7.54
7.25
7.01
6.94
7.02
7.07
6.89
6.42
5.73
4.98
4.34
3.81
3.34
2.83
2.20
1.48
0.65
-0.25
-1.22
-2.23
-3.18
-4.00
-4.67
-5.31
-6.10
-7.21
-8.64
-10.19
-11.53
-12.38
-12.55
-12.03
-10.96
-9.49
-7.79
-5.94
-4.02
-2.08
-0.18
1.60
3.16
4.43
5.37
6.02
6.49
6.87
7.19
7.37
7.30
6.91
6.26
5.61
5.24
5.36
5.91
6.63
7.18
7.30
6.98
6.44
5.94
5.65
5.54
5.37
4.89
3.95
2.63
1.13
-0.28
-1.44
-2.30
-2.93
-3.44
-3.88
-4.33
-4.86
-5.61
-6.70
-8.18
-9.94
-11.76
-13.32
-14.37
-14.75
-14.40
-13.36
-11.66
-9.44
-6.90
-4.35
-2.12
-0.38
0.86
1.78
2.62
3.54
4.53
5.53
6.43
7.19
7.82
8.34
8.72
8.91
8.91
8.77
8.61
8.55
8.62
8.75
8.86
8.89
8.85
8.78
8.70
8.53
8.19
7.61
6.82
5.94
5.09
4.34
3.69
3.08
2.44
1.72
0.91
-0.04
-1.15
-2.41
-3.71
-4.88
-5.79
-6.40
-6.83
-7.31
-8.06
-9.15
-10.41
-11.55
-12.22
-12.21
-11.48
-10.14
-8.41
-6.53
-4.70
-3.04
-1.58
-0.24
1.07
2.46
3.93
5.38
6.67
7.67
8.35
8.73
8.91
8.95
8.91
8.81
8.74
8.77
8.98
9.36
9.80
10.13
10.18
9.86
9.18
8.26
7.28
6.43
5.80
5.37
5.02
4.56
3.84
2.83
1.61
0.33
-0.82
-1.77
-2.51
-3.13
-3.76
-4.53
-5.56
-6.92
-8.61
-10.51
-12.36
-13.87
-14.75
-14.85
-14.16
-12.79
-10.95
-8.86
-6.74
-4.78
-3.07
-1.65
-0.45
0.62
1.64
2.64
3.55
4.27
4.71
4.84
4.77
4.62
4.56
4.69
5.04
5.53
6.05
6.51
6.82
6.99
7.06
7.06
6.96
6.70
6.18
5.34
4.22
2.98
1.84
0.96
0.40
0.04
-0.29
-0.79
-1.53
-2.54
-3.75
-5.12
-6.61
-8.13
-9.55
-10.71
-11.54
-12.11
-12.64
-13.39
-14.46
-15.71
-16.73
-17.10
-16.55
-15.11
-13.06
-10.82
-8.70
-6.82
-5.12
-3.49
-1.83
-0.17
1.38
2.68
3.64
4.25
4.57
4.73
4.90
5.21
5.72
6.41
7.15
7.81
8.29
8.60
8.75
8.80
8.73
8.48
8.02
7.36
6.59
5.87
5.29
4.85
4.47
4.04
3.51
2.84
2.06
1.18
0.20
-0.87
-1.97
-3.00
-3.93
-4.75
-5.56
-6.51
-7.66
-9.01
-10.46
-11.89
-13.28
-14.60
-15.84
-16.88
-17.48
-17.43
-16.61
-15.14
-13.27
-11.29
-9.39
-7.57
-5.73
-3.76
-1.65
0.46
2.38
3.95
5.15
6.05
6.79
7.46
8.12
8.72
9.23
9.62
9.92
10.19
10.45
10.72
10.97
11.14
11.21
11.15
10.96
10.63
10.14
9.46
8.58
7.55
6.42
5.29
4.24
3.31
2.48
1.71
0.97
0.20
-0.63
-1.53
-2.51
-3.53
-4.57
-5.61
-6.68
-7.84
-9.20
-10.83
-12.71
-14.62
-16.26
-17.25
-17.34
-16.45
-14.70
-12.36
-9.77
-7.22
-4.92
-3.00
-1.45
-0.20
0.86
1.83
2.80
3.81
4.83
5.78
6.55
7.05
7.24
7.17
6.99
6.90
7.03
7.41
7.89
8.26
8.35
8.10
7.61
7.06
6.58
6.19
5.78
5.17
4.27
3.08
1.74
0.44
-0.72
-1.70
-2.64
-3.64
-4.78
-5.96
-7.11
-8.20
-9.36
-10.84
-12.85
-15.32
-17.87
-19.92
-20.90
-20.57
-19.05
-16.74
-14.09
-11.45
-8.95
-6.60
-4.35
-2.19
-0.13
1.82
3.63
5.26
6.67
7.77
8.55
9.04
9.29
9.37
9.32
9.15
8.90
8.68
8.65
8.91
9.46
10.12
10.59
10.59
9.99
8.86
7.47
6.15
5.14
4.50
4.10
3.73
3.19
2.42
1.48
0.45
-0.56
-1.57
-2.61
-3.76
-5.04
-6.46
-8.02
-9.75
-11.71
-13.86
-16.06
-18.06
-19.50
-20.10
-19.70
-18.35
-16.28
-13.77
-11.11
-8.48
-5.98
-3.62
-1.40
0.67
2.57
4.26
5.75
7.05
8.23
9.30
10.28
11.11
11.73
12.10
12.28
12.42
12.66
13.12
13.77
14.49
15.06
15.29
15.09
14.49
13.66
12.76
11.91
11.15
10.43
9.65
8.77
7.80
6.79
5.77
4.70
3.50
2.09
0.46
-1.32
-3.12
-4.81
-6.38
-7.90
-9.47
-11.19
-12.99
-14.68
-15.95
-16.55
-16.33
-15.33
-13.69
-11.61
-9.27
-6.80
-4.29
-1.80
0.58
2.79
4.76
6.47
7.92
9.11
10.00
10.51
10.57
10.21
9.58
8.96
8.63
8.80
9.47
10.45
11.46
12.24
12.62
12.55
12.07
11.25
10.17
8.93
7.64
6.41
5.31
4.31
3.34
2.34
1.27
0.16
-0.94
-2.02
-3.11
-4.26
-5.54
-6.98
-8.59
-10.36
-12.21
-13.99
-15.50
-16.46
-16.66
-16.02
-14.65
-12.78
-10.71
-8.63
-6.58
-4.49
-2.23
0.21
2.71
5.02
6.89
8.15
8.84
9.16
9.37
9.64
10.04
10.53
11.03
11.55
12.18
12.98
13.94
14.84
15.41
15.45
14.95
14.13
13.29
12.64
12.20
11.81
11.31
10.59
9.73
8.87
8.11
7.43
6.65
5.59
4.16
2.47
0.77
-0.72
-1.96
-3.15
-4.66
-6.84
-9.77
-13.19
-16.62
-19.53
-21.59
-22.79
-23.27
-23.21
-22.62
-21.42
-19.51
-16.98
-14.05
-11.07
-8.27
-5.78
-3.59
-1.66
0.01
1.36
2.38
3.11
3.66
4.19
4.77
5.41
6.02
6.52
6.85
7.09
7.30
7.53
7.77
7.94
7.94
7.72
7.33
6.89
6.51
6.24
5.99
5.65
5.14
4.47
3.74
3.07
2.45
1.79
0.89
-0.39
-2.05
-3.98
-5.97
-7.83
-9.46
-10.79
-11.78
-12.37
-12.46
-11.99
-10.96
-9.44
-7.57
-5.49
-3.39
-1.42
0.33
1.82
3.10
4.28
5.40
6.42
7.17
7.48
7.32
6.83
6.34
6.17
6.48
7.15
7.94
8.58
8.97
9.19
9.35
9.49
9.53
9.34
8.81
8.04
7.22
6.57
6.19
6.01
5.82
5.34
4.40
2.93
1.04
-1.04
-3.11
-5.00
-6.70
-8.33
-10.03
-11.90
-13.91
-15.87
-17.58
-18.83
-19.47
-19.39
-18.54
-16.93
-14.66
-11.99
-9.24
-6.68
-4.48
-2.61
-0.92
0.70
2.32
3.88
5.28
6.43
7.28
7.77
7.90
7.71
7.39
7.23
7.50
8.33
9.58
10.88
11.87
12.32
12.22
11.63
10.65
9.27
7.47
5.37
3.24
1.46
0.29
-0.30
-0.57
-0.86
-1.41
