1567635254.00
64.000000
-0.00
-0.00
-0.00
-0.00
-0.00
-0.00
-0.00
-0.00
-0.00
-0.00
0.00
0.01
0.01
-0.00
-0.03
-0.05
-0.05
0.00
0.13
0.36
0.66
1.01
1.37
1.72
2.06
2.40
2.79
3.24
3.80
4.42
5.06
5.66
6.20
6.68
7.15
7.68
8.31
9.14
10.09
11.04
11.88
12.56
13.14
13.76
14.65
15.96
17.91
20.32
22.90
25.38
27.58
29.57
31.68
34.32
37.81
42.54
48.15
54.10
59.83
64.97
69.58
74.14
79.34
85.71
93.76
103.00
112.62
121.73
129.77
136.75
143.30
150.75
157.77
166.64
177.95
191.79
206.97
220.57
228.25
225.36
208.53
176.87
132.76
80.05
23.07
-34.94
-92.44
-149.16
-205.23
-260.37
-313.74
-363.87
-409.83
-450.91
-486.50
-515.74
-537.23
-549.22
-549.96
-538.37
-514.21
-478.67
-433.88
-382.45
-327.02
-269.84
-212.63
-156.66
-102.95
-52.37
-5.90
35.58
71.43
101.35
125.50
144.38
158.69
169.15
176.37
180.75
182.57
182.07
179.51
175.23
169.65
163.18
156.15
148.81
141.30
133.69
126.02
118.33
110.69
103.16
95.80
88.68
81.83
75.25
68.95
62.95
57.25
51.86
46.78
42.03
37.59
33.45
29.61
26.07
22.81
19.83
17.11
14.67
12.48
10.54
8.83
7.35
6.07
4.97
4.05
3.27
2.62
2.09
1.65
1.30
1.01
0.79
0.61
0.47
0.37
0.29
0.23
0.18
0.16
0.14
0.13
0.14
0.15
0.17
0.19
0.22
0.26
0.30
0.34
0.38
0.43
0.48
0.53
0.57
0.63
0.68
0.74
0.80
0.87
0.95
1.03
1.12
1.22
1.33
1.46
1.60
1.76
1.94
2.14
2.36
2.61
2.87
3.18
3.50
3.86
4.25
4.68
5.14
5.64
6.18
6.78
7.42
8.09
8.79
9.50
10.20
10.93
11.69
12.51
13.43
14.46
15.58
16.75
17.92
19.10
20.24
21.33
22.32
23.15
23.68
23.75
23.20
21.87
19.69
16.68
12.98
8.75
4.23
-0.41
-5.04
-9.60
-14.03
-18.23
-21.98
-25.04
-27.16
-28.24
-28.36
-27.89
-27.24
-26.85
-26.92
-27.37
-27.86
-27.97
-27.42
-26.27
-24.90
-23.89
-23.79
-24.77
-26.59
-28.63
-30.26
-30.99
-30.84
-30.22
-29.77
-30.07
-31.59
-34.61
-39.13
-44.61
-49.75
-52.51
-50.62
-42.60
-28.64
-10.90
7.14
22.03
31.61
35.73
35.83
33.89
31.37
28.74
25.87
22.58
19.28
16.77
15.85
16.77
19.04
21.68
23.66
24.42
24.01
22.95
22.00
21.55
21.75
22.41
23.12
23.39
22.93
21.69
19.93
18.10
16.63
15.70
15.21
14.76
14.00
12.78
11.18
9.46
7.77
6.11
4.30
2.16
-0.37
-3.21
-6.09
-8.74
-10.90
-12.38
-13.16
-13.44
-13.60
-14.21
-15.79
-18.60
-22.40
-26.52
-30.02
-31.99
-31.87
-29.62
-25.65
-20.77
-15.85
-11.67
-8.65
-6.76
-5.54
-4.27
-2.21
1.09
5.58
10.73
15.63
19.30
20.98
20.48
18.22
15.15
12.39
10.84
10.93
12.42
14.71
17.00
18.61
19.09
18.18
15.80
12.12
7.56
2.83
-1.27
-4.14
-5.64
-6.17
-6.50
-7.39
-9.30
-12.22
-15.88
-19.84
-23.67
-26.97
-29.32
-30.30
-29.62
-27.25
-23.56
-19.11
-14.59
-10.54
-7.32
-5.01
-3.49
-2.43
-1.39
0.01
1.94
4.09
5.86
6.53
5.75
3.85
1.79
0.73
1.44
3.87
7.18
10.20
12.00
12.37
11.72
10.74
9.93
9.33
8.71
7.78
6.52
5.20
4.12
3.32
2.52
1.23
-1.00
-4.34
-8.63
-13.52
-18.54
-23.22
-27.05
-29.57
-30.42
-29.61
-27.52
-24.83
-22.13
-19.67
-17.25
-14.38
-10.58
-5.71
0.05
6.27
12.44
18.11
22.94
26.68
29.16
30.46
30.88
30.89
30.94
31.27
31.78
32.12
31.93
30.99
29.35
27.23
24.88
22.37
19.63
16.49
12.85
8.83
4.70
0.86
-2.35
-4.72
-6.21
-6.95
-7.15
-7.19
-7.52
-8.67
-11.07
-14.94
-20.07
-25.79
-31.11
-34.91
-36.25
-34.67
-30.29
-23.78
-16.14
-8.38
-1.14
5.36
11.29
17.00
22.74
28.55
34.23
39.48
44.07
47.87
50.91
53.27
54.92
55.68
55.25
53.39
50.18
46.11
41.95
38.42
35.73
33.46
30.69
26.53
20.61
13.31
5.63
-1.36
-7.00
-11.20
-14.35
-17.06
-19.82
-22.92
-26.50
-30.59
-35.08
-39.68
-43.98
-47.49
-49.84
-50.91
-50.81
-49.78
-48.08
-45.84
-43.04
-39.60
-35.44
-30.57
-25.10
-19.24
-13.26
-7.44
-2.06
2.65
6.49
9.37
11.26
12.31
12.75
12.88
12.95
13.09
13.27
13.38
13.34
13.18
13.10
13.26
13.71
14.26
14.54
14.12
12.80
10.65
8.07
5.56
3.54
2.20
1.41
0.81
-0.09
-1.81
-4.72
-8.96
-14.34
-20.34
-26.20
-31.07
-34.23
-35.26
-34.05
-30.81
-25.99
-20.18
-14.05
-8.24
-3.21
0.82
3.95
6.50
8.80
11.07
13.35
15.57
17.64
19.55
21.35
23.03
24.43
25.24
25.17
24.11
22.25
20.07
18.12
16.72
15.86
15.21
14.36
13.05
11.32
9.40
7.56
5.87
4.19
2.25
-0.18
-3.13
-6.41
-9.74
-12.86
-15.58
-17.67
-18.77
-18.40
-16.20
-12.17
-6.82
-1.07
4.08
7.96
10.43
11.82
12.60
13.15
13.60
13.93
14.17
14.45
15.00
15.95
17.22
18.56
19.53
19.78
19.00
17.15
14.42
11.19
8.01
5.44
3.80
3.09
2.88
2.52
1.44
-0.56
-3.19
-5.93
-8.26
-9.99
-11.30
-12.53
-13.92
-15.36
-16.52
-17.07
-17.01
-16.74
-16.95
-18.20
-20.63
-23.82
-26.93
-29.08
-29.61
-28.32
-25.44
-21.42
-16.76
-11.86
-6.94
-2.09
2.60
7.04
11.14
14.89
18.30
21.39
24.05
25.96
26.77
26.21
24.37
21.74
18.95
16.49
14.56
12.96
11.45
9.93
8.63
7.96
8.24
9.32
10.63
11.31
10.66
8.52
5.38
2.19
-0.13
-1.19
-1.29
-1.30
-2.12
-4.25
-7.44
-10.92
-13.90
-15.96
-17.29
-18.54
-20.40
-23.14
-26.53
-29.90
-32.44
-33.48
-32.65
-29.92
-25.58
-20.19
-14.47
-9.13
-4.70
-1.34
1.10
2.99
4.69
6.37
7.98
9.38
10.49
11.43
12.46
13.80
15.48
17.17
18.37
18.69
18.02
16.67
15.20
14.09
13.59
13.58
13.68
13.50
12.71
11.16
8.92
6.26
3.63
1.57
0.48
0.44
1.03
1.51
1.12
-0.58
-3.47
-7.06
-10.74
-14.12
-17.18
-20.16
-23.35
-26.84
-30.38
-33.49
-35.60
-36.26
-35.27
-32.73
-28.94
-24.35
-19.32
-14.18
-9.14
-4.49
-0.49
2.61
4.70
5.93
6.69
7.45
8.60
10.27
12.38
14.68
16.89
18.77
20.17
21.04
21.48
21.83
22.57
24.13
26.63
29.63
32.16
33.00
31.21
26.48
19.32
10.82
2.29
-5.14
-10.72
-14.14
-15.50
-15.27
-14.26
-13.50
-14.03
-16.46
-20.73
-25.99
-30.84
-33.81
-33.91
-30.84
-25.06
-17.52
-9.32
-1.47
5.23
10.26
13.30
14.30
13.45
11.21
8.27
5.44
3.42
2.68
3.25
4.82
6.74
8.25
8.75
7.95
6.06
3.57
1.19
-0.61
-1.69
-2.25
-2.68
-3.32
-4.25
-5.28
-6.14
-6.66
-6.94
-7.25
-7.88
-8.95
-10.33
-11.74
-12.91
-13.76
-14.36
-14.95
-15.75
-16.80
-17.93
-18.76
-18.87
-17.94
-15.95
-13.12
-9.89
-6.65
-3.63
-0.82
1.90
4.67
7.48
10.17
12.54
14.32
15.38
15.66
15.20
14.23
13.06
12.13
11.79
12.19
13.15
14.28
15.00
14.85
13.60
11.33
8.37
5.17
2.14
-0.47
-2.59
-4.28
-5.67
-6.92
-8.10
-9.24
-10.38
-11.54
-12.74
-13.97
-15.20
-16.44
-17.72
-19.18
-20.92
-22.95
-25.03
-26.69
-27.37
-26.68
-24.54
-21.31
-17.64
-14.24
-11.57
-9.79
-8.71
-7.93
-7.08
-5.86
-4.18
-2.12
0.15
2.40
4.38
5.85
6.59
6.49
5.59
4.11
2.40
0.85
-0.23
-0.73
-0.70
-0.30
0.28
0.87
1.25
1.22
0.62
-0.54
-1.97
-3.12
-3.40
-2.49
-0.50
1.95
4.06
5.16
4.89
3.30
0.61
-2.89
-6.96
-11.32
-15.61
-19.36
-22.12
-23.60
-23.76
-22.83
-21.08
-18.75
-15.99
-12.93
-9.72
-6.63
-3.98
-2.01
-0.85
-0.46
-0.67
-1.25
-1.85
-2.09
-1.64
-0.32
1.74
4.12
6.23
7.52
7.70
6.74
4.77
1.95
-1.66
-5.98
-10.81
-15.71
-20.06
-23.37
-25.49
-26.83
-28.21
-30.54
-34.42
-39.86
-46.27
-52.66
-57.94
-61.25
-62.12
-60.57
-57.04
-52.22
-46.88
-41.60
-36.58
-31.67
-26.48
-20.74
-14.55
-8.47
-3.26
0.46
2.60
3.62
4.35
5.66
8.20
12.31
18.09
25.35
33.58
41.90
49.13
54.12
56.26
55.86
54.01
52.10
51.06
50.84
50.47
48.58
44.12
36.91
27.58
17.32
7.41
-1.13
-7.56
-11.34
-12.17
-10.12
-5.93
-0.89
3.54
6.44
7.86
8.81
10.65
14.32
19.92
26.69
33.64
40.02
45.61
50.45
54.46
57.14
57.74
55.69
51.01
44.50
37.37
30.83
25.59
21.79
19.01
16.67
14.34
11.95
9.76
8.16
7.38
7.23
7.19
6.61
5.12
2.75
-0.07
-2.89
-5.49
-8.12
-11.32
-15.59
-21.07
-27.33
-33.54
-38.72
-42.07
-43.26
-42.37
-39.78
-35.94
-31.30
-26.22
-21.03
-15.99
-11.28
-6.96
-2.96
0.82
4.46
7.90
10.93
13.28
14.77
15.31
14.95
13.86
12.28
10.53
8.88
7.47
6.16
4.58
2.25
-1.16
-5.73
-11.18
-17.05
-22.94
-28.64
-34.14
-39.58
-45.17
-51.23
-58.31
-67.13
-78.30
-91.75
-106.17
-118.86
-126.28
-125.09
-113.45
-91.74
-62.54
-29.64
3.13
33.03
58.79
80.39
98.42
113.55
126.18
136.50
144.61
150.61
154.32
155.23
152.44
145.06
132.77
116.35
97.69
79.29
63.40
51.21
42.59
36.35
31.09
25.88
20.67
15.99
12.42
10.12
8.69
7.39
5.58
3.06
0.06
-2.92
-5.48
-7.50
-9.23
-11.07
-13.33
-16.09
-19.21
-22.44
-25.63
-28.70
-31.61
-34.11
-35.80
-36.12
-34.64
-31.28
-26.39
-20.66
-14.81
-9.40
-4.65
-0.51
3.21
6.59
9.58
11.96
13.56
14.33
14.45
14.29
14.22
14.49
15.14
16.00
16.80
17.28
17.32
16.86
15.94
14.60
12.86
10.76
8.39
5.91
3.48
1.21
-0.93
-3.10
-5.46
-8.11
-10.96
-13.84
-16.59
-19.11
-21.38
-23.35
-24.74
-25.07
-23.84
-20.77
-16.08
-10.54
-5.23
-1.11
1.40
2.52
3.04
3.82
5.39
7.73
10.34
12.56
13.89
14.25
13.90
13.29
12.81
12.57
12.46
12.26
11.77
10.93
9.81
8.59
7.41
6.37
5.42
4.46
3.34
1.94
0.24
-1.65
-3.54
-5.28
-6.75
-7.97
-8.97
-9.82
-10.55
-11.24
-12.05
-13.27
-15.14
-17.73
-20.72
-23.44
-25.07
-24.96
-22.87
-19.11
-14.39
-9.53
-5.15
-1.50
1.52
4.26
7.05
10.06
13.19
16.15
18.60
20.31
21.20
21.34
20.91
20.02
18.75
17.16
15.29
13.25
11.14
9.02
6.91
4.78
2.59
0.38
-1.79
-3.85
-5.72
-7.41
-8.92
-10.27
-11.49
-12.51
-13.28
-13.73
-13.84
-13.65
-13.27
-12.91
-12.79
-13.13
-14.09
-15.68
-17.70
-19.75
-21.22
-21.54
-20.31
-17.52
-13.58
-9.20
-5.18
-2.06
0.01
1.31
2.33
3.50
5.04
6.81
8.53
9.86
10.62
10.85
10.80
10.79
11.06
11.63
12.28
12.69
12.58
11.88
10.76
9.51
8.33
7.20
5.91
4.18
1.86
-0.93
-3.89
-6.67
-9.00
-10.79
-12.03
-12.77
-13.07
-13.04
-12.86
-12.73
-12.82
-13.12
-13.41
-13.28
-12.31
-10.24
-7.04
-3.02
1.30
5.37
8.77
11.32
13.12
14.38
15.35
16.14
16.74
17.01
16.84
16.22
15.29
14.30
13.47
12.89
12.45
11.89
10.94
9.40
7.24
4.57
1.57
-1.63
-4.97
-8.40
-11.83
-15.08
-17.88
-20.00
-21.33
-21.96
-22.15
-22.28
-22.75
-23.85
-25.69
-28.17
-31.00
-33.73
-35.84
-36.83
-36.37
-34.34
-30.85
-26.27
-21.07
-15.75
-10.77
-6.43
-2.91
-0.14
2.05
3.94
5.76
7.58
9.23
10.38
10.72
10.26
9.41
8.88
9.33
10.93
13.19
15.10
15.66
14.33
11.33
7.51
3.76
0.61
-2.09
-4.80
-7.81
-10.79
-12.80
-12.83
-10.51
-6.52
-2.35
0.25
0.11
-2.82
-7.71
-13.26
-18.45
-22.84
-26.52
-29.68
-32.29
-33.95
-34.12
-32.45
-29.09
-24.71
-20.25
-16.62
-14.28
-13.22
-13.07
-13.36
-13.87
-14.68
-16.11
-18.42
-21.62
-25.38
-29.20
-32.71
-35.78
-38.61
-41.55
-44.90
-48.81
-53.19
-57.83
-62.39
-66.48
-69.59
-71.23
-70.94
-68.41
-63.57
-56.53
-47.48
-36.67
-24.26
-10.49
4.25
19.38
34.12
47.66
59.24
68.29
74.47
77.70
78.19
76.36
72.96
68.85
64.96
62.03
60.49
60.36
61.29
62.78
64.28
65.28
65.39
64.30
61.84
58.05
53.22
47.86
42.63
38.01
34.26
31.29
28.86
26.73
24.81
23.17
21.90
20.96
20.12
19.09
17.62
15.64
13.27
10.78
8.38
6.16
4.10
2.08
0.03
-2.05
-4.02
-5.73
-7.07
-8.09
-9.00
-10.04
-11.45
-13.31
-15.57
-18.08
-20.69
-23.23
-25.47
-27.10
-27.71
-26.93
-24.61
-20.92
-16.35
-11.55
-7.10
-3.36
-0.42
1.82
3.56
4.99
6.29
7.53
8.73
9.80
10.57
10.84
10.47
9.46
7.93
6.09
4.16
2.37
0.93
0.04
-0.18
0.27
1.16
2.12
2.66
2.39
1.11
-1.12
-3.97
-6.97
-9.67
-11.79
-13.31
-14.48
-15.66
-17.15
-19.10
-21.41
-23.82
-25.95
-27.40
-27.78
-26.75
-24.12
-19.90
-14.44
-8.36
-2.37
2.91
7.18
10.46
13.04
15.26
17.36
19.35
21.07
22.19
22.42
21.60
19.82
17.39
14.78
12.45
10.72
9.67
9.19
9.00
8.81
8.35
7.43
5.92
3.86
1.39
-1.23
-3.72
-5.83
-7.43
-8.62
-9.66
-10.96
-12.92
-15.77
-19.42
-23.49
-27.29
-30.12
-31.39
-30.85
-28.63
-25.13
-20.85
-16.31
-11.90
-7.87
-4.35
-1.37
1.16
3.39
5.48
7.51
9.43
11.13
12.42
13.18
13.40
13.16
12.57
11.77
10.90
10.14
9.73
9.84
10.46
11.36
12.08
12.18
11.44
9.90
7.82
5.53
3.17
0.74
-1.85
-4.67
-7.67
-10.82
-14.19
-17.98
-22.29
-26.99
-31.47
-34.85
-36.26
-35.28
-32.11
-27.52
-22.47
-17.75
-13.63
-9.94
-6.26
-2.22
2.29
7.06
11.69
15.81
19.21
21.87
23.90
25.46
26.57
27.22
27.32
26.87
25.97
24.77
23.45
22.11
20.74
19.23
17.40
15.13
12.39
9.25
5.87
2.41
-0.95
-4.07
-6.78
-8.99
-10.71
-12.12
-13.56
-15.40
-17.88
-21.03
-24.52
-27.84
-30.31
-31.35
-30.62
-28.05
-23.91
-18.79
-13.37
-8.24
-3.70
0.28
3.97
7.68
11.54
15.41
19.01
21.98
24.06
25.12
25.10
23.97
21.84
18.95
15.74
12.67
10.12
8.22
6.81
5.59
4.31
2.83
1.14
-0.70
-2.68
-4.84
-7.21
-9.75
-12.35
-14.83
-17.06
-18.97
-20.54
-21.75
-22.61
-23.12
-23.35
-23.53
-23.97
-25.01
-26.79
-29.15
-31.55
-33.15
-33.06
-30.66
-25.83
-19.01
-11.03
-2.85
4.77
11.45
17.15
22.03
26.22
29.73
32.44
34.19
34.94
34.78
33.95
32.69
31.16
29.42
27.53
25.55
23.65
22.04
20.92
20.29
19.95
19.55
18.68
16.99
14.40
11.08
7.44
4.00
1.15
-0.91
-2.22
-3.03
-3.59
-4.06
-4.46
-4.73
-4.86
-5.01
-5.45
-6.64
-9.01
-12.79
-17.95
-24.03
-30.17
-35.34
-38.52
-39.05
-36.82
-32.30
-26.36
-20.00
-14.02
-8.80
-4.31
-0.22
3.84
8.08
12.41
16.55
20.13
22.95
24.99
26.42
27.48
28.38
29.25
30.10
30.88
31.51
31.87
31.80
31.17
29.88
27.96
25.48
22.59
19.42
16.06
12.56
8.96
5.33
1.78
-1.55
-4.55
-7.12
-9.24
-10.96
-12.42
-13.81
-15.42
-17.50
-20.27
-23.76
-27.76
-31.77
-35.06
-36.86
-36.53
-33.91
-29.35
-23.63
-17.70
-12.32
-7.86
-4.19
-0.95
2.26
5.66
9.18
12.58
15.60
18.09
20.03
21.52
22.62
23.39
23.80
23.82
23.47
22.83
22.00
21.10
20.17
19.14
17.90
16.34
14.44
12.23
9.77
7.05
4.05
0.70
-2.92
-6.58
-9.94
-12.65
-14.53
-15.73
-16.69
-18.02
-20.29
-23.80
-28.41
-33.49
-38.07
-41.11
-41.84
-39.92
-35.63
-29.66
-22.92
-16.20
-10.00
-4.47
0.46
4.95
9.18
13.18
16.86
20.06
22.57
24.32
25.33
25.75
25.76
25.52
25.02
24.23
23.10
21.70
20.20
18.80
17.63
16.65
15.58
14.13
12.06
9.34
6.16
2.86
-0.18
-2.68
-4.50
-5.67
-6.39
-6.95
-7.71
-9.10
-11.48
-14.99
-19.41
-24.09
-28.07
-30.39
-30.49
-28.40
-24.68
-20.20
-15.69
-11.51
-7.63
-3.83
-0.05
3.55
6.60
8.81
10.10
10.73
11.09
11.55
12.20
12.89
13.29
13.15
12.41
11.28
10.08
9.06
8.27
7.49
6.39
4.65
2.13
-1.06
-4.63
-8.17
-11.36
-14.04
-16.28
-18.35
-20.63
-23.47
-27.09
-31.39
-35.95
-40.03
-42.73
-43.22
-41.01
-36.11
-29.13
-21.05
-12.89
-5.38
1.27
7.35
13.32
19.49
25.76
31.68
36.62
40.16
42.27
43.31
43.82
44.27
44.78
45.17
45.03
44.01
42.02
39.19
35.77
31.93
27.62
22.57
16.50
9.33
1.28
-7.09
-15.13
-22.30
-28.41
-33.58
-38.20
-42.72
-47.50
-52.68
-58.08
-63.26
-67.49
-69.98
-69.99
-67.17
-61.63
-53.94
-45.02
-35.79
-26.92
-18.74
-11.23
-4.23
2.43
8.71
14.38
19.16
22.85
25.47
27.28
28.66
29.98
31.38
32.77
33.87
34.37
34.14
33.18
31.67
29.81
27.72
25.33
22.53
19.10
14.92
9.95
4.37
-1.50
-7.22
-12.39
-16.82
-20.58
-24.02
-27.67
-32.01
-37.35
-43.65
-50.52
-57.23
-62.80
-66.17
-66.45
-63.19
-56.51
-47.17
-36.28
-25.05
-14.37
-4.69
4.03
12.06
19.71
27.07
33.95
39.96
44.68
47.82
49.30
49.29
48.05
45.86
42.96
39.55
35.83
32.07
28.60
25.71
23.57
22.14
21.20
20.42
19.49
18.18
16.38
14.01
11.08
7.60
3.62
-0.71
-5.16
-9.45
-13.37
-16.87
-20.21
-23.84
-28.32
-34.02
-40.88
-48.25
-54.98
-59.69
-61.20
-58.94
-53.17
-44.81
-35.15
-25.32
-15.98
-7.27
1.01
9.13
17.16
24.90
31.97
37.89
42.26
44.90
45.88
45.51
44.28
42.73
41.21
39.84
38.48
36.93
35.10
33.12
31.16
29.33
27.41
24.92
21.38
16.60
10.84
4.71
-1.09
-6.13
-10.39
-14.18
-17.96
-22.12
-26.95
-32.63
-39.34
-47.20
-56.05
-65.29
-73.84
-80.35
-83.56
-82.73
-77.89
-69.74
-59.39
-47.88
-35.93
-23.80
-11.50
0.99
13.44
25.37
36.16
45.26
52.52
58.22
63.02
67.66
72.62
77.91
83.03
87.16
89.57
89.90
88.29
85.31
81.69
77.98
74.38
70.70
66.46
61.17
54.56
46.70
38.00
29.04
20.36
12.24
4.58
-2.97
-10.86
-19.38
-28.56
-38.10
-47.53
-56.15
-63.09
-67.43
-68.32
-65.34
-58.72
-49.43
-38.84
-28.33
-18.79
-10.48
-3.12
3.76
10.43
16.82
22.63
27.45
31.04
33.39
34.68
35.21
35.27
35.11
34.82
34.39
33.77
32.94
31.90
30.70
29.29
27.51
25.19
22.18
18.57
14.64
10.78
7.24
4.08
1.13
-1.86
-5.08
-8.54
-12.12
-15.72
-19.35
-23.19
-27.56
-32.76
-38.93
-45.91
-53.13
-59.65
-64.24
-65.74
-63.41
-57.21
-47.89
-36.79
-25.36
-14.80
-5.73
1.82
8.19
13.83
18.99
23.73
27.94
31.42
34.09
35.94
37.05
37.51
37.41
36.88
36.05
35.06
34.07
33.15
32.28
31.36
30.16
28.45
26.03
22.87
19.14
15.14
11.24
7.69
4.58
1.75
-1.08
-4.18
-7.67
-11.45
-15.26
-18.82
-21.99
-24.87
-27.80
-31.30
-35.78
-41.33
-47.52
-53.40
-57.66
-59.06
-56.85
-51.07
-42.51
-32.51
-22.39
-13.12
-5.08
1.88
8.11
13.89
19.29
24.14
28.22
31.38
33.62
35.08
35.94
36.29
36.14
35.47
34.31
32.81
31.23
29.87
28.88
28.22
27.60
26.64
25.01
22.56
19.42
15.88
12.34
9.13
6.36
3.93
1.53
-1.19
-4.43
-8.12
-11.89
-15.27
-17.91
-19.88
-21.69
-24.15
-28.04
-33.75
-41.11
-49.31
-57.10
-63.01
-65.75
-64.49
-59.13
-50.38
-39.56
-28.27
-17.91
-9.35
-2.77
2.21
6.20
9.70
12.99
16.13
19.07
21.76
24.20
26.40
28.27
29.70
30.50
30.58
29.95
28.72
27.05
25.05
22.77
20.22
17.46
14.61
11.83
9.17
6.53
3.65
0.28
-3.65
-7.94
-12.18
-15.94
-19.01
-21.47
-23.72
-26.25
-29.50
-33.69
-38.72
-44.19
-49.36
-53.25
-54.81
-53.27
-48.42
-40.78
-31.44
-21.74
-12.80
-5.23
0.95
6.11
10.73
15.11
19.33
23.23
26.56
29.08
30.64
31.20
30.90
29.97
28.76
27.61
26.74
26.21
25.84
25.35
24.44
22.90
20.72
18.04
15.10
12.11
9.19
6.32
3.38
0.24
-3.20
-6.89
-10.63
-14.13
-17.13
-19.52
-21.52
-23.58
-26.31
-30.18
-35.33
-41.42
-47.70
-53.11
-56.50
-56.98
-54.06
-47.91
-39.31
-29.54
-20.03
-11.87
-5.57
-0.88
2.91
6.60
10.66
15.06
19.35
22.96
25.48
26.85
27.28
27.16
26.81
26.39
25.90
25.23
24.32
23.19
21.89
20.50
19.04
17.47
15.71
13.62
11.11
8.14
4.81
1.24
-2.30
-5.61
-8.56
-11.12
-13.50
-15.99
-18.94
-22.65
-27.26
-32.72
-38.76
-44.82
-50.11
-53.67
-54.57
-52.21
-46.58
-38.35
-28.70
-18.97
-10.23
-3.02
2.71
7.31
11.19
14.55
17.37
19.55
21.06
22.06
22.81
23.53
24.21
24.70
24.74
24.18
23.13
21.89
20.82
20.12
19.71
19.25
18.30
16.56
13.98
10.82
7.49
4.39
1.70
-0.68
-3.21
-6.47
-11.03
-17.18
-24.75
-33.02
-40.79
-46.69
-49.52
-48.71
-44.43
-37.59
-29.45
-21.24
-13.73
-7.14
-1.27
4.23
9.60
14.80
19.60
23.67
26.75
28.74
29.74
29.97
29.70
29.15
28.45
27.67
26.82
25.87
24.83
23.71
22.48
21.01
19.10
16.46
12.89
8.38
3.18
-2.23
-7.29
-11.62
-15.08
-17.89
-20.51
-23.49
-27.31
-32.25
-38.21
-44.61
-50.41
-54.33
-55.18
-52.30
-45.91
-37.04
-27.22
-17.85
-9.84
-3.33
2.10
7.02
11.87
16.69
21.27
25.27
28.48
30.85
32.46
33.44
33.88
33.81
33.23
32.19
30.79
29.21
27.64
26.25
25.04
23.89
22.50
20.54
17.71
13.96
9.44
4.55
-0.25
-4.54
-8.14
-11.14
-13.83
-16.63
-19.96
-24.11
-29.19
-35.02
-41.08
-46.52
-50.28
-51.34
-49.05
-43.47
-35.30
-25.75
-16.08
-7.24
0.42
7.06
13.10
18.92
24.59
29.90
34.43
37.79
39.76
40.32
39.67
38.14
36.08
33.82
31.59
29.57
27.81
26.33
25.06
23.91
22.67
21.13
19.08
16.42
13.16
9.45
5.51
1.55
-2.30
-5.96
-9.44
-12.81
-16.15
-19.58
-23.25
-27.31
-31.92
-37.17
-42.94
-48.82
-54.01
-57.52
-58.33
-55.84
-50.06
-41.71
-31.90
-21.79
-12.20
-3.53
4.22
11.22
17.59
23.30
28.26
32.34
35.49
37.77
39.30
40.26
40.83
41.12
41.18
41.02
40.65
40.08
39.34
38.46
37.34
35.81
33.65
30.64
26.78
22.24
17.35
12.52
8.02
3.96
0.18
-3.64
-7.89
-12.89
-18.84
-25.72
-33.27
-41.00
-48.15
-53.77
-56.91
-56.83
-53.34
-46.86
-38.43
-29.30
-20.66
-13.18
-6.93
-1.53
3.58
8.79
14.12
19.26
23.78
27.38
30.00
31.85
33.16
34.04
34.39
33.96
32.56
30.21
27.21
23.95
20.77
17.74
14.72
11.44
7.74
3.72
-0.32
-3.99
-7.00
-9.30
-11.07
-12.65
-14.46
-16.81
-19.92
-23.84
-28.52
-33.86
-39.66
-45.68
-51.41
-56.11
-58.83
-58.67
-55.14
-48.42
-39.40
-29.43
-19.81
-11.38
-4.24
1.99
7.87
13.66
19.23
24.13
27.86
30.14
31.05
30.89
30.06
28.85
27.44
25.89
24.26
22.64
21.08
19.55
17.85
15.74
13.03
9.70
5.94
2.07
-1.67
-5.15
-8.49
-11.85
-15.35
-18.90
-22.24
-25.12
-27.36
-29.05
-30.42
-31.78
-33.42
-35.54
-38.23
-41.39
-44.65
-47.31
-48.43
-47.07
-42.70
-35.43
-26.13
-16.04
-6.40
2.07
9.23
15.44
21.18
26.74
32.06
36.87
40.81
43.68
45.45
46.26
46.27
45.64
44.50
42.98
41.25
39.49
37.83
36.33
34.93
33.46
31.67
29.35
26.43
23.02
19.37
15.79
12.51
9.57
6.73
3.65
-0.03
-4.48
-9.59
-14.96
-20.07
-24.47
-27.95
-30.62
-32.95
-35.64
-39.38
-44.55
-50.98
-57.80
-63.61
-66.87
-66.38
-61.83
-53.85
-43.91
-33.64
-24.37
-16.65
-10.26
-4.53
1.22
7.25
13.29
18.63
22.52
24.49
24.60
23.45
21.93
20.87
20.70
21.27
21.98
22.05
20.92
18.51
15.28
11.94
9.08
6.89
5.01
2.67
-1.02
-6.81
-15.16
-25.94
-38.36
-50.78
-60.85
-66.05
-64.56
-56.26
-43.20
-29.19
-18.58
-14.55
-17.88
-26.80
-37.80
-47.22
-52.61
-53.26
-49.94
-44.03
-36.77
-28.93
-20.93
-13.25
-6.56
-1.74
0.60
0.44
-1.51
-4.05
-5.88
-6.17
-4.82
-2.41
0.04
1.51
1.29
-0.82
-4.50
-9.02
-13.54
-17.32
-19.98
-21.56
-22.45
-23.12
-23.77
-24.13
-23.58
-21.41
-17.18
-11.01
-3.48
4.58
12.44
19.54
25.44
29.67
31.62
30.70
26.68
19.99
11.87
4.03
-1.81
-4.54
-3.98
-0.83
3.71
8.46
12.61
15.85
18.16
19.60
20.13
19.70
18.42
16.74
15.31
14.76
15.25
16.38
17.26
16.97
15.02
11.70
8.01
5.24
4.44
5.80
8.52
11.14
12.10
10.52
6.59
1.41
-3.47
-6.58
-6.92
-3.99
2.16
10.69
19.83
26.99
29.48
25.59
15.61
1.99
-11.57
-21.63
-26.40
-26.01
-21.92
-15.63
-7.93
1.11
11.54
22.83
33.84
43.38
50.95
56.97
62.45
68.31
74.71
80.99
86.02
88.85
89.04
86.78
82.61
77.20
71.16
65.01
59.07
53.40
47.75
41.53
34.19
25.42
15.58
5.52
-3.64
-11.04
-16.41
-20.15
-23.06
-26.04
-29.73
-34.38
-39.80
-45.48
-50.67
-54.53
-56.25
-55.24
-51.32
-44.80
-36.43
-27.23
-18.13
-9.71
-2.05
5.10
11.99
18.61
24.58
29.37
32.59
34.28
34.87
34.96
34.99
35.07
34.99
34.48
33.48
32.16
30.79
29.46
27.99
25.95
22.89
18.62
13.35
7.53
1.71
-3.67
-8.47
-12.76
-16.81
-20.95
-25.54
-30.89
-37.15
-44.14
-51.25
-57.42
-61.38
-62.00
-58.76
-51.89
-42.39
-31.60
-20.78
-10.69
-1.48
7.11
15.40
23.47
31.01
37.47
42.32
45.34
46.66
46.68
45.86
44.59
43.07
41.42
39.74
38.14
36.74
35.57
34.62
33.74
32.73
31.39
29.47
26.79
23.24
18.90
14.01
8.98
4.21
-0.10
-4.01
-7.84
-12.04
-17.07
-23.19
-30.38
-38.31
-46.25
-53.17
-57.88
-59.38
-57.14
-51.40
-43.00
-33.15
-22.94
-13.06
-3.67
5.34
14.10
22.50
30.20
36.74
41.73
45.05
46.79
47.22
46.73
45.66
44.37
43.09
42.00
41.09
40.22
39.20
37.84
36.05
33.82
31.24
28.30
24.95
21.09
16.65
11.74
6.67
1.83
-2.45
-6.07
-9.18
-12.20
-15.55
-19.57
-24.43
-30.16
-36.62
-43.56
-50.49
-56.66
-61.19
-63.25
-62.31
-58.42
-52.16
-44.45
-36.22
-28.15
-20.55
-13.38
-6.48
0.28
6.79
12.78
17.83
21.61
23.99
25.17
25.53
25.50
25.36
25.13
24.65
23.76
22.42
20.76
19.04
17.46
16.08
14.75
13.20
11.17
8.54
5.37
1.92
-1.46
-4.45
-6.95
-9.07
-11.15
-13.59
-16.76
-20.81
-25.68
-31.06
-36.42
-40.97
-43.83
-44.19
-41.58
-36.12
-28.58
-20.09
-11.84
-4.62
1.37
6.37
10.76
14.74
18.24
20.95
22.64
23.33
23.34
23.12
23.04
23.21
23.42
23.38
22.81
21.70
20.25
18.78
17.52
16.51
15.55
14.34
12.60
10.24
7.38
4.30
1.29
-1.56
-4.32
-7.22
-10.47
-14.22
-18.53
-23.39
-28.76
-34.49
-40.20
-45.20
-48.66
-49.76
-48.05
-43.67
-37.32
-30.05
-22.85
-16.41
-10.92
-6.17
-1.77
2.66
7.24
11.84
16.07
19.46
21.69
22.68
22.67
22.12
21.50
21.10
21.01
21.07
21.13
21.09
20.97
20.78
20.44
19.73
18.32
15.97
12.60
8.37
3.61
-1.26
-5.94
-10.22
-14.05
-17.45
-20.54
-23.46
-26.38
-29.44
-32.68
-35.90
-38.69
-40.45
-40.54
-38.60
-34.65
-29.16
-22.89
-16.63
-10.96
-6.05
-1.75
2.28
6.32
10.43
14.37
17.75
20.18
21.50
21.81
21.45
20.81
20.19
19.67
19.19
18.60
17.79
16.77
15.55
14.19
12.71
11.13
9.42
7.58
5.57
3.33
0.81
-1.98
-4.95
-7.90
-10.66
-13.15
-15.39
-17.57
-19.91
-22.65
-25.93
-29.76
-33.88
-37.79
-40.73
-41.91
-40.76
-37.15
-31.48
-24.60
-17.48
-10.95
-5.45
-1.01
2.61
5.74
8.64
11.42
14.06
16.41
18.31
19.59
20.17
20.07
19.40
18.34
17.06
15.71
14.34
12.99
11.70
10.45
9.20
7.84
6.17
4.00
1.25
-1.95
-5.28
-8.35
-10.87
-12.82
-14.46
-16.24
-18.56
-21.62
-25.33
-29.32
-33.06
-35.94
-37.39
-37.00
-34.60
-30.37
-24.81
-18.64
-12.57
-7.11
-2.45
1.52
5.02
8.19
10.99
13.23
14.69
15.23
14.94
14.06
12.95
11.90
11.07
10.48
10.03
9.59
9.13
8.66
8.28
7.98
7.64
6.98
5.69
3.56
0.71
-2.47
-5.35
-7.40
-8.40
-8.60
-8.68
-9.42
-11.48
-15.09
-20.02
-25.63
-30.99
-35.14
-37.24
-36.78
-33.69
-28.34
-21.51
-14.14
-7.07
-0.84
4.36
8.67
12.32
15.55
18.45
21.02
23.18
24.85
25.97
26.53
26.61
26.29
25.69
24.91
24.03
23.14
22.33
21.65
21.06
20.42
19.47
17.92
15.61
12.52
8.81
4.78
0.72
-3.13
-6.67
-9.94
-13.06
-16.24
-19.70
-23.62
-28.08
-32.94
-37.85
-42.21
-45.32
-46.52
-45.32
-41.57
-35.58
-28.05
-19.89
-11.99
-4.96
0.95
5.86
10.02
13.63
16.79
19.41
21.39
22.69
23.34
23.47
23.26
22.81
22.18
21.31
20.11
18.58
16.80
14.98
13.40
12.23
11.43
10.73
9.74
8.06
5.51
2.19
-1.58
-5.37
-8.82
-11.79
-14.32
-16.65
-19.10
-21.99
-25.49
-29.61
-34.14
-38.63
-42.48
-45.02
-45.62
-43.91
-39.82
-33.75
-26.46
-18.86
-11.77
-5.62
-0.44
4.09
8.42
12.83
17.37
21.75
25.59
28.51
30.30
30.97
30.70
29.76
28.46
27.08
25.79
24.62
23.47
22.14
20.50
18.47
16.13
13.58
10.88
8.02
4.93
1.61
-1.83
-5.15
-8.14
-10.67
-12.84
-14.91
-17.24
-20.15
-23.79
-28.05
-32.46
-36.22
-38.46
-38.39
-35.66
-30.51
-23.69
-16.18
-8.88
-2.39
3.12
7.69
11.49
14.61
17.03
18.72
19.68
20.01
19.86
19.46
18.92
18.27
17.42
16.23
14.66
12.81
10.93
9.33
8.21
7.52
6.96
6.09
4.52
2.07
-1.09
-4.55
-7.78
-10.38
-12.21
-13.49
-14.60
-16.00
-18.07
-20.96
-24.64
-28.87
-33.15
-36.80
-38.95
-38.82
-35.95
-30.42
-22.95
-14.64
-6.69
0.03
5.12
8.73
11.27
13.23
14.95
16.53
17.95
19.07
19.80
20.09
19.96
19.46
18.65
17.63
16.53
15.41
14.34
13.32
12.32
11.27
10.11
8.76
7.12
5.12
2.77
0.19
-2.43
-4.95
-7.36
-9.91
-12.99
-16.95
-21.95
-27.82
-34.12
-40.20
-45.32
-48.78
-49.96
-48.56
-44.64
-38.72
-31.70
-24.60
-18.29
-13.27
-9.66
-7.28
-5.88
-5.24
-5.14
-5.38
-5.73
-6.07
-6.43
-7.01
-8.13
-9.99
-12.61
-15.80
-19.24
-22.74
-26.35
-30.37
-35.14
-40.81
-47.21
-53.82
-59.93
-64.75
-67.60
-67.91
-65.33
-59.80
-51.66
-41.82
-31.72
-22.93
-16.81
-13.92
-13.72
-14.58
-14.21
-10.27
-0.96
14.38
35.19
59.80
85.85
110.88
132.85
150.53
163.51
172.13
177.21
179.93
181.59
183.21
184.87
185.18
181.34
169.92
148.39
116.56
77.19
35.31
-3.51
-35.12
-57.95
-72.89
-82.22
-88.19
-92.12
-94.36
-94.88
-93.87
-92.08
-90.59
-90.43
-92.12
-95.46
-99.65
-103.55
-106.06
-106.43
-104.36
-99.97
-93.68
-85.95
-77.15
-67.49
-57.06
-45.97
-34.46
-22.91
-11.83
-1.64
7.45
15.54
22.93
29.93
36.66
42.89
48.16
51.95
53.98
54.33
53.42
51.78
49.83
47.66
45.05
41.66
37.19
31.65
25.33
18.70
12.25
6.29
0.90
-4.08
-8.92
-13.89
-19.24
-25.13
-31.52
-38.11
-44.19
-48.72
-50.62
-49.06
-43.93
-35.93
-26.36
-16.63
-7.75
-0.10
6.58
12.71
18.61
24.21
29.14
33.02
35.59
36.93
37.34
37.16
36.71
36.17
35.61
35.07
34.54
34.00
33.35
32.43
31.04
29.00
26.27
22.98
19.39
15.76
12.15
8.36
3.92
-1.65
-8.61
-16.70
-25.14
-32.72
-38.15
-40.43
-39.20
-34.74
-27.92
-19.86
-11.54
-3.60
3.75
10.55
16.92
22.78
27.86
31.81
34.39
35.55
35.43
34.24
32.18
29.43
26.21
22.88
19.92
17.68
16.29
15.50
14.73
13.35
10.92
7.41
3.19
-1.13
-5.03
-8.41
-11.70
-15.78
-21.52
-29.33
-38.76
-48.36
-56.18
-60.25
-59.40
-53.58
-44.04
-32.91
-22.71
-15.75
-13.40
-15.65
-20.85
-26.02
-27.80
-23.61
-12.77
3.12
20.78
36.57
47.92
54.28
57.03
58.61
61.26
66.14
73.10
80.97
88.26
93.65
96.31
95.90
92.38
85.97
77.05
66.28
54.46
42.45
30.86
19.84
9.00
-2.33
-14.69
-28.04
-41.54
-53.68
-62.77
-67.48
-67.22
-62.34
-53.83
-43.04
-31.31
-19.69
-8.85
0.96
9.69
17.30
23.60
28.12
30.33
29.84
26.79
21.83
16.02
10.47
6.00
2.94
1.21
0.60
0.88
1.86
3.32
4.95
6.32
7.12
7.25
6.79
5.95
4.82
3.28
1.02
-2.26
-6.69
-12.14
-18.29
-24.73
-30.96
-36.35
-40.09
-41.19
-38.77
-32.47
-22.78
-11.01
1.10
12.08
21.23
28.77
35.45
41.93
48.29
54.05
58.48
61.14
62.11
61.91
61.04
59.73
57.76
54.80
50.75
45.94
41.10
36.95
33.81
31.42
29.01
25.62
20.55
13.66
5.50
-2.94
-10.58
-16.66
-20.97
-23.87
-26.03
-28.18
-30.77
-33.90
-37.30
-40.40
-42.53
-42.96
-41.12
-36.74
-29.91
-21.17
-11.31
-1.14
8.69
17.84
26.20
33.71
40.20
45.34
48.74
50.14
49.57
47.33
43.92
39.75
35.00
29.60
23.35
16.21
8.38
0.37
-7.17
-13.77
-19.28
-23.85
-27.81
-31.40
-34.64
-37.39
-39.41
-40.72
-41.66
-42.83
-44.86
-48.10
-52.33
-56.71
-60.07
-61.28
-59.63
-55.11
-48.30
-40.19
-31.88
-24.27
-17.94
-13.09
-9.51
-6.74
-4.25
-1.57
1.37
4.22
6.33
7.03
6.01
3.46
0.05
-3.31
-5.73
-6.62
-5.82
-3.60
-0.62
2.32
4.46
5.26
4.57
2.54
-0.53
-4.29
-8.46
-12.86
-17.42
-22.15
-27.12
-32.37
-37.78
-42.90
-47.02
-49.37
-49.51
-47.59
-44.32
-40.69
-37.53
-35.26
-33.77
-32.69
-31.71
-30.77
-30.10
-30.03
-30.72
-32.03
-33.47
-34.36
-34.14
-32.50
-29.56
-25.72
-21.47
-17.11
-12.65
-7.83
-2.35
3.87
10.56
17.08
22.71
26.82
29.09
29.58
28.57
26.38
23.23
19.09
13.79
7.26
-0.17
-7.45
-12.80
-14.14
-9.76
0.82
16.48
34.74
52.58
67.58
78.69
86.38
92.10
97.34
102.94
108.82
114.24
118.43
121.00
122.05
121.99
121.21
119.81
117.60
114.37
110.08
105.05
99.82
94.86
90.18
85.21
78.95
70.39
58.98
44.82
28.60
11.25
-6.46
-24.12
-41.50
-58.36
-74.17
-88.11
-99.31
-107.22
-111.74
-113.24
-112.22
-109.12
-104.15
-97.44
-89.20
-79.86
-70.02
-60.32
-51.23
-43.05
-35.95
-30.13
-25.80
-23.12
-22.07
-22.32
-23.29
-24.22
-24.46
-23.65
-21.89
-19.62
-17.47
-15.97
-15.32
-15.37
-15.69
-15.79
-15.31
-14.10
-12.23
-9.91
-7.48
-5.39
-4.17
-4.25
-5.78
-8.56
-12.11
-15.87
-19.52
-23.06
-26.70
-30.47
-34.04
-36.66
-37.49
-36.00
-32.33
-27.17
-21.46
-15.93
-10.85
-6.12
-1.57
2.72
6.31
8.65
9.42
8.79
7.38
6.03
5.32
5.32
5.51
5.11
3.40
0.05
-4.78
-10.54
-16.51
-22.01
-26.49
-29.65
-31.41
-32.00
-31.81
-31.37
-31.24
-31.83
-33.36
-35.82
-38.95
-42.38
-45.57
-48.02
-49.32
-49.32
-48.16
-46.21
-43.86
-41.34
-38.62
-35.40
-31.31
-26.12
-19.91
-13.06
-6.06
0.65
6.85
12.54
17.89
23.05
28.16
33.31
38.60
44.02
49.42
54.33
58.04
59.83
59.30
56.63
52.58
48.20
44.38
41.48
39.27
37.13
34.41
30.71
25.98
20.51
14.82
9.56
5.35
2.63
1.55
1.86
3.03
4.42
5.49
5.90
5.51
4.28
2.24
-0.48
-3.63
-6.87
-9.95
-12.81
-15.62
-18.57
-21.76
-24.98
-27.86
-30.18
-32.05
-33.87
-36.00
-38.33
-40.18
-40.45
-38.21
-33.16
-25.79
-17.14
-8.16
0.69
9.73
19.68
31.19
44.25
58.02
71.06
81.88
89.55
94.06
96.18
97.05
97.60
98.22
98.74
98.72
97.83
95.96
93.17
89.49
84.90
79.42
73.40
67.86
64.35
64.45
69.05
77.71
88.55
98.84
105.95
108.32
105.92
99.81
91.11
79.99
65.30
45.24
18.84
-12.87
-46.54
-77.55
-101.87
-117.69
-126.10
-130.23
-133.65
-138.73
-145.74
-153.22
-159.00
-161.34
-159.66
-154.51
-147.11
-138.60
-129.60
-120.17
-110.06
-99.17
-87.91
-77.07
-67.54
-59.75
-53.38
-47.52
-41.12
-33.44
-24.49
-14.83
-5.31
3.36
10.85
17.27
23.08
28.84
35.13
42.25
50.11
58.16
65.39
70.62
72.73
71.00
65.24
55.71
43.04
28.06
11.90
-4.09
-18.40
-29.54
-36.47
-38.84
-37.17
-32.65
-26.80
-20.94
-15.96
-12.24
-9.76
-8.35
-7.78
-7.80
-8.07
-8.23
-7.90
-6.85
-5.12
-2.94
-0.68
1.42
3.36
5.35
7.68
10.44
13.35
15.72
16.65
15.26
11.13
4.42
-4.09
-13.23
-21.90
-29.43
-35.75
-41.21
-46.20
-50.72
-54.27
-55.99
-55.14
-51.48
-45.39
-37.72
-29.39
-21.10
-13.23
-6.01
0.30
5.35
8.78
10.47
10.62
9.78
8.60
7.60
7.05
6.89
6.87
6.68
6.06
4.92
3.30
1.35
-0.76
-2.87
-4.95
-7.14
-9.70
-12.96
-17.14
-22.17
-27.50
-32.26
-35.39
-35.99
-33.59
-28.33
-20.84
-12.03
-2.92
5.69
13.23
19.50
24.56
28.68
32.20
35.43
38.48
41.33
43.83
45.81
47.26
48.31
49.23
50.34
51.82
53.64
55.42
56.49
56.15
53.97
50.07
45.18
40.31
36.30
33.34
30.91
28.14
24.37
19.58
14.48
10.10
7.26
6.16
6.48
7.61
9.15
10.97
13.20
15.86
18.67
21.17
22.92
23.77
24.04
24.30
25.10
26.68
28.84
31.05
32.66
33.15
32.38
30.59
28.28
25.99
24.02
22.40
20.83
18.97
16.63
13.91
11.09
8.49
6.21
4.08
1.72
-1.23
-4.88
-9.08
-13.51
-17.83
-21.91
-25.85
-29.90
-34.26
-38.99
-43.83
-48.21
-51.38
-52.51
-51.03
-46.79
-40.27
-32.42
-24.46
-17.36
-11.57
-6.99
-3.12
0.53
4.16
7.65
10.74
13.31
15.45
17.40
19.27
20.99
22.23
22.70
22.31
21.22
19.75
18.20
16.74
15.46
14.38
13.49
12.70
11.81
10.53
8.60
5.98
2.84
-0.43
-3.55
-6.47
-9.41
-12.73
-16.73
-21.46
-26.74
-32.20
-37.34
-41.62
-44.38
-45.02
-43.13
-38.69
-32.20
-24.60
-16.91
-9.96
-4.11
0.70
4.77
8.35
11.53
14.25
16.40
17.96
19.00
19.71
20.19
20.49
20.57
20.37
19.87
19.11
18.14
17.03
15.79
14.42
12.87
11.12
9.17
7.06
4.87
2.68
0.60
-1.35
-3.21
-5.11
-7.29
-9.93
-13.10
-16.70
-20.39
-23.71
-26.19
-27.45
-27.25
-25.51
-22.37
-18.11
-13.17
-8.04
-3.19
1.12
4.81
8.00
10.88
13.53
15.92
17.86
19.11
19.50
19.07
18.01
16.64
15.36
14.44
14.02
14.00
14.10
13.99
13.35
12.01
9.98
7.40
4.49
1.46
-1.45
-4.06
-6.27
-8.12
-9.76
-11.47
-13.53
-16.06
-18.98
-21.91
-24.31
-25.55
-25.18
-22.99
-19.17
-14.25
-8.99
-4.17
-0.40
2.04
3.20
3.33
2.75
1.69
0.33
-1.19
-2.74
-4.18
-5.44
-6.66
-8.09
-10.03
-12.59
-15.55
-18.41
-20.59
-21.71
-21.71
-20.95
-19.96
-19.20
-18.88
-18.92
-19.09
-19.17
-19.06
-18.78
-18.45
-18.16
-18.01
-18.12
-18.56
-19.35
-20.37
-21.21
-21.34
-20.24
-17.56
-13.36
-8.07
-2.41
2.83
7.03
9.87
11.35
11.77
11.61
11.38
11.52
12.27
13.61
15.33
17.03
18.31
18.87
18.64
17.80
16.67
15.64
14.97
14.67
14.49
14.03
12.90
10.91
8.13
4.88
1.57
-1.36
-3.64
-5.19
-6.16
-6.93
-8.05
-10.06
-13.28
-17.66
-22.71
-27.52
-31.12
-32.67
-31.76
-28.54
-23.62
-17.93
-12.47
-8.05
-5.15
-3.86
-3.94
-4.92
-6.29
-7.60
-8.47
-8.66
-8.01
-6.51
-4.34
-1.80
0.79
3.20
5.39
7.42
9.33
10.98
12.05
12.14
11.02
8.81
5.87
2.74
-0.24
-3.01
-5.83
-9.08
-13.05
-17.91
-23.72
-30.46
-38.08
-46.26
-54.34
-61.33
-66.11
-67.88
-66.48
-62.47
-56.89
-50.79
-44.86
-39.33
-34.08
-28.94
-23.92
-19.14
-14.75
-10.78
-7.06
-3.36
0.47
4.32
7.93
10.94
13.13
14.44
15.05
15.20
15.11
14.84
14.37
13.54
12.23
10.45
8.35
6.19
4.22
2.59
1.17
-0.33
-2.33
-5.15
-8.93
-13.56
-18.75
-24.04
-28.82
-32.34
-33.81
-32.59
-28.47
-21.78
-13.33
-4.15
4.85
13.12
20.50
26.97
32.48
36.78
39.60
40.78
40.55
39.38
37.84
36.36
35.04
33.70
32.08
30.06
27.74
25.46
23.56
22.20
21.21
20.08
18.23
15.19
10.88
5.62
0.03
-5.30
-10.06
-14.34
-18.53
-23.20
-28.71
-35.20
-42.40
-49.80
-56.65
-62.08
-65.24
-65.48
-62.56
-56.75
-48.90
-40.12
-31.45
-23.49
-16.32
-9.57
-2.77
4.28
11.44
18.28
24.35
29.42
33.54
36.89
39.62
41.69
43.02
43.59
43.56
43.25
42.94
42.71
42.39
41.63
40.10
37.58
34.09
29.81
25.04
20.10
15.19
10.41
5.65
0.65
-4.88
-11.06
-17.73
-24.35
-30.08
-33.93
-35.02
-32.85
-27.44
-19.43
-9.90
-0.17
8.64
15.87
21.43
25.71
29.23
32.37
35.17
37.38
38.67
38.86
37.98
36.30
34.19
31.94
29.74
27.69
25.83
24.23
22.89
21.73
20.50
18.89
16.65
13.65
10.00
5.90
1.56
-2.94
-7.71
-13.06
-19.26
-26.42
-34.21
-41.81
-48.04
-51.59
-51.50
-47.45
-39.93
-30.08
-19.39
-9.18
-0.23
7.33
13.86
19.87
25.64
31.07
35.75
39.22
41.18
41.71
41.17
40.06
38.79
37.56
36.42
35.27
33.96
32.33
30.25
27.59
24.34
20.54
16.31
11.77
7.02
2.02
-3.33
-9.25
-15.92
-23.40
-31.48
-39.49
-46.38
-50.88
-51.95
-49.09
-42.67
-33.72
-23.66
-13.77
-4.82
3.01
9.98
16.50
22.84
28.98
34.59
39.24
42.52
44.24
44.48
43.59
42.07
40.43
38.96
37.76
36.66
35.39
33.62
31.14
27.87
23.90
19.43
14.69
9.82
4.79
-0.57
-6.50
-13.20
-20.71
-28.83
-37.02
-44.52
-50.30
-53.34
-52.88
-48.63
-40.98
-30.92
-19.76
-8.77
1.23
9.95
17.60
24.51
30.90
36.69
41.58
45.21
47.35
47.99
47.32
45.69
43.47
41.03
38.71
36.78
35.34
34.27
33.23
31.74
29.30
25.67
20.89
15.33
9.47
3.78
-1.47
-6.29
-10.92
-15.79
-21.40
-28.10
-35.90
-44.30
-52.27
-58.41
-61.37
-60.22
-54.87
-46.06
-35.15
-23.59
-12.46
-2.28
6.99
15.64
23.89
31.71
38.85
44.97
49.81
53.32
55.61
56.85
57.22
56.84
55.78
54.24
52.42
50.59
48.93
47.42
45.79
43.69
40.69
36.54
31.23
25.05
18.49
12.12
6.37
1.46
-2.72
-6.56
-10.59
-15.37
-21.25
-28.26
-36.01
-43.67
-50.10
-54.07
-54.64
-51.48
-44.99
-36.22
-26.45
-16.82
-7.98
-0.04
7.22
14.10
20.72
26.94
32.49
37.15
40.82
43.54
45.41
46.48
46.70
46.00
44.38
42.05
39.44
37.03
35.15
33.87
32.89
31.74
29.91
27.10
23.29
18.71
13.68
8.52
3.48
-1.32
-5.85
-10.18
-14.54
-19.29
-24.76
-31.07
-37.93
-44.56
-49.81
-52.62
-52.29
-48.85
-42.92
-35.48
-27.44
-19.42
-11.69
-4.33
2.59
8.88
14.25
18.43
21.30
22.98
23.75
23.96
23.93
23.77
23.49
22.96
22.13
21.07
19.99
19.10
18.50
18.00
17.25
15.84
13.51
10.28
6.40
2.26
-1.80
-5.57
-9.04
-12.32
-15.67
-19.43
-23.88
-29.24
-35.37
-41.73
-47.38
-51.20
-52.28
-50.22
-45.34
-38.51
-30.82
-23.22
-16.22
-9.89
-4.06
1.45
6.66
11.40
15.42
18.54
20.73
22.08
22.72
22.78
22.33
21.43
20.14
18.61
17.00
15.48
14.16
13.11
12.25
11.41
10.34
8.74
6.36
3.12
-0.83
-5.10
-9.19
-12.73
-15.57
-17.94
-20.26
-23.03
-26.60
-31.08
-36.33
-41.92
-47.17
-51.21
-53.16
-52.34
-48.56
-42.28
-34.42
-26.15
-18.41
-11.72
-6.05
-1.06
3.61
8.13
12.44
16.28
19.38
21.61
23.00
23.64
23.68
23.23
22.40
21.27
20.02
18.80
17.79
17.00
16.34
15.66
14.75
13.49
11.83
9.79
7.38
4.61
1.51
-1.82
-5.25
-8.61
-11.78
-14.74
-17.52
-20.26
-23.07
-26.16
-29.70
-33.85
-38.63
-43.80
-48.72
-52.52
-54.24
-53.21
-49.27
-42.85
-34.76
-25.92
-17.05
-8.58
-0.73
6.43
12.81
18.31
22.85
26.40
29.02
30.85
32.09
32.96
33.71
34.48
35.28
35.95
36.21
35.86
34.90
33.52
31.98
30.46
28.90
27.19
25.27
23.24
21.28
19.55
17.87
15.82
12.81
8.41
2.56
-4.32
-11.53
-18.29
-24.03
-28.51
-31.88
-34.52
-37.00
-39.80
-43.27
-47.42
-51.89
-55.96
-58.63
-58.95
-56.22
-50.40
-42.10
-32.48
-22.85
-14.30
-7.39
-2.19
1.63
4.46
6.55
7.96
8.68
8.72
8.25
7.54
6.88
6.49
6.41
6.55
6.75
6.87
6.87
6.78
6.65
6.48
6.22
5.78
5.11
4.23
3.20
2.07
0.87
-0.41
-1.81
-3.31
-4.91
-6.60
-8.39
-10.35
-12.63
-15.36
-18.71
-22.77
-27.48
-32.57
-37.48
-41.38
-43.40
-42.89
-39.67
-34.15
-27.21
-19.86
-12.97
-6.97
-1.92
2.39
6.22
9.69
12.75
15.27
17.10
18.25
18.82
18.97
18.86
18.60
18.23
17.77
17.23
16.60
15.85
14.91
13.68
12.14
10.33
8.30
6.14
3.80
1.17
-1.90
-5.45
-9.34
-13.21
-16.67
-19.45
-21.55
-23.19
-24.74
-26.54
-28.82
-31.72
-35.32
-39.61
-44.34
-48.92
-52.35
-53.52
-51.55
-46.29
-38.42
-29.24
-20.18
-12.26
-5.83
-0.67
3.69
7.58
11.10
14.08
16.37
17.94
18.96
19.70
20.43
21.27
22.19
23.03
23.62
23.80
23.54
22.90
21.98
20.86
19.58
18.04
16.16
13.84
11.09
7.99
4.67
1.27
-2.13
-5.49
-8.82
-12.12
-15.35
-18.46
-21.51
-24.67
-28.27
-32.70
-38.10
-44.17
-50.10
-54.68
-56.67
-55.28
-50.40
-42.67
-33.23
-23.38
-14.19
-6.34
-0.04
4.83
8.58
11.63
14.33
16.92
19.44
21.75
23.60
24.74
25.06
24.66
23.81
22.83
21.97
21.29
20.69
19.95
18.84
17.15
14.74
11.58
7.71
3.32
-1.30
-5.84
-10.09
-14.04
-17.96
-22.33
-27.67
-34.23
-41.77
-49.44
-55.92
-59.82
-60.11
-56.45
-49.37
-40.00
-29.75
-19.85
-11.06
-3.62
2.65
8.07
12.90
17.25
21.06
24.15
26.39
27.74
28.28
28.19
27.69
26.95
26.09
25.24
24.43
23.66
22.75
21.42
19.31
16.19
12.10
7.31
2.25
-2.71
-7.44
-12.05
-16.87
-22.27
-28.54
-35.77
-43.72
-51.80
-59.03
-64.19
-66.15
-64.24
-58.55
-49.88
-39.51
-28.69
-18.29
-8.62
0.41
9.00
17.22
24.93
31.79
37.46
41.78
44.70
46.34
46.90
46.61
45.74
44.55
43.30
42.15
41.16
40.18
38.91
36.96
33.97
29.78
24.51
18.55
12.42
6.60
1.32
-3.55
-8.40
-13.79
-20.24
-28.03
-37.05
-46.70
-55.92
-63.35
-67.60
-67.65
-63.20
-54.84
-43.87
-31.89
-20.28
-9.76
-0.30
8.64
17.66
26.93
36.10
44.39
51.00
55.52
58.08
59.23
59.62
59.65
59.35
58.51
56.95
54.78
52.37
50.18
48.47
47.07
45.44
42.87
38.82
33.12
26.09
18.38
10.73
3.74
-2.32
-7.54
-12.27
-17.02
-22.29
-28.47
-35.81
-44.31
-53.67
-63.13
-71.53
-77.43
-79.49
-76.90
-69.77
-59.05
-46.30
-33.02
-20.23
-8.26
3.04
13.92
24.37
34.02
42.38
49.03
53.90
57.27
59.55
61.06
61.96
62.23
61.84
60.93
59.76
58.66
57.86
57.29
56.61
55.32
52.96
49.33
44.62
39.24
33.65
28.13
22.69
17.15
11.38
5.47
-0.22
-5.26
-9.34
-12.50
-15.09
-17.67
-20.76
-24.75
-29.76
-35.74
-42.29
-48.69
-53.86
-56.53
-55.65
-50.72
-42.09
-30.89
-18.65
-6.78
3.89
13.21
21.58
29.58
37.58
45.54
53.01
59.36
64.05
66.81
67.74
67.21
65.65
63.42
60.77
57.87
54.86
51.92
49.21
46.76
44.49
42.17
39.60
36.68
33.46
30.12
26.86
23.83
21.07
18.47
15.82
12.90
9.50
5.55
1.09
-3.68
-8.48
-13.06
-17.33
-21.37
-25.50
-30.18
-35.76
-42.36
-49.63
-56.80
-62.74
-66.29
-66.53
-63.15
-56.52
-47.55
-37.46
-27.37
-17.99
-9.56
-1.92
5.26
12.21
18.89
25.00
30.09
33.80
36.00
36.85
36.74
36.14
35.44
34.84
34.38
33.94
33.32
32.35
30.92
29.04
26.76
24.21
21.47
18.60
15.58
12.35
8.82
4.97
0.79
-3.59
-8.03
-12.40
-16.61
-20.66
-24.63
-28.67
-32.99
-37.72
-42.85
-48.12
-52.91
-56.34
-57.52
-55.79
-51.03
-43.71
-34.83
-25.55
-16.85
-9.28
-2.88
2.60
7.53
12.14
16.43
20.22
23.24
25.28
26.32
26.49
26.11
25.52
24.98
24.55
24.16
23.60
22.69
21.33
19.56
17.53
15.39
13.22
11.00
8.63
6.03
3.16
0.04
-3.29
-6.79
-10.46
-14.27
-18.12
-21.88
-25.47
-28.99
-32.75
-37.19
-42.65
-48.99
-55.50
-60.91
-63.81
-63.19
-58.74
-51.03
-41.27
-30.89
-21.07
-12.58
-5.62
-0.01
4.62
8.69
12.51
16.20
19.72
22.85
25.31
26.90
27.57
27.45
26.82
26.00
25.24
24.64
24.20
23.78
23.24
22.45
21.32
19.81
17.90
15.58
12.88
9.87
6.64
3.29
-0.11
-3.55
-7.03
-10.57
-14.17
-17.84
-21.59
-25.49
-29.67
-34.32
-39.58
-45.36
-51.31
-56.63
-60.25
-61.13
-58.55
-52.51
-43.79
-33.71
-23.68
-14.78
-7.45
-1.53
3.42
7.87
12.05
15.95
19.49
22.59
25.25
27.46
29.12
30.06
30.12
29.26
27.68
25.78
24.03
22.80
22.22
22.08
21.96
21.33
19.83
17.35
14.12
10.59
7.22
4.30
1.78
-0.64
-3.35
-6.58
-10.28
-14.15
-17.82
-21.05
-23.84
-26.45
-29.25
-32.65
-36.87
-41.90
-47.38
-52.57
-56.42
-57.84
-55.99
-50.60
-42.17
-31.88
-21.21
-11.50
-3.62
2.26
6.49
9.69
12.51
15.32
18.24
21.11
23.65
25.59
26.79
27.33
27.40
27.25
27.02
26.75
26.32
25.66
24.79
23.83
22.95
22.17
21.31
20.00
17.90
14.84
10.88
6.27
1.32
-3.69
-8.51
-12.87
-16.46
-19.10
-20.86
-22.19
-23.86
-26.60
-30.83
-36.31
-42.21
-47.26
-50.28
-50.52
-47.79
-42.49
-35.37
-27.28
-18.96
-10.97
-3.66
2.85
8.51
13.35
17.36
20.54
22.94
24.66
25.91
26.89
27.74
28.46
28.95
29.08
28.87
28.43
28.01
27.77
27.69
27.59
27.10
25.90
23.80
20.83
17.20
13.27
9.37
5.79
2.65
-0.04
-2.38
-4.48
-6.44
-8.34
-10.30
-12.51
-15.21
-18.58
-22.61
-27.00
-31.15
-34.23
-35.44
-34.22
-30.43
-24.44
-16.97
-8.96
-1.38
5.06
10.01
13.51
15.94
17.76
19.38
20.99
22.50
23.68
24.34
24.40
23.97
23.29
22.59
22.02
21.58
21.17
20.66
19.90
18.73
16.97
14.49
11.18
7.08
2.35
-2.75
-7.97
-13.15
-18.28
-23.44
-28.70
-33.98
-39.06
-43.63
-47.44
-50.45
-52.95
-55.43
-58.43
-62.28
-66.84
-71.46
-75.01
-76.27
-74.32
-68.92
-60.57
-50.41
-39.71
-29.52
-20.37
-12.29
-5.07
1.51
7.53
12.92
17.58
21.48
24.64
27.12
28.96
30.16
30.78
30.90
30.62
30.07
29.28
28.30
27.16
25.92
24.62
23.32
21.99
20.50
18.70
16.44
13.63
10.30
6.54
2.53
-1.55
-5.57
-9.44
-13.11
-16.67
-20.28
-24.20
-28.73
-34.07
-40.11
-46.26
-51.51
-54.65
-54.66
-51.16
-44.57
-35.96
-26.66
-17.79
-9.97
-3.29
2.46
7.51
11.98
15.87
19.12
21.72
23.76
25.35
26.58
27.51
28.11
28.36
28.22
27.68
26.81
25.72
24.59
23.51
22.46
21.21
19.45
16.88
13.43
9.30
4.89
0.66
-3.09
-6.33
-9.23
-12.11
-15.26
-18.95
-23.37
-28.62
-34.61
-40.86
-46.46
-50.18
-50.86
-47.86
-41.37
-32.42
-22.50
-13.03
-4.92
1.61
6.79
10.95
14.30
16.84
18.55
19.54
20.10
20.61
21.31
22.16
22.87
23.10
22.70
21.80
20.90
20.60
21.42
23.51
26.67
30.29
33.57
35.59
35.38
31.98
24.56
12.72
-3.30
-22.40
-42.78
-62.41
-79.53
-93.20
-103.31
-110.36
-114.83
-116.80
-115.85
-111.35
-102.99
-91.22
-77.27
-62.79
-49.18
-37.03
-25.91
-14.65
-2.03
12.61
28.95
45.87
61.79
75.36
85.77
92.97
97.75
101.87
108.12
120.04
141.11
173.32
215.89
264.61
312.34
350.80
372.71
373.71
353.29
314.33
261.89
201.61
138.36
75.68
16.02
-38.74
-86.81
-126.41
-156.31
-176.31
-187.56
-192.35
-193.20
-192.06
-189.83
-186.65
-182.52
-177.84
-173.43
-169.98
-167.36
-164.39
-159.24
-150.25
-136.79
-119.59
-100.44
-81.39
-64.02
-49.01
-36.18
-24.89
-14.51
-4.71
4.54
13.05
20.57
26.93
32.02
35.81
38.42
40.02
40.94
41.49
41.95
42.47
43.02
43.41
43.33
42.50
40.80
38.33
35.40
32.39
29.60
27.07
24.55
21.68
18.19
14.02
9.34
4.43
-0.49
-5.30
-10.00
-14.59
-19.09
-23.58
-28.33
-33.71
-40.03
-47.27
-54.73
-61.08
-64.71
-64.30
-59.38
-50.55
-39.30
-27.41
-16.36
-6.92
0.90
7.59
13.68
19.49
25.01
30.01
34.21
37.44
39.71
41.11
41.85
42.10
41.95
41.43
40.52
39.25
37.73
36.22
34.95
34.01
33.24
32.23
30.49
27.70
23.88
19.36
14.65
10.17
6.07
2.30
-1.34
-5.00
-8.73
-12.57
-16.63
-21.14
-26.37
-32.42
-38.96
-45.20
-49.92
-51.87
-50.16
-44.68
-36.12
-25.78
-15.17
-5.47
2.68
9.32
14.88
19.88
24.59
28.96
32.71
35.51
37.19
37.86
37.79
37.33
36.69
35.90
34.80
33.27
31.29
29.02
26.78
24.78
23.05
21.37
19.32
16.52
12.82
8.38
3.65
-0.87
-4.82
-8.13
-11.03
-13.92
-17.25
-21.31
-26.24
-32.00
-38.37
-44.90
-50.87
-55.31
-57.16
-55.63
-50.47
-42.18
-31.99
-21.39
-11.65
-3.48
3.16
8.76
13.88
18.81
23.45
27.48
30.57
32.64
33.86
34.55
35.01
35.38
35.64
35.64
35.24
34.36
33.03
31.41
29.69
28.07
26.60
25.13
23.39
21.06
17.95
14.10
9.75
5.25
0.86
-3.29
-7.19
-10.88
-14.39
-17.78
-21.17
-24.82
-29.10
-34.31
-40.47
-47.12
-53.30
-57.72
-59.11
-56.71
-50.51
-41.33
-30.59
-19.86
-10.32
-2.53
3.65
8.75
13.32
17.73
22.01
25.96
29.35
32.00
33.84
34.91
35.27
35.03
34.32
33.35
32.36
31.53
30.91
30.42
29.78
28.73
27.06
24.72
21.86
18.79
15.81
13.10
10.65
8.20
5.42
2.06
-1.87
-6.11
-10.24
-13.90
-16.95
-19.55
-22.15
-25.35
-29.71
-35.50
-42.56
-50.12
-56.90
-61.39
-62.29
-58.96
-51.69
-41.64
-30.43
-19.65
-10.34
-2.86
3.01
7.82
12.07
16.09
19.93
23.52
26.67
29.23
31.04
32.04
32.24
31.79
30.97
30.12
29.49
29.19
29.11
28.98
28.46
27.33
25.50
23.04
20.10
16.83
13.39
9.97
6.68
3.58
0.64
-2.31
-5.41
-8.78
-12.37
-16.01
-19.49
-22.71
-25.81
-29.17
-33.29
-38.48
-44.61
-50.89
-56.02
-58.59
-57.56
-52.68
-44.61
-34.70
-24.51
-15.29
-7.69
-1.72
3.05
7.16
10.99
14.66
18.04
20.88
23.01
24.35
25.05
25.34
25.42
25.42
25.37
25.22
24.94
24.54
24.03
23.37
22.48
21.27
19.66
17.62
15.15
12.22
8.86
5.12
1.15
-2.83
-6.63
-10.14
-13.40
-16.62
-20.09
-24.13
-28.98
-34.76
-41.30
-48.10
-54.19
-58.36
-59.40
-56.61
-50.10
-40.85
-30.42
-20.37
-11.75
-4.84
0.75
5.66
10.38
14.93
18.98
22.05
23.91
24.67
24.76
24.69
24.79
25.12
25.50
25.73
25.70
25.44
25.01
24.39
23.43
21.91
19.68
16.74
13.21
9.27
5.04
0.62
-3.90
-8.32
-12.43
-16.03
-19.09
-21.81
-24.55
-27.81
-32.02
-37.41
-43.92
-51.06
-57.95
-63.37
-66.09
-65.18
-60.36
-52.14
-41.73
-30.63
-20.20
-11.25
-3.99
1.93
7.09
11.98
16.87
21.73
26.35
30.47
33.94
36.69
38.73
40.09
40.75
40.68
39.90
38.52
36.80
35.00
33.31
31.79
30.30
28.63
26.56
23.97
20.84
17.22
13.20
8.96
4.68
0.58
-3.17
-6.56
-9.78
-13.22
-17.30
-22.37
-28.58
-35.75
-43.37
-50.59
-56.29
-59.32
-58.80
-54.42
-46.62
-36.54
-25.67
-15.35
-6.41
1.01
7.35
13.26
19.21
25.32
31.35
36.88
41.53
45.06
47.39
48.56
48.61
47.67
46.04
44.17
42.57
41.64
41.45
41.68
41.73
41.04
39.25
36.38
32.70
28.60
24.36
20.13
15.92
11.69
7.40
3.04
-1.35
-5.76
-10.17
-14.53
-18.85
-23.18
-27.67
-32.61
-38.28
-44.68
-51.42
-57.51
-61.65
-62.59
-59.61
-52.86
-43.29
-32.43
-21.77
-12.44
-4.89
1.00
5.73
9.89
13.89
17.86
21.62
24.85
27.27
28.78
29.53
29.79
29.79
29.59
29.05
28.02
26.50
24.74
23.11
21.87
21.00
20.14
18.71
16.23
12.50
7.72
2.42
-2.76
-7.27
-10.86
-13.60
-15.86
-18.19
-21.14
-25.13
-30.28
-36.40
-42.92
-49.03
-53.72
-56.00
-55.10
-50.75
-43.28
-33.59
-22.96
-12.69
-3.65
3.85
10.07
15.51
20.57
25.30
29.39
32.46
34.30
35.07
35.22
35.30
35.69
36.41
37.24
37.84
37.91
37.38
36.29
34.81
33.10
31.23
29.17
26.85
24.15
21.06
17.65
14.08
10.56
7.28
4.32
1.61
-1.00
-3.77
-6.96
-10.86
-15.69
-21.47
-27.96
-34.56
-40.34
-44.26
-45.44
-43.44
-38.38
-30.92
-22.13
-13.14
-4.90
2.04
7.57
11.99
15.79
19.48
23.33
27.35
31.27
34.61
36.93
37.96
37.73
36.56
35.01
33.59
32.64
32.16
31.82
31.19
29.93
27.99
25.55
22.93
20.31
17.67
14.76
11.36
7.42
3.18
-0.94
-4.58
-7.61
-10.26
-12.95
-16.06
-19.79
-24.06
-28.72
-33.65
-38.83
-44.26
-49.71
-54.59
-57.99
-58.97
-56.93
-51.93
-44.72
-36.43
-28.19
-20.72
-14.16
-8.22
-2.44
3.44
9.39
15.06
19.94
23.67
26.10
27.36
27.80
27.81
27.70
27.60
27.46
27.16
26.66
26.07
25.70
25.83
26.54
27.61
28.56
28.91
28.35
26.86
24.65
21.87
18.59
14.76
10.38
5.70
1.15
-2.83
-6.08
-8.95
-12.13
-16.39
-22.14
-29.07
-36.22
-42.10
-45.29
-44.82
-40.52
-33.05
-23.66
-13.76
-4.50
3.48
10.07
15.52
20.15
24.14
27.40
29.74
30.90
30.70
29.09
26.10
21.90
16.78
11.22
5.92
1.63
-1.05
-1.91
-1.28
0.01
1.01
1.04
-0.01
-1.68
-3.21
-4.03
-4.17
-4.32
-5.49
-8.44
-13.30
-19.50
-25.98
-31.64
-35.67
-37.56
-36.98
-33.78
-27.95
-19.81
-10.16
-0.09
9.28
17.13
23.21
27.73
31.13
33.92
36.45
39.00
41.66
44.37
46.75
48.24
48.20
46.23
42.37
37.10
31.15
25.16
19.44
13.99
8.71
3.51
-1.46
-6.02
-10.03
-13.61
-17.04
-20.58
-24.31
-28.05
-31.51
-34.55
-37.34
-40.25
-43.61
-47.32
-50.73
-52.81
-52.57
-49.53
-43.95
-36.74
-29.03
-21.80
-15.53
-10.27
-5.83
-2.12
0.79
2.62
3.17
2.49
0.95
-0.81
-2.23
-2.97
-3.04
-2.76
-2.49
-2.52
-2.97
-3.82
-4.99
-6.42
-8.02
-9.71
-11.39
-12.95
-14.42
-15.96
-17.92
-20.66
-24.39
-29.01
-34.00
-38.54
-41.64
-42.45
-40.55
-36.03
-29.59
-22.25
-15.08
-8.83
-3.77
0.33
3.92
7.35
10.67
13.57
15.58
16.37
15.89
14.40
12.29
9.96
7.66
5.54
3.69
2.16
0.91
-0.22
-1.46
-3.00
-4.87
-6.94
-9.01
-10.97
-12.99
-15.35
-18.38
-22.22
-26.67
-31.15
-34.82
-36.70
-36.02
-32.44
-26.27
-18.41
-10.11
-2.52
3.68
8.45
12.28
15.78
19.34
22.90
26.02
28.17
28.98
28.41
26.69
24.27
21.60
19.11
17.03
15.44
14.23
13.19
12.09
10.69
8.91
6.79
4.41
1.92
-0.55
-2.91
-5.13
-7.36
-9.85
-12.93
-16.89
-21.69
-26.86
-31.50
-34.49
-34.87
-32.30
-27.14
-20.42
-13.37
-7.06
-2.00
1.80
4.76
7.37
9.98
12.65
15.25
17.53
19.28
20.37
20.69
20.21
18.95
17.02
14.68
12.30
10.27
8.86
8.06
7.52
6.74
5.24
2.88
-0.06
-3.03
-5.38
-6.67
-6.81
-6.08
-5.01
-4.24
-4.37
-5.83
-8.75
-12.82
-17.28
-21.03
-22.91
-22.14
-18.60
-12.91
-6.14
0.50
6.21
10.66
14.00
16.62
18.87
20.95
22.87
24.53
25.84
26.75
27.29
27.56
27.67
27.61
27.28
26.40
24.73
22.17
18.93
15.56
12.67
10.75
9.87
9.74
9.77
9.45
8.44
6.79
4.75
2.70
0.95
-0.31
-1.14
-1.78
-2.71
-4.44
-7.36
-11.49
-16.30
-20.75
-23.59
-23.72
-20.63
-14.54
-6.28
3.00
12.18
20.42
27.19
32.22
35.47
37.11
37.58
37.49
37.48
37.98
39.03
40.36
41.48
41.95
41.42
39.67
36.59
32.19
26.65
20.38
13.93
7.80
2.25
-2.83
-7.80
-13.09
-18.86
-24.88
-30.65
-35.60
-39.32
-41.71
-43.06
-43.81
-44.46
-45.37
-46.58
-47.87
-48.75
-48.67
-47.21
-44.30
-40.19
-35.40
-30.48
-25.81
-21.50
-17.42
-13.40
-9.36
-5.43
-1.83
1.20
3.53
5.11
5.93
5.85
4.80
2.82
0.24
-2.33
-4.12
-4.60
-3.56
-1.34
1.35
3.74
5.24
5.54
4.73
3.12
1.09
-0.99
-2.86
-4.47
-5.88
-7.31
-9.07
-11.34
-14.14
-17.18
-19.92
-21.65
-21.75
-19.86
-16.04
-10.75
-4.76
1.12
6.17
9.95
12.37
13.56
13.86
13.61
13.11
12.49
11.75
10.83
9.66
8.27
6.77
5.27
3.83
2.42
0.94
-0.69
-2.53
-4.56
-6.66
-8.76
-10.81
-12.80
-14.78
-16.86
-19.16
-21.81
-24.94
-28.55
-32.42
-36.06
-38.75
-39.74
-38.50
-34.89
-29.34
-22.67
-15.88
-9.80
-4.84
-0.98
2.20
5.22
8.50
12.21
16.22
20.16
23.54
25.90
26.92
26.54
25.01
22.77
20.33
18.15
16.45
15.20
14.22
13.27
12.19
10.90
9.41
7.72
5.75
3.38
0.46
-3.08
-7.22
-11.83
-16.64
-21.29
-25.31
-28.13
-29.19
-28.07
-24.59
-18.91
-11.55
-3.29
4.98
12.41
18.43
22.82
25.74
27.65
29.11
30.53
32.02
33.34
34.10
33.88
32.52
30.12
27.03
23.64
20.22
16.90
13.64
10.42
7.19
4.02
0.95
-1.93
-4.56
-6.92
-8.95
-10.69
-12.22
-13.80
-15.75
-18.39
-21.85
-25.89
-29.91
-33.00
-34.23
-32.94
-29.02
-22.98
-15.81
-8.72
-2.69
1.77
4.73
6.70
8.34
10.15
12.23
14.32
15.92
16.61
16.24
15.06
13.51
12.13
11.23
10.81
10.54
9.96
8.63
6.27
2.91
-1.15
-5.47
-9.58
-13.11
-15.92
-18.09
-19.91
-21.79
-24.14
-27.22
-31.07
-35.40
-39.57
-42.76
-44.10
-42.98
-39.24
-33.26
-25.93
-18.32
-11.43
-5.94
-2.02
0.60
2.40
3.94
5.56
7.32
9.04
10.42
11.16
11.07
10.18
8.66
6.85
5.08
3.65
2.68
2.07
1.55
0.81
-0.41
-2.23
-4.57
-7.20
-9.85
-12.27
-14.38
-16.27
-18.21
-20.58
-23.75
-27.81
-32.48
-37.08
-40.65
-42.27
-41.39
-37.93
-32.36
-25.43
-17.95
-10.53
-3.52
3.00
9.05
14.58
19.44
23.34
26.03
27.43
27.76
27.48
27.18
27.33
28.12
29.34
30.59
31.46
31.81
31.69
31.35
30.90
30.24
29.01
26.85
23.57
19.16
13.77
7.53
0.52
-7.07
-14.87
-22.21
-28.46
-33.30
-36.95
-40.03
-43.07
-46.00
-48.00
-47.81
-44.48
-37.93
-29.24
-20.09
-12.05
-5.82
-1.09
3.11
7.70
12.99
18.49
23.26
26.42
27.65
27.30
26.18
25.08
24.40
24.05
23.60
22.64
21.10
19.32
17.91
17.33
17.68
18.54
19.19
18.84
17.04
13.79
9.49
4.77
0.22
-3.81
-7.29
-10.44
-13.67
-17.39
-21.90
-27.30
-33.37
-39.48
-44.71
-47.99
-48.48
-45.78
-40.17
-32.50
-23.91
-15.41
-7.69
-0.91
5.05
10.45
15.40
19.82
23.51
26.33
28.31
29.66
30.63
31.40
31.98
32.16
31.71
30.50
28.68
26.64
24.85
23.61
22.89
22.28
21.17
19.03
15.62
11.11
5.96
0.72
-4.19
-8.61
-12.70
-16.80
-21.36
-26.71
-32.95
-39.80
-46.57
-52.26
-55.81
-56.38
-53.66
-47.97
-40.16
-31.29
-22.32
-13.89
-6.29
0.50
6.60
12.12
17.11
21.54
25.34
28.43
30.80
32.51
33.68
34.50
35.12
35.59
35.88
35.95
35.76
35.38
34.90
34.36
33.70
32.74
31.27
29.15
26.34
22.95
19.17
15.12
10.90
6.52
1.90
-3.05
-8.46
-14.44
-21.01
-27.95
-34.71
-40.41
-43.96
-44.43
-41.30
-34.74
-25.53
-14.83
-3.77
6.81
16.50
25.18
32.81
39.31
44.52
48.33
50.79
52.13
52.66
52.70
52.46
52.04
51.46
50.69
49.70
48.43
46.78
44.67
42.07
39.05
35.77
32.44
29.17
25.99
22.79
19.45
15.87
12.04
7.99
3.77
-0.60
-5.05
-9.51
-13.83
-17.93
-21.85
-25.79
-30.05
-34.89
-40.32
-45.96
-51.13
-54.93
-56.49
-55.27
-51.15
-44.53
-36.19
-27.14
-18.37
-10.60
-4.22
0.78
4.65
7.77
10.50
13.11
15.69
18.16
20.35
22.06
23.17
23.72
23.91
23.97
24.08
24.24
24.29
24.04
23.30
22.04
20.35
18.33
16.04
13.42
10.37
6.82
2.78
-1.60
-6.08
-10.45
-14.70
-19.02
-23.80
-29.44
-36.20
-44.00
-52.51
-61.25
-69.64
-77.13
-83.08
-86.69
-87.07
-83.44
-75.51
-63.77
-49.48
-34.38
-20.20
-8.11
1.55
9.14
15.38
20.91
25.99
30.44
33.93
36.22
37.43
37.98
38.40
39.00
39.75
40.27
40.13
39.10
37.35
35.40
33.82
32.92
32.61
32.38
31.58
29.67
26.48
22.24
17.42
12.55
8.01
3.93
0.26
-3.20
-6.67
-10.43
-14.72
-19.75
-25.53
-31.79
-37.93
-43.02
-46.05
-46.20
-43.10
-36.91
-28.34
-18.42
-8.25
1.27
9.58
16.53
22.23
26.98
31.08
34.70
37.87
40.48
42.36
43.35
43.43
42.67
41.24
39.39
37.34
35.29
33.40
31.77
30.37
29.05
27.54
25.53
22.73
19.09
14.79
10.23
5.93
2.27
-0.63
-3.00
-5.37
-8.41
-12.73
-18.67
-26.11
-34.41
-42.42
-48.68
-51.84
-50.98
-46.05
-37.83
-27.74
-17.34
-7.89
-0.02
6.31
11.51
16.01
19.98
23.36
25.89
27.42
28.03
27.98
27.65
27.30
27.04
26.77
26.36
25.75
24.95
24.00
22.88
21.49
19.62
17.14
14.01
10.37
6.47
2.59
-1.06
-4.41
-7.62
-10.97
-14.83
-19.51
-25.21
-31.87
-39.15
-46.35
-52.52
-56.62
-57.68
-55.23
-49.29
-40.57
-30.24
-19.59
-9.73
-1.28
5.66
11.44
16.50
21.17
25.51
29.28
32.17
33.98
34.69
34.51
33.70
32.42
30.71
28.55
25.96
23.11
20.26
17.61
15.16
12.65
9.68
5.91
1.21
-4.25
-10.10
-15.94
-21.43
-26.43
-30.96
-35.18
-39.32
-43.71
-48.68
-54.48
-61.09
-68.07
-74.46
-78.98
-80.38
-77.92
-71.62
-62.29
-51.26
-39.84
-29.00
-19.23
-10.55
-2.87
3.86
9.57
14.12
17.53
19.95
21.71
23.11
24.36
25.45
26.21
26.42
25.96
24.93
23.65
22.50
21.74
21.32
20.84
19.73
17.44
13.74
8.84
3.26
-2.36
-7.57
-12.22
-16.53
-20.93
-25.89
-31.74
-38.59
-46.21
-54.03
-61.12
-66.32
-68.46
-66.70
-60.82
-51.34
-39.47
-26.74
-14.60
-4.00
4.79
12.06
18.31
24.01
29.34
34.20
38.37
41.63
43.85
44.98
45.03
44.08
42.32
40.09
37.79
35.76
34.14
32.71
31.03
28.61
25.11
20.50
15.00
8.99
2.88
-3.07
-8.86
-14.68
-20.96
-28.12
-36.42
-45.62
-54.85
-62.67
-67.46
-67.89
-63.50
-54.83
-43.22
-30.38
-17.79
-6.39
3.49
11.93
19.19
25.47
30.85
35.28
38.64
40.83
41.73
41.41
40.10
38.24
36.33
34.72
33.47
32.24
30.53
27.83
23.94
19.00
13.41
7.62
1.95
-3.52
-8.87
-14.33
-20.17
-26.71
-34.23
-42.80
-52.08
-61.20
-68.72
-73.11
-73.12
-68.37
-59.43
-47.72
-34.95
-22.63
-11.71
-2.47
5.27
11.90
17.74
22.94
27.49
31.25
34.06
35.77
36.30
35.65
33.92
31.36
28.23
24.82
21.37
17.95
14.48
10.68
6.13
0.37
-6.95
-15.91
-26.26
-37.45
-48.75
-59.54
-69.42
-78.33
-86.43
-93.94
-100.85
-106.73
-110.62
-111.14
-106.84
-96.60
-80.13
-58.18
-32.45
-5.20
21.31
45.38
66.02
82.99
96.40
106.58
113.76
118.23
120.31
120.49
119.31
117.24
114.53
111.20
107.07
101.98
95.96
89.32
82.57
76.28
70.80
66.11
61.77
57.07
51.33
44.22
35.86
26.87
18.02
9.93
2.91
-3.27
-9.15
-15.50
-22.98
-31.85
-41.77
-51.65
-59.84
-64.57
-64.52
-59.28
-49.54
-36.81
-22.88
-9.26
3.24
14.38
24.32
33.21
40.98
47.42
52.28
55.41
56.90
56.97
55.91
53.96
51.23
47.82
43.79
39.27
34.52
29.79
25.33
21.21
17.33
13.42
9.22
4.57
-0.54
-5.89
-11.24
-16.31
-20.98
-25.24
-29.23
-33.20
-37.59
-42.88
-49.51
-57.54
-66.44
-74.84
-80.90
-82.71
-79.05
-69.90
-56.44
-40.69
-24.75
-10.12
2.60
13.56
23.23
31.96
39.81
46.59
52.09
56.21
58.99
60.51
60.84
59.98
58.02
55.24
52.07
49.06
46.66
45.01
43.94
42.95
41.49
39.12
35.68
31.35
26.50
21.52
16.62
11.84
7.08
2.28
-2.54
-7.22
-11.69
-15.99
-20.40
-25.27
-30.98
-37.71
-45.51
-54.23
-63.48
-72.57
-80.38
-85.45
-86.40
-82.35
-73.44
-60.89
-46.58
-32.39
-19.56
-8.41
1.42
10.51
19.14
27.15
34.06
39.51
43.37
45.85
47.24
47.80
47.59
46.66
45.13
43.35
41.75
40.72
40.41
40.63
40.90
40.67
39.48
37.14
33.79
29.83
25.73
21.84
18.28
14.88
11.31
7.23
2.48
-2.83
-8.38
-13.67
-18.33
-22.17
-25.37
-28.40
-31.96
-36.69
-43.06
-51.03
-59.99
-68.67
-75.41
-78.55
-76.87
-70.09
-58.93
-44.91
-29.94
-15.65
-3.15
7.23
15.70
22.78
28.95
34.51
39.54
43.93
47.52
50.27
52.21
53.45
54.07
54.07
53.43
52.21
50.63
49.05
47.82
47.06
46.56
45.82
44.29
41.58
37.70
32.99
28.00
23.28
19.14
15.56
12.24
8.69
4.55
-0.31
-5.71
-11.27
-16.63
-21.62
-26.34
-31.11
-36.26
-41.99
-48.26
-54.87
-61.40
-67.27
-71.71
-73.84
-72.79
-68.05
-59.69
-48.44
-35.59
-22.57
-10.60
-0.37
8.02
14.84
20.44
25.02
28.49
30.61
31.27
30.60
29.08
27.28
25.73
24.63
23.90
23.22
22.28
20.88
19.01
16.75
14.24
11.59
8.81
5.90
2.79
-0.56
-4.20
-8.16
-12.36
-16.73
-21.12
-25.38
-29.51
-33.59
-37.93
-42.88
-48.79
-55.68
-63.17
-70.35
-76.00
-78.81
-77.81
-72.66
-63.75
-52.13
-39.22
-26.44
-14.84
-4.98
3.08
9.59
14.87
19.15
22.49
24.88
26.30
26.84
26.69
26.14
25.50
25.02
24.87
25.02
25.26
25.24
24.59
23.09
20.79
17.95
14.93
12.00
9.12
6.05
2.41
-2.03
-7.15
-12.53
-17.60
-21.91
-25.43
-28.56
-31.99
-36.44
-42.36
-49.72
-58.02
-66.35
-73.59
-78.49
-79.97
-77.27
-70.25
-59.48
-46.17
-31.89
-18.24
-6.38
3.08
10.19
15.38
19.27
22.42
25.18
27.67
29.85
31.62
32.91
33.80
34.36
34.68
34.80
34.69
34.34
33.79
33.19
32.67
32.32
32.08
31.77
31.12
29.99
28.37
26.40
24.22
21.87
19.28
16.29
12.87
9.20
5.67
2.69
0.51
-0.91
-1.85
-2.59
-3.15
-3.28
-2.52
-0.59
2.51
6.36
10.33
13.77
16.24
17.60
17.90
17.36
16.28
15.02
13.96
13.39
13.47
14.15
15.14
16.09
16.62
16.54
15.87
14.84
13.73
12.77
12.05
11.55
11.14
10.70
10.09
9.21
7.97
6.30
4.18
1.75
-0.81
-3.33
-5.71
-8.04
-10.53
-13.42
-16.80
-20.62
-24.68
-28.72
-32.63
-36.48
-40.57
-45.29
-50.95
-57.56
-64.70
-71.61
-77.22
-80.54
-80.87
-78.09
-72.60
-65.25
-57.01
-48.65
-40.53
-32.59
-24.54
-16.10
-7.26
1.66
10.09
17.44
23.31
27.64
30.63
32.62
33.99
34.96
35.65
36.03
36.09
35.87
35.46
34.97
34.37
33.51
32.14
29.99
27.01
23.38
19.50
15.77
12.44
9.49
6.67
3.62
0.02
-4.26
-9.16
-14.46
-19.87
-25.13
-30.05
-34.60
-38.90
-43.23
-47.95
-53.43
-59.83
-66.90
-73.92
-79.77
-83.20
-83.22
-79.42
-72.07
-61.98
-50.24
-37.80
-25.38
-13.42
-2.19
8.07
17.10
24.69
30.74
35.30
38.59
40.88
42.41
43.35
43.80
43.83
43.57
43.19
42.92
42.86
42.95
42.90
42.28
40.73
38.08
34.48
30.32
26.09
22.13
18.58
15.32
12.04
8.42
4.26
-0.51
-5.80
-11.38
-16.99
-22.41
-27.50
-32.30
-37.08
-42.29
-48.38
-55.66
-63.94
-72.47
-79.92
-84.74
-85.62
-81.89
-73.82
-62.53
-49.65
-36.80
-25.13
-15.10
-6.56
0.96
7.92
14.54
20.76
26.45
31.52
35.96
39.85
43.22
45.96
47.91
48.96
49.30
49.27
49.35
49.76
50.35
50.64
50.03
48.04
44.56
39.85
34.43
28.89
23.70
19.08
14.95
10.98
6.70
1.75
-4.01
-10.31
-16.69
-22.65
-28.00
-32.96
-38.11
-44.12
-51.41
-59.88
-68.83
-77.02
-82.93
-85.13
-82.69
-75.41
-63.98
-49.76
-34.47
-19.73
-6.68
4.24
13.18
20.70
27.46
33.93
40.26
46.27
51.53
55.65
58.47
60.13
60.99
61.39
61.48
61.19
60.39
59.14
57.76
56.76
56.43
56.58
56.51
55.37
52.58
48.24
43.05
37.89
33.31
29.17
24.73
19.03
11.34
1.62
-9.52
-21.01
-31.66
-40.53
-47.08
-51.35
-53.85
-55.49
-57.28
-60.12
-64.48
-70.13
-76.17
-81.19
-83.62
-82.24
-76.54
-66.94
-54.59
-40.94
-27.36
-14.74
-3.41
6.68
15.80
24.18
31.90
38.82
44.71
49.30
52.49
54.35
55.21
55.50
55.64
55.92
56.42
57.10
57.83
58.46
58.82
58.69
57.81
55.96
53.09
49.36
45.09
40.63
36.23
31.97
27.90
24.06
20.51
17.25
14.15
10.80
6.76
1.71
-4.35
-11.02
-17.73
-23.91
-29.36
-34.15
-38.63
-43.20
-48.16
-53.73
-60.06
-67.11
-74.55
-81.59
-87.05
-89.56
-88.02
-82.01
-72.01
-59.29
-45.48
-32.10
-20.21
-10.26
-2.20
4.31
9.62
13.93
17.34
19.89
21.77
23.31
25.04
27.43
30.73
34.78
39.03
42.78
45.41
46.69
46.85
46.45
46.06
45.94
45.95
45.58
44.31
41.85
38.35
34.31
30.30
26.64
23.29
19.85
15.83
10.91
5.08
-1.44
-8.26
-15.06
-21.60
-27.75
-33.49
-38.93
-44.29
-49.94
-56.25
-63.38
-71.03
-78.30
-83.83
-86.07
-83.86
-76.79
-65.40
-51.11
-35.75
-21.10
-8.33
2.19
10.79
18.15
24.85
31.12
36.79
41.52
45.05
47.35
48.63
49.15
49.18
48.96
48.68
48.53
48.61
48.86
49.00
48.57
47.16
44.51
40.62
35.70
30.07
24.14
18.29
12.87
8.09
3.95
0.19
-3.59
-7.77
-12.49
-17.65
-22.94
-28.02
-32.77
-37.37
-42.24
-47.92
-54.76
-62.68
-70.96
-78.30
-83.09
-83.91
-80.01
-71.65
-59.97
-46.64
-33.32
-21.18
-10.69
-1.74
6.05
13.05
19.45
25.22
30.27
34.47
37.77
40.14
41.57
42.08
41.78
40.94
39.84
38.73
37.61
36.20
34.11
30.98
26.79
21.97
17.14
12.94
9.71
7.37
5.42
3.19
0.09
-4.19
-9.58
-15.70
-21.99
-27.90
-33.08
-37.50
-41.40
-45.29
-49.82
-55.50
-62.56
-70.61
-78.54
-84.72
-87.41
-85.33
-78.20
-66.79
-52.73
-37.92
-23.94
-11.71
-1.38
7.40
15.19
22.44
29.37
35.96
42.00
47.30
51.72
55.23
57.80
59.43
60.04
59.62
58.40
56.84
55.56
55.13
55.77
57.19
58.72
59.57
59.19
57.42
54.57
51.15
47.63
44.25
40.92
37.32
33.13
28.10
22.26
15.84
9.16
2.49
-4.10
-10.80
-18.03
-26.16
-35.31
-45.04
-54.41
-62.08
-66.82
-67.87
-65.30
-59.91
-52.85
-45.21
-37.61
-30.17
-22.67
-14.89
-6.74
1.60
9.84
17.63
24.68
30.79
35.78
39.52
42.03
43.44
44.06
44.28
44.42
44.68
45.07
45.45
45.59
45.33
44.56
43.27
41.52
39.41
37.00
34.33
31.48
28.52
25.60
22.77
20.01
17.15
13.97
10.26
6.03
1.46
-3.20
-7.77
-12.26
-16.92
-21.97
-27.52
-33.36
-38.97
-43.73
-47.07
-48.66
-48.47
-46.81
-44.24
-41.36
-38.73
-36.56
-34.78
-32.96
-30.56
-27.14
-22.56
-17.14
-11.62
-7.10
-4.61
-4.77
-7.32
-11.02
-13.91
-14.03
-10.11
-2.15
8.60
20.22
30.80
39.09
44.62
47.50
48.10
46.73
43.67
39.19
33.67
27.55
21.27
15.13
9.33
3.91
-1.19
-6.12
-10.97
-15.81
-20.61
-25.33
-30.01
-34.87
-40.20
-46.21
-52.73
-59.02
-63.92
-66.15
-64.84
-59.71
-51.27
-40.50
-28.49
-16.15
-4.09
7.31
17.73
26.82
34.23
39.71
43.24
44.99
45.30
44.49
42.85
40.59
37.97
35.29
32.92
31.14
30.04
29.46
29.03
28.30
26.91
24.68
21.67
18.10
14.25
10.34
6.49
2.72
-1.04
-4.89
-8.86
-12.92
-16.97
-20.90
-24.63
-28.17
-31.63
-35.23
-39.24
-43.99
-49.73
-56.48
-63.80
-70.77
-76.02
-78.11
-76.03
-69.50
-59.21
-46.51
-32.96
-19.80
-7.68
3.34
13.46
22.89
31.65
39.55
46.33
51.81
55.91
58.70
60.35
61.13
61.43
61.64
62.11
62.95
64.05
65.05
65.55
65.19
63.76
61.20
57.55
52.87
47.31
41.10
34.59
28.22
22.40
17.33
12.98
9.05
5.17
1.00
-3.63
-8.65
-13.90
-19.16
-24.29
-29.28
-34.27
-39.46
-45.11
-51.41
-58.43
-65.99
-73.71
-81.00
-87.15
-91.56
-93.76
-93.57
-91.10
-86.64
-80.60
-73.41
-65.39
-56.83
-47.89
-38.78
-29.71
-20.98
-12.89
-5.73
0.34
5.27
9.18
12.26
14.70
16.65
18.22
19.50
20.59
21.63
22.72
23.93
25.21
26.33
26.99
26.82
25.58
23.27
20.14
16.68
13.31
10.23
7.27
4.03
0.09
-4.71
-10.20
-15.93
-21.42
-26.42
-30.97
-35.34
-39.90
-45.00
-50.89
-57.64
-65.09
-72.75
-79.86
-85.37
-88.27
-87.89
-84.13
-77.49
-68.88
-59.28
-49.42
-39.62
-29.85
-19.97
-9.92
0.16
9.87
18.78
26.47
32.77
37.68
41.41
44.23
46.41
48.19
49.70
50.98
52.03
52.80
53.21
53.15
52.39
50.66
47.71
43.49
38.21
32.33
26.51
21.25
16.77
12.91
9.19
5.08
0.25
-5.25
-11.03
-16.63
-21.72
-26.38
-31.06
-36.37
-42.70
-49.97
-57.59
-64.52
-69.69
-72.26
-71.83
-68.39
-62.23
-53.87
-43.90
-33.03
-21.90
-11.03
-0.64
9.30
18.94
28.32
37.18
44.97
51.07
55.12
57.18
57.79
57.65
57.38
57.30
57.37
57.41
57.23
56.72
55.82
54.43
52.36
49.40
45.50
40.82
35.75
30.68
25.76
20.80
15.35
8.97
1.48
-6.84
-15.37
-23.38
-30.33
-36.14
-41.14
-45.98
-51.41
-58.00
-65.96
-75.05
-84.49
-93.03
-99.18
-101.51
-99.09
-91.73
-80.13
-65.64
-49.91
-34.39
-19.99
-6.96
4.96
16.24
27.16
37.70
47.53
56.20
63.36
68.84
72.66
74.98
76.04
76.12
75.55
74.64
73.65
72.65
71.50
69.88
67.36
63.64
58.64
52.57
45.94
39.36
33.36
28.20
23.73
19.46
14.78
9.20
2.62
-4.67
-12.10
-19.14
-25.52
-31.40
-37.27
-43.74
-51.25
-59.78
-68.72
-76.94
-83.00
-85.50
-83.53
-76.86
-66.02
-52.13
-36.48
-20.17
-3.95
11.86
27.08
41.50
54.73
66.18
75.31
81.77
85.57
87.01
86.60
84.86
82.25
79.11
75.67
72.03
68.22
64.20
59.86
55.13
49.97
44.39
38.42
32.12
25.52
18.69
11.71
4.70
-2.20
-8.88
-15.34
-21.73
-28.31
-35.35
-43.04
-51.37
-60.07
-68.62
-76.36
-82.54
-86.47
-87.56
-85.43
-79.99
-71.49
-60.51
-47.83
-34.31
-20.66
-7.39
5.19
16.84
27.24
36.00
42.74
47.22
49.53
50.11
49.64
48.88
48.40
48.48
49.07
49.92
50.61
50.73
50.00
48.30
45.67
42.30
38.40
34.11
29.39
24.12
18.21
11.75
5.01
-1.60
-7.76
-13.39
-18.73
-24.21
-30.31
-37.37
-45.50
-54.58
-64.24
-73.81
-82.32
-88.56
-91.29
-89.60
-83.29
-72.92
-59.69
-45.09
-30.39
-16.41
-3.43
8.63
19.95
30.57
40.27
48.66
55.35
60.10
62.95
64.20
64.27
63.61
62.53
61.26
59.92
58.58
57.27
55.89
54.28
52.16
49.26
45.42
40.73
35.45
29.95
24.50
19.23
14.00
8.60
2.81
-3.39
-9.80
-16.13
-22.10
-27.61
-32.78
-37.96
-43.62
-50.24
-58.11
-67.21
-77.04
-86.57
-94.34
-98.81
-98.74
-93.68
-84.08
-71.23
-56.78
-42.22
-28.44
-15.66
-3.62
7.96
19.08
29.30
38.01
44.67
49.15
51.73
52.95
53.33
53.15
52.47
51.27
49.65
47.89
46.33
45.13
44.12
42.82
40.70
37.38
32.93
27.75
22.44
17.48
13.00
8.83
4.62
0.09
-4.82
-9.95
-15.01
-19.73
-24.04
-28.04
-32.03
-36.40
-41.56
-47.80
-55.15
-63.25
-71.23
-77.85
-81.72
-81.70
-77.26
-68.69
-56.98
-43.53
-29.65
-16.30
-3.82
7.82
18.83
29.28
38.94
47.36
54.08
58.87
61.80
63.24
63.68
63.49
62.86
61.87
60.49
58.81
56.98
55.19
53.50
51.87
50.06
47.80
44.80
40.94
36.26
31.01
25.59
20.39
15.70
11.61
7.90
4.19
0.08
-4.66
-10.03
-15.78
-21.58
-27.13
-32.29
-37.15
-42.01
-47.27
-53.37
-60.62
-68.97
-77.92
-86.40
-92.96
-96.03
-94.51
-88.07
-77.33
-63.71
-48.92
-34.39
-20.93
-8.65
2.76
13.61
23.96
33.46
41.53
47.66
51.64
53.67
54.23
53.96
53.39
52.88
52.56
52.41
52.33
52.23
51.98
51.47
50.51
48.95
46.68
43.72
40.26
36.57
32.89
29.25
25.57
21.69
17.51
13.13
8.74
4.55
0.64
-3.15
-7.11
-11.50
-16.50
-22.05
-27.97
-33.94
-39.73
-45.18
-50.32
-55.37
-60.70
-66.70
-73.55
-80.99
-88.23
-94.03
-97.07
-96.26
-91.19
-82.15
-70.15
-56.54
-42.65
-29.48
-17.57
-6.97
2.52
11.19
19.21
26.52
32.92
38.11
41.89
44.19
45.18
45.18
44.57
43.73
42.95
42.32
41.84
41.40
40.90
40.22
39.24
37.82
35.72
32.78
28.96
24.52
19.97
15.84
12.43
9.60
6.82
3.39
-1.10
-6.64
-12.74
-18.70
-23.95
-28.30
-31.95
-35.43
-39.36
-44.32
-50.68
-58.51
-67.40
-76.46
-84.32
-89.41
-90.38
-86.53
-78.06
-66.04
-52.06
-37.72
-24.19
-12.05
-1.28
8.39
17.23
25.31
32.46
38.45
43.05
46.24
48.21
49.30
49.90
50.30
50.56
50.52
49.94
48.69
46.86
44.82
43.06
41.89
41.25
40.68
39.54
37.33
33.95
29.76
25.37
21.27
17.56
13.94
9.91
5.04
-0.78
-7.34
-14.28
-21.23
-27.95
-34.35
-40.34
-45.83
-50.79
-55.35
-59.92
-65.14
-71.61
-79.56
-88.56
-97.41
-104.40
-107.71
-106.03
-99.01
-87.36
-72.57
-56.46
-40.69
-26.28
-13.69
-2.85
6.55
14.91
22.53
29.57
36.04
41.77
46.51
50.01
52.22
53.30
53.67
53.86
54.34
55.34
56.83
58.58
60.26
61.55
62.23
62.19
61.42
59.99
57.97
55.47
52.62
49.59
46.54
43.56
40.58
37.47
34.03
30.18
25.94
21.43
16.79
12.02
7.07
1.88
-3.47
-8.80
-13.81
-18.37
-22.63
-27.02
-32.10
-38.26
-45.48
-53.18
-60.34
-65.79
-68.52
-68.06
-64.51
-58.49
-50.86
-42.49
-33.96
-25.59
-17.49
-9.77
-2.57
3.83
9.20
13.41
16.53
18.78
20.43
21.71
22.76
23.65
24.35
24.93
25.46
26.03
26.66
27.21
27.42
26.96
25.61
23.33
20.33
16.96
13.57
10.36
7.30
4.15
0.59
-3.65
-8.65
-14.33
-20.43
-26.62
-32.59
-38.17
-43.41
-48.66
-54.48
-61.43
-69.79
-79.28
-89.02
-97.68
-103.85
-106.40
-104.75
-98.94
-89.56
-77.51
-63.79
-49.35
-34.98
-21.20
-8.28
3.71
14.74
24.71
33.43
40.64
46.19
50.13
52.69
54.21
54.95
55.11
54.80
54.18
53.47
52.91
52.54
52.21
51.51
49.99
47.34
43.51
38.73
33.35
27.69
21.94
16.19
10.47
4.78
-0.90
-6.65
-12.55
-18.67
-24.94
-31.20
-37.24
-42.96
-48.54
-54.46
-61.38
-69.78
-79.62
-90.18
-100.07
-107.51
-110.85
-109.00
-101.79
-89.98
-75.02
-58.67
-42.46
-27.35
-13.66
-1.20
10.43
21.50
31.92
41.30
49.16
55.19
59.45
62.33
64.40
66.16
67.86
69.49
70.90
71.93
72.58
72.94
73.15
73.22
73.01
72.21
70.57
67.93
64.39
60.20
55.72
51.24
47.01
43.07
39.37
35.71
31.79
27.29
21.98
15.86
9.20
2.52
-3.67
-9.12
-14.00
-19.01
-25.08
-33.14
-43.61
-56.15
-69.60
-82.14
-91.79
-96.91
-96.63
-91.10
-81.29
-68.74
-55.06
-41.56
-29.00
-17.60
-7.24
2.33
11.14
18.99
25.54
30.50
33.88
36.09
37.79
39.66
42.23
45.68
49.98
54.91
60.17
65.35
69.83
72.89
73.87
72.48
68.96
63.93
58.17
52.23
46.26
40.17
33.83
27.35
21.01
15.10
9.63
4.24
-1.64
-8.52
-16.66
-26.01
-36.30
-47.13
-57.86
-67.47
-74.52
-77.46
-75.08
-67.14
-54.55
-39.17
-23.19
-8.37
4.40
15.12
24.33
32.60
40.12
46.69
51.83
55.15
56.55
56.26
54.76
52.53
49.93
47.11
44.10
40.95
37.75
34.64
31.65
28.59
25.14
20.97
15.96
10.35
4.64
-0.67
-5.29
-9.35
-13.21
-17.28
-21.75
-26.47
-31.06
-35.18
-38.66
-41.67
-44.62
-48.05
-52.40
-57.90
-64.37
-71.13
-77.01
-80.55
-80.33
-75.46
-65.94
-52.72
-37.44
-21.95
-7.66
4.70
15.14
24.09
31.97
38.93
44.83
49.39
52.42
53.97
54.31
53.87
53.07
52.25
51.57
51.05
50.54
49.80
48.59
46.64
43.83
40.02
35.15
29.14
22.03
13.98
5.41
-3.12
-11.06
-18.01
-23.90
-28.94
-33.57
-38.27
-43.55
-49.78
-57.09
-65.26
-73.54
-80.70
-85.28
-86.02
-82.25
-74.18
-62.79
-49.55
-35.89
-22.86
-10.99
-0.30
9.40
18.25
26.15
32.77
37.75
40.85
42.19
42.21
41.56
40.87
40.48
40.46
40.67
40.92
41.14
41.37
41.62
41.71
41.16
39.25
35.29
28.91
20.30
10.20
-0.32
-10.25
-18.94
-26.28
-32.63
-38.68
-45.15
-52.64
-61.49
-71.66
-82.60
-93.24
-102.07
-107.40
-107.91
-103.01
-93.12
-79.56
-64.11
-48.42
-33.62
-20.08
-7.62
4.18
15.61
26.58
36.70
45.38
52.17
56.88
59.67
60.94
61.10
60.41
58.95
56.70
53.74
50.40
47.29
45.09
44.24
44.68
45.84
46.74
46.41
44.24
40.13
34.59
28.40
22.38
17.10
12.70
8.95
5.27
0.90
-4.94
-12.82
-22.88
-34.60
-46.73
-57.61
-65.56
-69.38
-68.75
-64.20
-56.86
-48.01
-38.65
-29.28
-20.04
-10.86
-1.79
6.98
15.05
22.01
27.54
31.51
33.94
34.98
34.86
33.85
32.31
30.56
28.89
27.35
25.74
23.64
20.62
16.48
11.35
5.71
0.08
-5.21
-10.16
-15.10
-20.40
-26.23
-32.42
-38.55
-44.20
-49.23
-53.81
-58.43
-63.58
-69.57
-76.49
-84.16
-92.19
-99.86
-106.14
-109.64
-108.92
-102.92
-91.48
-75.49
-56.72
-37.28
-18.92
-2.54
11.86
24.80
36.81
48.03
58.09
66.37
72.31
75.74
77.00
76.76
75.79
74.74
73.88
73.24
72.64
71.82
70.61
68.91
66.70
63.99
60.76
56.97
52.59
47.65
42.29
36.67
30.96
25.19
19.24
12.91
6.12
-1.00
-8.03
-14.51
-20.17
-25.19
-30.27
-36.28
-43.84
-52.91
-62.57
-71.20
-76.87
-77.93
-73.54
-63.96
-50.41
-34.78
-19.04
-4.72
7.42
17.37
25.63
32.84
39.40
45.35
50.42
54.32
56.82
57.89
57.64
56.36
54.39
52.18
50.17
48.77
48.12
48.06
48.13
47.72
46.32
43.69
39.98
35.64
31.20
27.08
23.42
20.08
16.71
12.92
8.45
3.21
-2.59
-8.63
-14.54
-20.08
-25.26
-30.42
-36.14
-43.02
-51.42
-61.16
-71.29
-80.16
-85.74
-86.31
-80.97
-70.12
-55.35
-39.00
-23.34
-9.89
0.92
9.56
16.86
23.43
29.34
34.17
37.46
39.05
39.28
38.85
38.44
38.42
38.69
38.88
38.56
37.51
35.76
33.50
30.88
27.98
24.77
21.20
17.23
12.85
8.14
3.15
-1.97
-7.05
-11.85
-16.17
-19.98
-23.45
-26.97
-31.05
-36.21
-42.81
-50.85
-59.87
-68.82
-76.16
-80.11
-79.20
-72.78
-61.30
-46.30
-29.88
-14.07
-0.17
11.41
20.98
29.24
36.71
43.57
49.66
54.58
58.04
59.96
60.58
60.32
59.64
58.83
57.97
56.90
55.37
53.24
50.52
47.36
43.95
40.38
36.56
32.29
27.35
21.60
15.07
7.94
0.50
-6.92
-14.11
-20.93
-27.47
-33.85
-40.30
-46.98
-54.07
-61.72
-70.03
-78.92
-87.95
-96.19
-102.24
-104.59
-102.02
-94.15
-81.61
-65.88
-48.85
-32.28
-17.25
-4.17
7.17
17.21
26.28
34.46
41.56
47.31
51.51
54.16
55.47
55.81
55.48
54.67
53.41
51.64
49.33
46.60
43.67
40.73
37.84
34.82
31.32
26.96
21.54
15.13
8.04
0.68
-6.68
-13.93
-21.15
-28.41
-35.66
-42.72
-49.30
-55.23
-60.66
-66.07
-72.17
-79.50
-88.06
-97.07
-105.03
-110.05
-110.44
-105.24
-94.49
-79.21
-61.06
-41.89
-23.27
-6.29
8.51
20.96
31.08
38.88
44.37
47.59
48.74
48.20
46.48
44.16
41.69
39.37
37.37
35.73
34.43
33.31
32.08
30.31
27.52
23.39
17.80
11.07
3.79
-3.28
-9.42
-14.14
-17.22
-18.71
-18.87
-18.09
-16.80
-15.46
-14.50
-14.14
-14.36
-14.83
-15.04
-14.59
-13.39
-11.69
-9.92
-8.32
-6.76
-4.83
-2.07
1.65
5.99
10.36
14.27
17.75
21.35
25.81
31.63
38.59
45.84
52.24
56.88
59.43
60.16
59.68
58.55
57.01
54.97
52.21
48.58
44.14
39.19
34.03
28.95
24.08
19.51
15.20
11.09
6.98
2.61
-2.32
-7.92
-14.05
-20.38
-26.49
-32.12
-37.36
-42.55
-48.15
-54.55
-61.91
-70.10
-78.67
-86.88
-93.76
-98.19
-99.11
-95.82
-88.18
-76.74
-62.68
-47.40
-32.27
-18.20
-5.58
5.59
15.52
24.27
31.74
37.67
41.86
44.33
45.42
45.69
45.73
45.92
46.34
46.81
47.07
46.91
46.24
45.15
43.78
42.32
40.87
39.44
37.92
36.05
33.49
29.91
25.16
19.29
12.67
5.92
-0.26
-5.28
-8.96
-11.68
-14.34
-18.05
-23.71
-31.45
-40.43
-48.99
-55.20
-57.53
-55.41
-49.39
-40.82
-31.28
-22.06
-13.79
-6.52
0.00
6.03
11.65
16.72
21.10
24.66
27.44
29.59
31.25
32.48
33.26
33.48
33.10
32.20
30.97
29.64
28.39
27.18
25.78
23.84
21.10
17.61
13.72
9.98
6.85
4.44
2.40
0.02
-3.49
-8.81
-16.25
-25.74
-36.79
-48.53
-59.68
-68.75
-74.28
-75.20
-71.22
-62.94
-51.67
-39.03
-26.51
-15.08
-5.12
3.45
10.88
17.39
22.99
27.57
30.96
33.17
34.35
34.84
34.93
34.79
34.38
33.52
32.08
30.07
27.68
25.17
22.67
20.06
16.99
13.04
7.96
1.85
-4.82
-11.40
-17.33
-22.30
-26.45
-30.27
-34.49
-39.77
-46.50
-54.54
-63.08
-70.77
-76.02
-77.42
-74.21
-66.56
-55.57
-42.93
-30.40
-19.25
-9.97
-2.36
4.23
10.38
16.36
22.03
27.03
31.03
33.89
35.70
36.70
37.06
36.86
36.09
34.74
32.91
30.74
28.40
25.93
23.24
20.05
16.05
11.03
4.95
-1.87
-8.96
-15.78
-21.95
-27.41
-32.50
-37.83
-44.09
-51.85
-61.32
-72.17
-83.49
-93.79
-101.32
-104.44
-102.22
-94.77
-83.25
-69.48
-55.23
-41.67
-29.09
-17.11
-5.15
7.05
19.24
30.78
40.86
48.94
54.89
58.95
61.53
63.04
63.71
63.60
62.62
60.73
57.99
54.64
51.00
47.31
43.63
39.72
35.22
29.77
23.21
15.70
7.61
-0.59
-8.57
-16.21
-23.60
-31.03
-38.80
-47.27
-56.72
-67.33
-79.01
-91.27
-103.17
-113.40
-120.60
-123.62
-121.93
-115.59
-105.18
-91.59
-75.65
-58.12
-39.53
-20.39
-1.23
17.29
34.43
49.46
61.84
71.33
78.04
82.41
85.05
86.58
87.53
88.26
88.97
89.70
90.42
90.95
90.99
90.18
88.14
84.67
79.77
73.66
66.69
59.22
51.49
43.55
35.36
26.73
17.63
8.15
-1.41
-10.70
-19.40
-27.45
-35.06
-42.73
-51.10
-60.73
-71.92
-84.38
-97.16
-108.64
-116.82
-119.85
-116.54
-106.83
-91.80
-73.41
-53.85
-34.91
-17.59
-2.02
12.19
25.50
38.07
49.61
59.50
67.10
72.09
74.63
75.26
74.68
73.46
71.91
70.14
68.12
65.85
63.36
60.67
57.74
54.42
50.55
46.03
40.89
35.23
29.22
22.97
16.53
9.91
3.08
-3.95
-11.10
-18.31
-25.44
-32.43
-39.40
-46.68
-54.84
-64.46
-75.77
-88.29
-100.61
-110.66
-116.09
-115.14
-107.15
-92.83
-74.06
-53.19
-32.40
-13.06
4.42
20.33
35.26
49.62
63.39
76.19
87.51
96.99
104.53
110.29
114.55
117.53
119.31
119.87
119.20
117.42
114.81
111.78
108.67
105.50
101.97
97.46
91.40
83.52
74.08
63.84
53.69
44.33
35.96
28.26
20.64
12.53
3.66
-5.90
-15.78
-25.53
-34.76
-43.30
-51.21
-58.81
-66.58
-75.05
-84.60
-95.21
-106.30
-116.68
-124.72
-128.72
-127.39
-120.19
-107.58
-90.88
-71.91
-52.46
-33.85
-16.73
-1.09
13.34
26.83
39.27
50.24
59.17
65.68
69.77
71.90
72.75
72.98
72.98
72.84
72.48
71.87
71.00
69.95
68.69
67.08
64.90
61.97
58.25
53.85
48.97
43.80
38.45
33.02
27.55
22.11
16.73
11.38
5.90
0.08
-6.23
-13.06
-20.22
-27.43
-34.40
-40.92
-47.01
-52.84
-58.75
-65.16
-72.47
-80.91
-90.29
-99.93
-108.54
-114.50
-116.26
-112.82
-104.14
-91.09
-75.22
-58.24
-41.49
-25.76
-11.27
2.10
14.50
25.99
36.42
45.58
53.24
59.27
63.64
66.53
68.19
68.96
69.16
69.07
68.87
68.64
68.35
67.85
66.94
65.36
62.93
59.60
55.47
50.76
45.71
40.48
35.15
29.73
24.27
18.91
13.78
8.94
4.27
-0.47
-5.56
-11.15
-17.20
-23.51
-29.80
-35.86
-41.59
-47.07
-52.46
-58.05
-64.17
-71.16
-79.20
-88.10
-97.15
-105.13
-110.53
-111.93
-108.43
-99.89
-86.96
-70.95
-53.37
-35.73
-19.18
-4.39
8.39
19.29
28.54
36.39
42.94
48.21
52.22
55.07
56.99
58.24
59.05
59.53
59.69
59.49
58.94
58.06
56.88
55.42
53.56
51.10
47.84
43.68
38.72
33.31
27.85
22.72
18.01
13.53
8.85
3.56
-2.51
-9.20
-16.06
-22.62
-28.55
-33.88
-38.89
-44.11
-50.04
-57.04
-65.12
-73.84
-82.26
-89.10
-93.00
-92.86
-88.22
-79.32
-67.13
-52.97
-38.19
-23.86
-10.64
1.24
11.74
20.96
28.91
35.59
40.95
45.00
47.84
49.64
50.60
50.91
50.71
50.17
49.47
48.76
48.14
47.61
46.99
46.00
44.33
41.71
38.06
33.52
28.41
23.17
18.21
13.78
9.86
6.21
2.42
-1.93
-7.06
-12.98
-19.40
-25.93
-32.15
-37.86
-43.14
-48.29
-53.81
-60.16
-67.63
-76.15
-85.25
-94.05
-101.37
-105.92
-106.65
-103.06
-95.42
-84.70
-72.27
-59.45
-47.15
-35.67
-24.86
-14.34
-3.90
6.42
16.28
25.23
32.88
39.02
43.69
47.06
49.37
50.86
51.67
51.88
51.58
50.90
50.09
49.38
48.88
48.45
47.70
46.22
43.70
40.22
36.19
32.15
28.51
25.36
22.36
19.01
14.85
9.69
3.65
-2.95
-9.77
-16.53
-23.14
-29.63
-36.05
-42.54
-49.30
-56.57
-64.64
-73.59
-83.09
-92.31
-99.96
-104.60
-105.07
-100.84
-92.16
-80.00
-65.73
-50.76
-36.25
-22.87
-10.80
0.16
10.35
20.01
29.14
37.46
44.59
50.26
54.40
57.24
59.12
60.32
60.99
61.09
60.60
59.59
58.23
56.73
55.16
53.32
50.79
47.14
42.16
36.00
29.23
22.53
16.48
11.28
6.70
2.21
-2.80
-8.78
-15.79
-23.52
-31.38
-38.75
-45.23
-50.82
-56.00
-61.56
-68.26
-76.56
-86.30
-96.70
-106.37
-113.55
-116.45
-113.66
-104.62
-89.86
-70.96
-50.18
-29.76
-11.28
4.66
18.32
30.31
41.03
50.35
57.77
62.73
65.14
65.48
64.71
63.84
63.57
64.08
65.01
65.78
65.83
64.85
62.80
59.90
56.31
52.08
47.06
41.01
33.80
25.59
16.85
8.17
0.08
-7.22
-13.87
-20.30
-27.05
-34.57
-43.13
-52.79
-63.33
-74.23
-84.64
-93.40
-99.21
-100.94
-97.92
-90.14
-78.33
-63.74
-47.82
-31.92
-16.95
-3.34
8.85
19.73
29.29
37.36
43.70
48.14
50.81
52.13
52.68
53.00
53.36
53.69
53.71
53.11
51.71
49.58
46.94
44.06
41.12
38.11
34.81
30.89
25.99
19.93
12.82
5.04
-2.83
-10.22
-16.80
-22.54
-27.76
-32.93
-38.60
-45.24
-53.16
-62.43
-72.69
-83.04
-92.00
-97.71
-98.44
-93.12
-81.78
-65.64
-46.67
-27.01
-8.27
8.72
23.84
37.29
49.25
59.68
68.42
75.45
81.04
85.71
90.03
94.30
98.42
101.91
104.17
104.73
103.46
100.57
96.48
91.63
86.21
80.16
73.20
65.07
55.69
45.40
34.87
24.84
15.88
8.03
0.84
-6.40
-14.30
-23.02
-32.17
-41.03
-48.94
-55.64
-61.46
-67.21
-73.91
-82.39
-92.97
-105.25
-118.05
-129.59
-137.80
-140.82
-137.42
-127.43
-111.75
-92.16
-70.69
-49.13
-28.61
-9.51
8.31
25.17
41.22
56.29
69.92
81.51
90.56
96.87
100.50
101.79
101.14
98.96
95.62
91.53
87.22
83.31
80.32
78.43
77.34
76.27
74.31
70.75
65.40
58.64
51.21
43.91
37.28
31.46
26.14
20.74
14.59
7.19
-1.52
-11.13
-20.85
-29.80
-37.42
-43.72
-49.38
-55.48
-63.13
-73.03
-85.11
-98.46
-111.47
-122.09
-128.42
-129.11
-123.73
-112.90
-98.03
-80.96
-63.40
-46.61
-31.27
-17.55
-5.34
5.46
14.71
22.03
26.89
28.90
28.15
25.31
21.55
18.22
16.38
16.40
17.96
20.26
22.41
23.82
24.28
23.90
22.88
21.32
19.29
16.88
14.30
11.90
9.98
8.60
7.48
6.07
3.78
0.23
-4.50
-9.96
-15.56
-20.92
-26.03
-31.37
-37.68
-45.67
-55.64
-67.11
-78.66
-88.08
-92.89
-91.08
-81.87
-66.07
-45.88
-24.22
-3.69
14.15
28.98
41.49
52.65
63.18
73.19
82.26
89.86
95.61
99.52
101.89
103.10
103.39
102.77
101.17
98.60
95.32
91.85
88.69
86.07
83.84
81.47
78.34
74.03
68.53
62.16
55.43
48.76
42.38
36.32
30.42
24.51
18.44
12.07
5.34
-1.70
-8.88
-15.87
-22.37
-28.20
-33.49
-38.64
-44.33
-51.23
-59.82
-70.07
-81.25
-91.89
-99.97
-103.41
-100.68
-91.42
-76.62
-58.43
-39.46
-21.88
-6.88
5.56
16.29
26.32
36.29
46.15
55.38
63.25
69.25
73.26
75.52
76.37
76.12
75.00
73.21
71.05
68.91
67.20
66.10
65.44
64.68
63.11
60.21
55.79
50.15
43.86
37.55
31.59
26.06
20.78
15.52
10.19
4.82
-0.44
-5.47
-10.40
-15.48
-21.00
-27.14
-33.81
-40.69
-47.44
-53.86
-60.04
-66.32
-73.15
-80.87
-89.58
-99.02
-108.50
-116.92
-122.83
-124.70
-121.29
-112.16
-97.90
-80.10
-60.85
-42.11
-25.14
-10.25
2.91
14.94
26.16
36.45
45.30
52.17
56.77
59.28
60.27
60.43
60.33
60.26
60.21
60.01
59.53
58.75
57.71
56.45
54.86
52.73
49.83
46.05
41.47
36.41
31.23
26.23
21.56
17.18
12.87
8.36
3.34
-2.40
-8.90
-15.93
-22.98
-29.42
-34.70
-38.65
-41.58
-44.25
-47.60
-52.41
-59.02
-67.18
-76.16
-84.89
-92.19
-96.94
-98.27
-95.64
-88.97
-78.68
-65.67
-51.18
-36.51
-22.76
-10.53
0.05
9.25
17.43
24.74
31.08
36.13
39.64
41.64
42.54
43.02
43.70
44.94
46.74
48.86
51.04
53.05
54.80
56.16
56.90
56.64
55.01
51.77
46.99
41.02
34.40
27.66
21.16
14.99
8.98
2.84
-3.73
-10.82
-18.32
-25.86
-33.01
-39.45
-45.11
-50.22
-55.28
-60.88
-67.49
-75.26
-83.84
-92.35
-99.52
-103.99
-104.70
-101.27
-94.10
-84.22
-72.91
-61.26
-49.94
-39.14
-28.79
-18.74
-8.94
0.58
9.68
18.22
26.00
32.80
38.39
42.70
45.79
47.97
49.61
51.00
52.25
53.24
53.75
53.61
52.79
51.41
49.65
47.62
45.33
42.69
39.63
36.17
32.39
28.43
24.30
19.97
15.30
10.19
4.61
-1.31
-7.36
-13.31
-18.97
-24.23
-29.11
-33.75
-38.44
-43.60
-49.67
-56.96
-65.43
-74.52
-83.11
-89.74
-92.95
-91.73
-85.80
-75.68
-62.52
-47.74
-32.69
-18.35
-5.27
6.39
16.68
25.71
33.55
40.22
45.68
49.92
52.97
54.93
55.98
56.30
56.11
55.63
55.04
54.46
53.90
53.28
52.40
51.12
49.37
47.15
44.54
41.58
38.29
34.63
30.63
26.40
22.11
17.92
13.91
9.98
5.95
1.61
-3.14
-8.20
-13.31
-18.18
-22.59
-26.62
-30.65
-35.26
-41.05
-48.34
-57.03
-66.52
-75.76
-83.48
-88.45
-89.70
-86.80
-79.96
-70.00
-58.17
-45.89
-34.31
-24.10
-15.39
-7.89
-1.17
5.05
10.87
16.17
20.79
24.68
27.86
30.44
32.51
34.13
35.35
36.25
36.97
37.63
38.25
38.70
38.67
37.84
35.95
32.97
29.05
24.52
19.75
15.04
10.55
6.31
2.17
-2.04
-6.54
-11.44
-16.71
-22.19
-27.64
-32.88
-37.90
-43.02
-48.73
-55.51
-63.52
-72.31
-80.74
-87.20
-90.03
-88.12
-81.28
-70.38
-57.07
-43.26
-30.56
-19.92
-11.53
-5.03
0.16
4.51
8.21
11.14
13.03
13.71
13.24
12.07
10.87
10.31
10.85
12.56
15.18
18.31
21.58
24.79
27.89
30.84
33.51
35.66
37.02
37.36
36.60
34.77
31.97
28.33
23.97
19.07
13.83
8.44
2.98
-2.65
-8.75
-15.76
-24.11
-33.96
-45.01
-56.39
-66.74
-74.48
-78.23
-77.16
-71.37
-61.76
-49.79
-37.04
-24.73
-13.50
-3.35
6.04
15.02
23.72
31.96
39.38
45.65
50.58
54.21
56.69
58.23
59.03
59.28
59.22
59.01
58.71
58.18
57.11
55.12
51.96
47.65
42.46
36.83
31.17
25.73
20.54
15.42
10.13
4.48
-1.62
-8.01
-14.46
-20.71
-26.67
-32.43
-38.38
-44.97
-52.58
-61.35
-70.99
-80.81
-89.75
-96.59
-100.24
-99.98
-95.68
-87.78
-77.24
-65.15
-52.50
-39.93
-27.71
-15.81
-4.09
7.47
18.72
29.30
38.76
46.71
52.95
57.51
60.65
62.74
64.11
64.90
65.11
64.68
63.66
62.20
60.55
58.90
57.19
55.18
52.50
48.93
44.53
39.67
34.85
30.46
26.54
22.76
18.55
13.43
7.21
0.13
-7.22
-14.20
-20.39
-25.81
-30.84
-36.07
-42.13
-49.43
-58.10
-67.91
-78.25
-88.07
-95.99
-100.58
-100.75
-96.13
-87.30
-75.54
-62.46
-49.36
-36.92
-25.16
-13.76
-2.38
9.05
20.31
30.97
40.63
48.98
55.87
61.30
65.40
68.38
70.51
72.03
73.09
73.75
73.98
73.75
73.03
71.85
70.21
68.08
65.35
61.89
57.67
52.77
47.46
42.09
36.95
32.19
27.69
23.12
18.11
12.36
5.84
-1.23
-8.47
-15.50
-22.13
-28.45
-34.76
-41.48
-49.01
-57.67
-67.57
-78.55
-90.09
-101.16
-110.42
-116.35
-117.77
-114.19
-106.09
-94.69
-81.61
-68.25
-55.41
-43.21
-31.25
-19.07
-6.48
6.29
18.72
30.16
40.10
48.29
54.76
59.70
63.45
66.36
68.76
70.86
72.79
74.53
75.95
76.82
76.95
76.11
74.21
71.22
67.28
62.58
57.35
51.77
45.86
39.56
32.77
25.46
17.74
9.85
2.04
-5.49
-12.73
-19.79
-26.98
-34.66
-43.17
-52.63
-62.81
-73.02
-82.16
-88.91
-92.16
-91.32
-86.46
-78.25
-67.62
-55.50
-42.55
-29.16
-15.58
-2.03
11.17
23.62
34.91
44.73
52.86
59.25
63.91
67.01
68.75
69.45
69.50
69.27
69.11
69.16
69.38
69.48
69.06
67.66
65.00
60.93
55.51
48.98
41.69
34.12
26.80
20.14
14.34
9.22
4.26
-1.21
-7.69
-15.26
-23.51
-31.73
-39.23
-45.67
-51.22
-56.47
-62.23
-69.17
-77.58
-87.19
-97.19
-106.26
-112.89
-115.77
-114.11
-107.94
-98.06
-85.79
-72.49
-59.16
-46.22
-33.52
-20.61
-7.13
6.99
21.38
35.34
48.05
58.78
67.13
73.04
76.73
78.58
79.00
78.41
77.15
75.52
73.71
71.87
69.99
68.04
65.90
63.50
60.81
57.85
54.68
51.31
47.74
43.91
39.80
35.40
30.77
25.97
21.00
15.85
10.42
4.64
-1.43
-7.66
-13.87
-19.91
-25.83
-31.88
-38.40
-45.74
-54.13
-63.55
-73.78
-84.31
-94.35
-102.86
-108.61
-110.50
-107.78
-100.31
-88.67
-74.03
-57.83
-41.40
-25.65
-10.96
2.71
15.61
27.94
39.65
50.44
59.90
67.61
73.39
77.29
79.60
80.70
80.94
80.55
79.65
78.25
76.33
73.86
70.81
67.23
63.18
58.77
54.12
49.35
44.55
39.77
35.08
30.54
26.23
22.18
18.32
14.46
10.25
5.37
-0.36
-6.84
-13.69
-20.35
-26.41
-31.76
-36.69
-41.78
-47.62
-54.58
-62.66
-71.45
-80.15
-87.71
-92.98
-94.85
-92.57
-85.97
-75.61
-62.68
-48.71
-35.12
-22.88
-12.28
-3.07
5.19
12.91
20.09
26.51
31.83
35.89
38.83
41.02
42.84
44.46
45.81
46.72
47.05
46.93
46.60
46.28
45.97
45.32
43.84
41.10
36.95
31.63
25.67
19.63
13.97
8.86
4.20
-0.29
-4.98
-10.16
-15.91
-22.12
-28.45
-34.56
-40.18
-45.27
-50.03
-54.91
-60.43
-67.02
-74.83
-83.57
-92.42
-100.14
-105.29
-106.61
-103.39
-95.70
-84.42
-70.96
-56.85
-43.33
-31.09
-20.26
-10.58
-1.66
6.82
14.99
22.73
29.79
35.90
40.84
44.59
47.31
49.23
50.58
51.48
51.94
51.92
51.42
50.53
49.38
48.02
46.34
44.05
40.88
36.63
31.42
25.61
19.69
14.06
8.85
3.89
-1.23
-6.82
-13.03
-19.68
-26.37
-32.72
-38.50
-43.92
-49.45
-55.79
-63.49
-72.65
-82.78
-92.78
-101.22
-106.69
-108.17
-105.28
-98.27
-87.86
-74.97
-60.48
-45.07
-29.34
-13.76
1.24
15.25
27.95
39.15
48.77
56.83
63.39
68.47
72.08
74.26
75.13
74.97
74.14
73.06
72.03
71.20
70.52
69.72
68.49
66.53
63.64
59.83
55.21
50.02
44.52
38.96
33.55
28.38
23.48
18.71
13.77
8.24
1.75
-5.87
-14.34
-22.99
-31.02
-37.85
-43.38
-48.17
-53.15
-59.27
-67.11
-76.57
-86.95
-96.99
-105.22
-110.15
-110.57
-105.82
-95.95
-81.82
-64.89
-46.86
-29.20
-12.81
2.01
15.41
27.70
38.99
49.21
58.11
65.44
71.13
75.31
78.29
80.42
82.05
83.34
84.26
84.63
84.22
82.92
80.80
78.10
75.11
71.93
68.46
64.36
59.34
53.36
46.68
39.79
33.15
27.01
21.26
15.57
9.56
3.01
-4.03
-11.28
-18.34
-24.89
-30.75
-36.03
-41.06
-46.32
-52.30
-59.29
-67.28
-75.85
-84.17
-91.17
-95.70
-96.82
-94.08
-87.68
-78.43
-67.52
-56.18
-45.32
-35.30
-25.99
-16.96
-7.77
1.80
11.61
21.29
30.30
38.17
44.53
49.20
52.27
54.01
54.86
55.27
55.58
55.90
56.12
55.95
55.07
53.29
50.51
46.81
42.33
37.21
31.61
25.65
19.46
13.15
6.81
0.49
-5.82
-12.18
-18.64
-25.31
-32.28
-39.70
-47.74
-56.57
-66.25
-76.52
-86.66
-95.54
-101.86
-104.45
-102.69
-96.76
-87.49
-76.12
-63.83
-51.50
-39.49
-27.79
-16.23
-4.77
6.42
16.99
26.46
34.47
40.87
45.75
49.34
51.97
53.84
55.09
55.77
55.87
55.42
54.39
52.71
50.28
46.98
42.75
37.65
31.90
25.79
19.57
13.31
6.83
-0.25
-8.30
-17.42
-27.34
-37.37
-46.72
-54.79
-61.48
-67.22
-72.87
-79.39
-87.44
-97.15
-107.89
-118.34
-126.64
-130.81
-129.27
-121.29
-107.31
-88.86
-68.11
-47.20
-27.72
-10.40
4.76
18.16
30.22
41.08
50.63
58.54
64.55
68.48
70.45
70.76
69.84
68.12
66.00
63.77
61.66
59.85
58.42
57.32
56.29
54.92
52.75
49.49
45.11
39.92
34.35
28.80
23.37
17.88
11.99
5.37
-2.03
-9.97
-18.01
-25.68
-32.71
-39.26
-45.85
-53.22
-62.07
-72.71
-84.72
-96.86
-107.18
-113.46
-113.82
-107.37
-94.47
-76.70
-56.34
-35.63
-16.16
1.37
17.08
31.46
44.93
57.57
69.09
79.04
87.05
93.01
97.09
99.63
101.00
101.51
101.39
100.77
99.75
98.35
96.50
94.05
90.76
86.45
81.13
74.99
68.45
61.96
55.91
50.41
45.33
40.29
34.85
28.65
21.60
13.85
5.81
-2.10
-9.59
-16.67
-23.69
-31.25
-39.91
-49.84
-60.53
-70.70
-78.44
-81.77
-79.20
-70.30
-55.88
-37.69
-17.88
1.67
19.79
36.01
50.29
62.67
72.99
81.00
86.46
89.40
90.07
88.83
86.03
81.90
76.75
71.04
65.45
60.76
57.53
55.86
55.28
54.92
53.79
51.17
46.71
40.49
32.81
23.99
14.22
3.63
-7.66
-19.39
-31.19
-42.69
-53.61
-63.93
-73.90
-83.88
-94.30
-105.46
-117.40
-129.85
-142.08
-152.98
-161.06
-164.72
-162.66
-154.23
-139.67
-120.14
-97.38
-73.28
-49.42
-26.83
-5.95
13.10
30.30
45.50
58.37
68.54
75.74
80.06
81.83
81.63
80.07
77.69
74.87
71.86
68.80
65.70
62.49
58.97
54.93
50.20
44.80
38.92
32.89
26.98
21.25
15.54
9.59
3.29
-3.22
-9.52
-15.18
-20.00
-24.15
-28.22
-32.95
-39.07
-47.00
-56.79
-67.97
-79.50
-89.82
-97.02
-99.26
-95.30
-85.00
-69.44
-50.70
-31.16
-12.86
3.06
16.40
27.62
37.34
45.98
53.58
59.96
64.93
68.45
70.73
72.02
72.48
72.04
70.51
67.76
63.90
59.39
54.85
50.85
47.64
44.99
42.29
38.83
34.15
28.23
21.54
14.78
8.61
3.29
-1.29
-5.54
-9.89
-14.54
-19.36
-24.04
-28.25
-31.87
-35.01
-38.07
-41.56
-46.00
-51.78
-58.98
-67.30
-75.91
-83.57
-88.82
-90.37
-87.45
-80.06
-68.97
-55.42
-40.81
-26.25
-12.45
0.27
11.83
22.15
31.09
38.43
44.00
47.84
50.25
51.76
52.91
54.17
55.74
57.57
59.39
60.88
61.78
61.89
61.12
59.42
56.73
53.01
48.33
42.90
37.11
31.38
26.03
21.11
16.33
11.24
5.39
-1.48
-9.26
-17.56
-25.85
-33.67
-40.82
-47.46
-54.04
-61.25
-69.67
-79.47
-90.12
-100.35
-108.40
-112.55
-111.67
-105.56
-94.98
-81.35
-66.20
-50.91
-36.39
-23.11
-11.19
-0.50
9.17
18.02
26.14
33.42
39.59
44.33
47.45
49.01
49.37
49.11
48.75
48.58
48.56
48.34
47.45
45.49
42.32
38.06
32.98
27.39
21.51
15.47
9.36
3.26
-2.78
-8.73
-14.64
-20.57
-26.55
-32.51
-38.31
-43.88
-49.29
-54.79
-60.68
-67.07
-73.65
-79.67
-84.02
-85.52
-83.29
-76.97
-66.89
-54.03
-39.71
-25.29
-11.81
0.18
10.68
20.03
28.61
36.57
43.73
49.69
54.06
56.71
57.82
57.80
57.14
56.25
55.36
54.54
53.70
52.65
51.13
48.87
45.74
41.72
36.97
31.75
26.33
20.83
15.27
9.56
3.55
-2.88
-9.76
-16.98
-24.30
-31.33
-37.69
-43.18
-47.92
-52.43
-57.53
-64.03
-72.40
-82.38
-92.89
-102.14
-108.03
-108.69
-103.03
-91.13
-74.20
-54.28
-33.61
-14.14
2.99
17.46
29.58
39.97
49.14
57.37
64.65
70.84
75.84
79.77
82.91
85.65
88.27
90.80
92.96
94.36
94.67
93.79
91.86
89.04
85.32
80.48
74.16
66.18
56.74
46.46
36.26
26.95
18.97
12.26
6.42
0.95
-4.50
-10.08
-15.74
-21.44
-27.22
-33.37
-40.27
-48.38
-57.93
-68.81
-80.38
-91.57
-100.96
-107.18
-109.22
-106.69
-99.94
-89.90
-77.78
-64.78
-51.82
-39.42
-27.77
-16.83
-6.48
3.33
12.51
20.82
28.05
34.06
38.91
42.86
46.19
49.11
51.69
53.80
55.30
56.09
56.15
55.53
54.21
52.08
48.99
44.82
39.64
33.71
27.40
21.09
15.05
9.32
3.79
-1.76
-7.55
-13.74
-20.32
-27.22
-34.29
-41.31
-48.18
-54.92
-61.82
-69.24
-77.51
-86.54
-95.72
-103.82
-109.35
-110.96
-107.87
-100.08
-88.33
-73.89
-58.08
-42.04
-26.53
-11.91
1.74
14.41
26.05
36.49
45.43
52.61
57.91
61.38
63.32
64.09
64.04
63.52
62.76
62.00
61.37
60.85
60.16
58.86
56.51
52.94
48.42
43.53
39.00
35.22
32.17
29.31
25.93
21.41
15.44
8.09
-0.34
-9.47
-18.95
-28.53
-38.10
-47.69
-57.50
-67.80
-78.72
-90.02
-100.94
-110.26
-116.58
-118.71
-115.99
-108.47
-96.79
-81.96
-65.12
-47.29
-29.34
-11.97
4.25
18.81
31.30
41.47
49.25
54.76
58.22
59.95
60.29
59.64
58.36
56.84
55.35
53.96
52.53
50.75
48.27
44.89
40.67
35.86
30.83
25.76
20.62
15.14
9.01
2.08
-5.51
-13.36
-20.98
-27.94
-34.08
-39.58
-44.89
-50.63
-57.43
-65.78
-75.78
-86.96
-98.16
-107.65
-113.49
-114.06
-108.57
-97.39
-81.90
-64.10
-45.98
-28.93
-13.51
0.48
13.58
26.25
38.50
49.87
59.55
66.80
71.19
72.86
72.45
70.88
69.10
67.73
67.02
66.81
66.76
66.42
65.38
63.38
60.28
56.09
51.01
45.36
39.55
33.90
28.58
23.41
17.98
11.76
4.33
-4.41
-14.10
-24.11
-33.64
-42.12
-49.45
-56.09
-62.94
-71.04
-81.01
-92.65
-104.73
-115.11
-121.35
-121.43
-114.45
-100.88
-82.42
-61.38
-39.93
-19.60
-1.07
15.63
30.77
44.53
56.88
67.65
76.65
83.79
89.15
92.90
95.21
96.26
96.22
95.32
93.86
92.12
90.30
88.36
86.04
82.90
78.55
72.77
65.63
57.54
49.09
40.90
33.43
26.86
21.00
15.47
9.78
3.54
-3.34
-10.74
-18.30
-25.67
-32.56
-38.92
-44.93
-51.03
-57.79
-65.80
-75.34
-86.12
-97.07
-106.36
-111.91
-111.96
-105.77
-93.88
-77.96
-60.22
-42.62
-26.27
-11.39
2.45
15.71
28.52
40.48
50.90
59.22
65.30
69.47
72.26
74.13
75.31
75.76
75.44
74.47
73.17
71.86
70.62
69.14
66.86
63.19
57.91
51.24
43.80
36.34
29.38
23.10
17.25
11.38
5.04
-1.94
-9.41
-16.98
-24.21
-30.96
-37.45
-44.28
-52.14
-61.52
-72.48
-84.53
-96.70
-107.68
-115.97
-120.06
-118.78
-111.61
-98.90
-81.97
-62.76
-43.28
-24.99
-8.55
6.14
19.52
31.86
43.01
52.42
59.52
64.06
66.35
67.12
67.22
67.23
67.27
67.13
66.45
65.09
63.13
60.84
58.40
55.77
52.75
49.11
44.76
39.86
34.66
29.37
23.98
18.26
11.90
4.66
-3.43
-12.05
-20.71
-28.88
-36.23
-42.82
-49.13
-55.97
-64.20
-74.29
-85.92
-97.81
-107.88
-113.88
-114.01
-107.65
-95.48
-79.24
-61.09
-42.92
-25.87
-10.17
4.54
18.80
32.84
46.40
58.74
68.98
76.51
81.21
83.45
83.95
83.33
81.95
79.89
77.12
73.80
70.32
67.20
64.75
62.86
60.94
58.20
54.04
48.31
41.36
33.88
26.59
19.92
14.00
8.58
3.23
-2.50
-8.99
-16.36
-24.45
-32.83
-40.95
-48.32
-54.76
-60.49
-66.10
-72.44
-80.22
-89.77
-100.70
-111.79
-121.09
-126.39
-125.80
-118.41
-104.66
-86.21
-65.43
-44.62
-25.40
-8.42
6.48
19.88
32.36
44.12
55.05
64.71
72.66
78.60
82.48
84.57
85.27
84.97
83.97
82.46
80.55
78.42
76.32
74.53
73.18
72.10
70.81
68.64
65.05
59.82
53.26
46.03
38.89
32.42
26.77
21.67
16.62
11.13
4.93
-1.94
-9.23
-16.59
-23.71
-30.31
-36.22
-41.38
-45.94
-50.36
-55.32
-61.53
-69.36
-78.49
-87.82
-95.61
-100.00
-99.44
-93.22
-81.60
-65.80
-47.64
-29.10
-11.79
3.37
16.28
27.47
37.67
47.43
56.84
65.57
73.08
78.89
82.80
84.78
84.96
83.41
80.20
75.58
70.03
64.27
59.00
54.71
51.38
48.53
45.46
41.51
36.36
30.13
23.26
16.34
9.91
4.28
-0.49
-4.61
-8.49
-12.54
-17.13
-22.36
-28.17
-34.26
-40.33
-46.15
-51.65
-56.96
-62.35
-68.22
-74.92
-82.64
-91.17
-99.75
-107.06
-111.53
-111.77
-107.11
-97.87
-85.33
-71.29
-57.48
-45.05
-34.36
-25.14
-16.85
-9.11
-1.86
4.62
9.94
13.81
16.22
17.40
17.78
17.89
18.19
19.00
20.42
22.36
24.51
26.39
27.53
27.48
25.99
23.00
18.71
13.50
7.85
2.16
-3.38
-8.78
-14.24
-19.91
-25.81
-31.76
-37.50
-42.86
-47.92
-53.08
-58.94
-66.20
-75.23
-85.98
-97.66
-108.76
-117.27
-121.07
-118.57
-109.20
-93.72
-73.97
-52.35
-31.09
-11.62
5.54
20.54
33.71
45.15
54.62
61.77
66.52
69.21
70.59
71.53
72.63
74.06
75.59
76.81
77.41
77.29
76.54
75.27
73.42
70.70
66.76
61.38
54.65
47.07
39.34
32.03
25.35
19.02
12.47
5.18
-3.01
-11.83
-20.65
-28.89
-36.21
-42.64
-48.59
-54.68
-61.62
-70.07
-80.31
-92.00
-103.96
-114.16
-120.19
-119.99
-112.53
-98.35
-79.33
-58.12
-37.25
-18.49
-2.50
11.04
22.92
33.89
44.28
53.95
62.46
69.42
74.70
78.52
81.28
83.29
84.64
85.16
84.73
83.38
81.48
79.51
77.89
76.64
75.33
73.28
69.83
64.65
57.87
50.05
41.98
34.38
27.69
21.86
16.41
10.58
3.66
-4.68
-14.30
-24.57
-34.76
-44.27
-52.89
-60.89
-68.83
-77.41
-87.19
-98.48
-111.15
-124.54
-137.32
-147.72
-153.84
-154.22
-148.36
-136.95
-121.72
-104.80
-88.12
-72.91
-59.52
-47.74
-37.15
-27.52
-18.87
-11.42
-5.22
-0.10
4.45
9.06
14.29
20.54
27.97
36.61
46.44
57.42
69.38
81.96
94.56
106.38
116.57
124.38
129.36
131.38
130.62
127.55
122.77
116.84
110.20
103.01
95.30
87.04
78.30
69.23
59.99
50.62
40.93
30.54
19.10
6.41
-7.53
-22.53
-38.28
-54.29
-69.82
-83.80
-94.82
-101.53
-103.01
-99.10
-90.54
-78.64
-64.88
-50.51
-36.28
-22.55
-9.45
2.91
14.26
24.26
32.56
38.99
43.57
46.55
48.34
49.40
50.09
50.65
51.13
51.45
51.51
51.22
50.58
49.52
47.93
45.60
42.25
37.76
32.18
25.89
19.44
13.31
7.67
2.35
-3.07
-8.98
-15.44
-22.18
-28.72
-34.70
-40.13
-45.48
-51.47
-58.83
-67.86
-78.26
-89.00
-98.54
-105.15
-107.27
-104.01
-95.41
-82.42
-66.73
-50.23
-34.49
-20.41
-8.09
2.93
13.28
23.39
33.23
42.38
50.22
56.29
60.49
63.12
64.71
65.76
66.51
66.93
66.82
66.03
64.57
62.65
60.43
57.92
54.85
50.78
45.43
38.86
31.55
24.23
17.50
11.54
6.06
0.39
-6.02
-13.36
-21.28
-29.09
-36.08
-41.92
-46.83
-51.47
-56.75
-63.47
-72.02
-82.20
-93.11
-103.18
-110.41
-112.80
-108.93
-98.47
-82.42
-62.84
-42.20
-22.63
-5.29
9.69
22.90
35.08
46.61
57.30
66.67
74.15
79.45
82.65
84.08
84.14
83.14
81.27
78.67
75.58
72.35
69.38
66.99
65.17
63.56
61.48
58.25
53.41
47.00
39.51
31.66
24.13
17.26
10.95
4.83
-1.61
-8.65
-16.24
-23.96
-31.28
-37.82
-43.56
-48.93
-54.62
-61.34
-69.52
-79.07
-89.34
-99.14
-106.97
-111.22
-110.61
-104.45
-92.94
-77.19
-58.91
-39.97
-21.87
-5.36
9.47
22.99
35.60
47.42
58.21
67.50
74.82
79.91
82.86
83.97
83.73
82.54
80.72
78.42
75.69
72.57
69.07
65.18
60.90
56.20
51.05
45.54
39.76
33.78
27.55
20.95
13.85
6.27
-1.52
-9.01
-15.74
-21.49
-26.51
-31.43
-37.01
-43.91
-52.41
-62.46
-73.65
-85.18
-95.87
-104.15
-108.26
-106.72
-98.85
-85.15
-67.28
-47.53
-28.12
-10.52
4.84
18.27
30.38
41.52
51.58
60.10
66.63
70.96
73.30
74.07
73.69
72.41
70.31
67.31
63.35
58.40
52.39
45.23
36.71
26.61
14.82
1.58
-12.50
-26.36
-38.68
-48.26
-54.43
-57.34
-57.98
-57.78
-58.10
-59.69
-62.57
-66.18
-69.93
-73.55
-77.28
-81.74
-87.56
-94.97
-103.68
-112.69
-120.48
-125.18
-125.04
-118.87
-106.46
-88.75
-67.67
-45.56
-24.48
-5.70
10.52
24.69
37.64
49.97
61.83
72.87
82.46
90.03
95.25
98.12
98.95
98.25
96.58
94.42
92.12
89.89
87.76
85.61
83.25
80.46
77.00
72.64
67.24
60.76
53.36
45.40
37.35
29.72
22.80
16.59
10.81
5.03
-1.03
-7.35
-13.60
-19.21
-23.70
-26.79
-28.56
-29.37
-29.83
-30.65
-32.56
-36.09
-41.38
-47.94
-54.65
-59.93
-62.16
-60.22
-53.80
-43.60
-31.00
-17.61
-4.75
6.93
17.43
27.20
36.70
46.04
54.84
62.43
68.16
71.78
73.54
74.04
73.88
73.43
72.78
71.85
70.64
69.24
67.82
66.44
64.94
63.01
60.37
56.98
53.02
48.81
44.61
40.49
36.32
31.88
26.96
21.49
15.48
9.03
2.21
-4.89
-12.16
-19.48
-26.66
-33.53
-39.93
-45.80
-51.23
-56.41
-61.74
-67.70
-74.82
-83.39
-93.30
-103.85
-113.72
-121.21
-124.68
-122.98
-115.85
-103.86
-88.31
-70.82
-52.89
-35.66
-19.78
-5.41
7.57
19.40
30.21
39.93
48.31
55.05
60.02
63.32
65.30
66.36
66.83
66.84
66.39
65.40
63.90
61.98
59.77
57.38
54.79
51.87
48.41
44.25
39.32
33.73
27.78
21.85
16.28
11.17
6.39
1.57
-3.70
-9.66
-16.28
-23.29
-30.22
-36.67
-42.42
-47.51
-52.24
-57.12
-62.71
-69.48
-77.55
-86.52
-95.34
-102.48
-106.31
-105.60
-99.93
-89.86
-76.72
-62.15
-47.57
-33.86
-21.29
-9.74
1.04
11.18
20.55
28.88
35.89
41.41
45.47
48.32
50.30
51.71
52.76
53.49
53.86
53.85
53.47
52.82
51.96
50.80
49.16
46.73
43.30
38.87
33.67
28.15
22.70
17.60
12.85
8.26
3.53
-1.59
-7.22
-13.30
-19.66
-26.03
-32.16
-37.86
-43.12
-48.14
-53.33
-59.26
-66.40
-74.98
-84.68
-94.63
-103.44
-109.56
-111.60
-108.76
-101.01
-89.14
-74.42
-58.29
-41.94
-26.12
-11.19
2.78
15.70
27.41
37.62
46.11
52.75
57.63
60.98
63.06
64.08
64.22
63.69
62.70
61.51
60.33
59.26
58.25
57.12
55.61
53.50
50.65
47.03
42.70
37.79
32.48
26.96
21.44
16.07
10.95
6.02
1.12
-3.99
-9.47
-15.34
-21.45
-27.53
-33.31
-38.63
-43.53
-48.24
-53.08
-58.43
-64.60
-71.83
-80.18
-89.47
-99.07
-107.94
-114.67
-117.85
-116.41
-110.04
-99.28
-85.43
-70.17
-55.01
-40.91
-28.18
-16.54
-5.45
5.60
16.87
28.32
39.67
50.51
60.42
69.06
76.23
81.87
86.01
88.79
90.34
90.80
90.28
88.89
86.73
83.89
80.38
76.23
71.41
65.99
60.10
53.92
47.60
41.30
35.08
29.03
23.19
17.54
11.95
6.18
-0.02
-6.81
-14.18
-21.87
-29.52
-36.79
-43.53
-49.87
-56.15
-62.94
-70.76
-79.94
-90.36
-101.28
-111.38
-118.96
-122.36
-120.54
-113.39
-101.82
-87.45
-72.14
-57.38
-44.01
-32.11
-21.31
-11.12
-1.24
8.35
17.38
25.54
32.56
38.32
42.85
46.28
48.76
50.47
51.53
52.10
52.30
52.28
52.14
51.89
51.33
50.09
47.76
44.03
38.90
32.79
26.39
20.43
15.32
11.05
7.23
3.38
-0.82
-5.37
-10.02
-14.46
-18.61
-22.71
-27.29
-33.00
-40.31
-49.36
-59.76
-70.51
-80.12
-86.87
-89.25
-86.45
-78.62
-66.91
-53.16
-39.24
-26.58
-15.75
-6.55
1.70
9.73
17.97
26.46
34.92
42.94
50.13
56.16
60.80
63.85
65.28
65.21
64.05
62.32
60.61
59.31
58.58
58.22
57.79
56.71
54.48
50.87
45.97
40.20
34.16
28.39
23.13
18.29
13.45
8.10
1.88
-5.27
-13.05
-20.97
-28.48
-35.30
-41.46
-47.39
-53.76
-61.20
-70.06
-80.16
-90.68
-100.27
-107.31
-110.26
-108.10
-100.67
-88.73
-73.78
-57.57
-41.56
-26.56
-12.68
0.40
12.98
25.03
36.15
45.79
53.57
59.44
63.67
66.66
68.68
69.89
70.30
69.92
68.88
67.36
65.49
63.31
60.75
57.71
54.13
50.00
45.33
40.11
34.26
27.72
20.51
12.81
4.87
-3.03
-10.73
-18.21
-25.63
-33.25
-41.44
-50.62
-61.19
-73.28
-86.50
-99.71
-111.05
-118.37
-119.82
-114.53
-102.88
-86.34
-66.93
-46.61
-26.81
-8.32
8.55
23.72
37.17
48.87
58.83
67.05
73.47
78.04
80.74
81.66
81.10
79.57
77.61
75.64
73.85
72.18
70.38
68.13
65.16
61.30
56.52
50.94
44.81
38.40
31.91
25.45
18.97
12.36
5.53
-1.57
-8.92
-16.41
-23.91
-31.31
-38.60
-45.88
-53.45
-61.70
-70.99
-81.32
-92.10
-102.02
-109.30
-112.17
-109.47
-101.04
-87.78
-71.36
-53.60
-36.01
-19.45
-4.17
9.98
23.17
35.48
46.76
56.73
65.11
71.74
76.57
79.74
81.46
82.02
81.72
80.88
79.81
78.71
77.65
76.50
75.00
72.79
69.59
65.37
60.30
54.79
49.26
43.98
38.91
33.70
27.89
21.12
13.35
4.98
-3.34
-10.94
-17.42
-22.90
-27.95
-33.45
-40.36
-49.37
-60.63
-73.52
-86.59
-97.79
-104.92
-106.28
-101.27
-90.58
-76.03
-59.86
-44.12
-29.98
-17.70
-6.85
3.24
12.98
22.33
30.91
38.26
44.09
48.43
51.55
53.79
55.42
56.49
56.95
56.68
55.63
53.84
51.39
48.35
44.77
40.66
36.03
30.90
25.28
19.17
12.56
5.50
-1.84
-9.22
-16.34
-23.05
-29.38
-35.54
-41.94
-48.97
-56.92
-65.91
-75.76
-85.89
-95.26
-102.50
-106.14
-105.09
-99.00
-88.50
-74.90
-59.80
-44.50
-29.75
-15.67
-2.08
11.20
24.08
36.22
47.12
56.27
63.29
68.04
70.59
71.25
70.49
68.90
66.98
65.09
63.39
61.82
60.19
58.30
56.01
53.23
49.93
46.18
41.99
37.41
32.44
27.11
21.48
15.66
9.84
4.18
-1.19
-6.31
-11.42
-16.96
-23.55
-31.82
-42.24
-54.86
-69.09
-83.64
-96.66
-106.08
-110.21
-108.22
-100.43
-88.24
-73.63
-58.57
-44.37
-31.44
-19.43
-7.56
4.74
17.59
30.51
42.67
53.25
61.74
68.05
72.35
74.91
75.94
75.57
74.01
71.60
68.85
66.23
63.98
61.93
59.58
56.38
51.91
46.17
39.50
32.47
25.63
19.32
13.52
7.94
2.17
-4.17
-11.22
-18.79
-26.47
-33.78
-40.48
-46.63
-52.72
-59.47
-67.55
-77.33
-88.51
-100.05
-110.28
-117.21
-119.13
-115.13
-105.46
-91.42
-74.95
-57.99
-41.96
-27.40
-14.17
-1.73
10.46
22.59
34.42
45.45
55.07
62.86
68.68
72.68
75.19
76.61
77.25
77.30
76.91
76.18
75.22
74.11
72.78
70.98
68.34
64.56
59.51
53.44
46.86
40.31
34.18
28.47
22.78
16.56
9.38
1.15
-7.73
-16.61
-24.83
-32.06
-38.45
-44.56
-51.17
-58.95
-68.19
-78.69
-89.63
-99.76
-107.52
-111.46
-110.53
-104.41
-93.64
-79.44
-63.42
-47.13
-31.70
-17.74
-5.28
5.85
15.89
24.92
32.86
39.54
44.84
48.81
51.63
53.59
54.93
55.80
56.26
56.28
55.86
55.02
53.81
52.21
50.16
47.49
44.06
39.87
35.08
29.98
24.86
19.86
14.90
9.73
4.08
-2.14
-8.80
-15.58
-22.19
-28.50
-34.75
-41.42
-49.05
-57.99
-68.07
-78.50
-87.91
-94.61
-97.02
-94.11
-85.77
-72.84
-56.92
-39.93
-23.58
-9.02
3.34
13.76
22.80
30.98
38.58
45.43
51.18
55.47
58.16
59.39
59.55
59.08
58.34
57.47
56.50
55.37
54.02
52.39
50.37
47.76
44.33
39.93
34.56
28.52
22.23
16.15
10.54
5.38
0.37
-4.94
-10.88
-17.51
-24.62
-31.75
-38.45
-44.47
-49.92
-55.23
-61.07
-68.06
-76.54
-86.26
-96.28
-105.07
-110.82
-111.92
-107.45
-97.54
-83.32
-66.55
-49.14
-32.52
-17.41
-3.86
8.45
19.77
30.13
39.30
46.97
52.98
57.38
60.45
62.46
63.63
64.03
63.76
62.93
61.82
60.73
59.87
59.14
58.21
56.58
53.78
49.65
44.38
38.42
32.34
26.50
20.97
15.50
9.72
3.29
-3.84
-11.50
-19.33
-26.95
-34.14
-40.91
-47.45
-54.16
-61.53
-69.97
-79.70
-90.45
-101.32
-110.80
-116.98
-118.12
-113.19
-102.30
-86.69
-68.37
-49.45
-31.55
-15.44
-1.16
11.69
23.51
34.41
44.21
52.65
59.48
64.70
68.44
70.96
72.45
73.11
73.06
72.53
71.75
70.96
70.30
69.64
68.71
67.06
64.27
60.16
54.81
48.59
42.04
35.59
29.50
23.73
18.02
12.06
5.61
-1.34
-8.59
-15.86
-22.82
-29.33
-35.51
-41.73
-48.53
-56.42
-65.64
-75.90
-86.29
-95.37
-101.47
-103.11
-99.45
-90.52
-77.28
-61.29
-44.31
-27.81
-12.71
0.64
12.36
22.67
31.76
39.60
46.00
50.78
53.88
55.50
56.02
55.92
55.62
55.36
55.17
54.92
54.39
53.33
51.59
49.08
45.85
41.96
37.53
32.65
27.37
21.69
15.54
8.89
1.76
-5.70
-13.27
-20.73
-27.94
-34.92
-41.79
-48.81
-56.30
-64.53
-73.55
-83.03
-92.12
-99.46
-103.50
-102.90
-96.98
-86.07
-71.36
-54.64
-37.65
-21.67
-7.29
5.47
16.86
27.10
36.16
43.84
49.85
54.03
56.40
57.27
57.13
56.49
55.77
55.20
54.75
54.24
53.33
51.68
49.04
45.32
40.59
35.11
29.17
23.04
16.84
10.53
3.95
-2.98
-10.21
-17.48
-24.46
-30.97
-37.02
-42.92
-49.10
-56.07
-64.20
-73.64
-84.20
-95.14
-105.16
-112.56
-115.61
-113.04
-104.56
-90.91
-73.73
-55.04
-36.66
-19.84
-5.10
7.63
18.72
28.59
37.43
45.20
51.68
56.73
60.33
62.75
64.34
65.47
66.35
67.04
67.55
67.90
68.16
68.36
68.33
67.69
65.94
62.71
57.98
52.13
45.76
39.43
33.40
27.51
21.37
14.54
6.84
-1.59
-10.33
-18.91
-27.04
-34.77
-42.50
-50.86
-60.48
-71.59
-83.76
-95.79
-105.84
-111.97
-112.64
-107.28
-96.37
-81.29
-63.84
-45.77
-28.33
-12.17
2.55
15.96
28.23
39.41
49.39
57.97
64.99
70.37
74.19
76.64
77.99
78.46
78.27
77.63
76.71
75.60
74.28
72.60
70.25
66.98
62.60
57.15
50.81
43.89
36.74
29.63
22.71
15.92
9.04
1.80
-5.99
-14.27
-22.76
-31.02
-38.65
-45.55
-51.97
-58.51
-65.99
-75.08
-85.99
-98.12
-110.03
-119.63
-124.78
-123.94
-116.65
-103.70
-86.81
-68.03
-49.21
-31.54
-15.52
-1.13
11.94
24.01
35.26
45.67
55.04
63.07
69.50
74.24
77.40
79.22
79.99
79.96
79.35
78.38
77.28
76.23
75.23
74.08
72.37
69.68
65.71
60.45
54.18
47.33
40.33
33.45
26.72
20.00
13.06
5.70
-2.11
-10.25
-18.43
-26.35
-33.78
-40.69
-47.30
-54.05
-61.49
-70.06
-79.83
-90.34
-100.46
-108.70
-113.44
-113.47
-108.26
-98.11
-84.08
-67.65
-50.36
-33.48
-17.79
-3.58
9.25
20.99
31.82
41.74
50.51
57.82
63.48
67.55
70.32
72.25
73.78
75.24
76.77
78.34
79.83
80.99
81.53
81.10
79.39
76.23
71.67
66.04
59.82
53.50
47.31
41.16
34.72
27.64
19.80
11.48
3.23
-4.40
-11.13
-17.18
-23.09
-29.57
-37.19
-46.20
-56.46
-67.37
-77.89
-86.65
-92.18
-93.24
-89.25
-80.48
-68.01
-53.44
-38.38
-24.04
-11.04
0.50
10.79
20.01
28.20
35.23
40.88
45.03
47.68
49.03
49.36
48.98
48.11
46.95
45.63
44.30
43.09
42.05
41.04
39.74
37.73
34.60
30.22
24.74
18.68
12.70
7.36
2.85
-1.03
-4.83
-9.19
-14.48
-20.72
-27.53
-34.37
-40.78
-46.59
-51.99
-57.44
-63.46
-70.56
-78.98
-88.56
-98.57
-107.71
-114.28
-116.56
-113.35
-104.39
-90.47
-73.22
-54.58
-36.28
-19.39
-4.27
9.25
21.46
32.59
42.58
51.16
58.01
62.90
65.86
67.18
67.35
67.00
66.66
66.70
67.22
68.11
69.10
69.84
69.98
69.20
67.24
63.98
59.47
53.95
47.78
41.32
34.79
28.16
21.20
13.70
5.56
-3.04
-11.69
-19.97
-27.58
-34.58
-41.31
-48.28
-55.92
-64.36
-73.23
-81.60
-88.14
-91.39
-90.17
-83.95
-73.04
-58.50
-41.88
-24.79
-8.54
6.03
18.54
28.91
37.28
43.80
48.66
52.05
54.15
55.16
55.25
54.64
53.46
51.83
49.77
47.26
44.22
40.69
36.77
32.63
28.38
23.97
19.08
13.25
6.09
-2.52
-12.26
-22.41
-32.16
-40.82
-48.20
-54.56
-60.58
-67.05
-74.66
-83.75
-94.22
-105.47
-116.40
-125.56
-131.33
-132.31
-127.70
-117.55
-102.81
-85.07
-66.10
-47.35
-29.73
-13.52
1.39
15.18
27.80
38.96
48.13
54.88
59.08
61.01
61.30
60.72
59.89
59.19
58.66
58.12
57.33
56.11
54.34
52.00
49.06
45.51
41.30
36.46
31.01
25.01
18.58
11.82
4.86
-2.16
-9.10
-15.87
-22.54
-29.33
-36.65
-44.95
-54.50
-65.14
-76.12
-86.07
-93.38
-96.51
-94.50
-87.24
-75.46
-60.52
-44.02
-27.35
-11.49
3.09
16.30
28.25
39.07
48.83
57.45
64.81
70.73
75.12
77.96
79.38
79.56
78.77
77.27
75.32
73.08
70.64
67.97
64.97
61.51
57.50
52.88
47.70
42.00
35.80
29.09
21.80
13.91
5.48
-3.28
-12.15
-20.83
-29.19
-37.27
-45.24
-53.45
-62.23
-71.90
-82.44
-93.46
-103.95
-112.39
-117.07
-116.45
-109.78
-97.30
-80.29
-60.72
-40.68
-21.85
-5.18
9.10
21.25
31.70
40.81
48.71
55.40
60.78
64.83
67.62
69.31
70.12
70.24
69.82
68.97
67.78
66.31
64.64
62.81
60.82
58.57
55.91
52.66
48.66
43.84
38.21
31.90
25.13
18.21
11.50
5.35
-0.06
-4.84
-9.47
-14.72
-21.57
-30.90
-43.21
-58.37
-75.47
-92.88
-108.47
-120.07
-125.96
-125.36
-118.56
-106.80
-91.83
-75.38
-58.79
-42.81
-27.70
-13.40
0.15
12.93
24.76
35.33
44.30
51.47
56.79
60.42
62.66
63.86
64.35
64.32
63.88
63.05
61.81
60.12
57.88
54.95
51.23
46.70
41.47
35.71
29.61
23.22
16.50
9.32
1.68
-6.31
-14.44
-22.48
-30.31
-37.99
-45.77
-54.00
-63.04
-73.03
-83.74
-94.40
-103.69
-109.96
-111.67
-107.82
-98.42
-84.46
-67.67
-49.96
-32.93
-17.51
-4.01
7.71
17.89
26.63
33.88
39.56
43.63
46.28
47.86
48.73
49.13
49.14
48.75
47.92
46.73
45.39
44.12
43.09
42.28
41.50
40.34
38.29
34.76
29.27
21.54
11.70
0.26
-12.01
-24.37
-36.41
-48.25
-60.39
-73.51
-88.06
-104.00
-120.60
-136.54
-149.97
-158.97
-161.83
-157.51
-145.85
-127.74
-104.80
-78.98
-52.14
-25.69
-0.60
22.43
42.82
59.99
73.48
83.09
88.98
91.70
92.04
90.92
89.21
87.60
86.56
86.23
86.46
86.89
87.11
86.73
85.47
83.08
79.35
74.06
67.13
58.72
49.29
39.53
30.18
21.76
14.31
7.39
0.22
-8.17
-18.51
-31.10
-45.58
-60.87
-75.28
-86.83
-93.74
-94.86
-90.09
-80.38
-67.46
-53.31
-39.62
-27.43
-17.07
-8.42
-1.21
4.70
9.36
12.80
15.22
16.99
18.56
20.32
22.42
24.76
27.09
29.13
30.59
31.23
30.82
29.13
26.01
21.43
15.65
9.06
2.26
-4.31
-10.37
-15.96
-21.46
-27.50
-34.85
-44.10
-55.39
-68.06
-80.58
-90.70
-96.05
-94.87
-86.61
-72.18
-53.61
-33.37
-13.56
4.67
21.09
36.12
50.23
63.57
75.85
86.50
94.93
100.74
103.82
104.32
102.64
99.27
94.81
89.83
84.88
80.31
76.23
72.40
68.36
63.51
57.38
49.80
41.04
31.72
22.55
14.06
6.27
-1.22
-9.21
-18.60
-30.03
-43.53
-58.37
-72.90
-84.82
-91.68
-91.57
-83.82
-69.29
-50.20
-29.38
-9.45
7.83
21.79
32.59
40.77
46.90
51.38
54.59
56.89
58.69
60.27
61.68
62.61
62.62
61.35
58.80
55.33
51.50
47.77
44.25
40.67
36.50
31.29
24.89
17.54
9.77
2.18
-4.85
-11.30
-17.55
-24.33
-32.42
-42.35
-54.09
-66.64
-78.01
-85.50
-86.37
-78.78
-62.56
-39.51
-12.94
13.24
35.74
52.59
63.44
69.04
70.61
69.17
65.41
59.73
52.55
44.51
36.37
28.82
22.22
16.54
11.49
6.79
2.40
-1.46
-4.42
-6.27
-7.18
-7.70
-8.58
-10.48
-13.71
-18.20
-23.59
-29.55
-36.00
-43.14
-51.34
-60.82
-71.20
-81.44
-89.84
-94.49
-93.89
-87.46
-75.70
-60.09
-42.63
-25.26
-9.42
4.16
15.39
24.62
32.26
38.57
43.48
46.65
47.66
46.28
42.68
37.38
31.16
24.71
18.42
12.23
5.88
-0.94
-8.28
-15.88
-23.28
-30.09
-36.11
-41.46
-46.43
-51.32
-56.34
-61.62
-67.32
-73.65
-80.76
-88.47
-96.04
-102.10
-104.96
-103.12
-95.82
-83.38
-67.08
-48.66
-29.73
-11.39
5.93
22.23
37.57
51.80
64.54
75.33
83.86
90.13
94.42
97.16
98.78
99.55
99.61
99.02
97.87
96.32
94.64
93.04
91.52
89.71
86.94
82.34
75.19
65.17
52.51
37.84
21.86
5.07
-12.40
-30.65
-49.57
-68.51
-86.10
-100.48
-109.82
-112.94
-109.71
-101.11
-88.86
-74.85
-60.53
-46.70
-33.57
-21.04
-9.08
2.05
11.92
20.10
26.36
30.83
33.88
35.97
37.49
38.59
39.29
39.52
39.23
38.46
37.25
35.63
33.53
30.80
27.17
22.49
16.69
10.00
2.85
-4.19
-10.58
-16.09
-20.89
-25.65
-31.29
-38.68
-48.22
-59.47
-71.08
-81.02
-87.14
-87.77
-82.31
-71.37
-56.53
-39.78
-22.89
-7.03
7.37
20.40
32.29
43.18
52.93
61.19
67.60
71.99
74.50
75.45
75.35
74.60
73.38
71.67
69.34
66.33
62.78
58.98
55.19
51.50
47.66
43.19
37.62
30.73
22.71
14.18
5.92
-1.43
-7.66
-13.06
-18.34
-24.39
-32.02
-41.69
-53.39
-66.49
-79.69
-91.15
-98.82
-100.95
-96.60
-86.06
-70.83
-53.18
-35.40
-19.16
-5.11
6.94
17.64
27.47
36.49
44.27
50.25
54.06
55.76
55.84
54.99
53.80
52.60
51.38
49.96
48.14
45.88
43.35
40.77
38.34
36.01
33.45
30.18
25.74
19.96
13.07
5.64
-1.67
-8.36
-14.29
-19.69
-25.00
-30.67
-37.08
-44.47
-53.03
-62.79
-73.49
-84.27
-93.67
-99.77
-100.75
-95.58
-84.45
-68.78
-50.77
-32.64
-15.95
-1.37
11.24
22.36
32.31
41.08
48.32
53.60
56.72
57.87
57.58
56.50
55.21
54.02
52.87
51.53
49.71
47.29
44.34
41.03
37.57
34.01
30.23
26.01
21.10
15.34
8.67
1.18
-6.92
-15.32
-23.65
-31.56
-38.79
-45.29
-51.28
-57.24
-63.81
-71.56
-80.68
-90.81
-100.84
-109.05
-113.49
-112.53
-105.35
-92.27
-74.67
-54.58
-34.14
-15.09
1.54
15.44
26.76
35.88
43.18
48.86
53.01
55.72
57.13
57.51
57.22
56.61
55.81
54.76
53.22
50.99
48.03
44.51
40.77
37.07
33.47
29.78
25.68
20.80
15.00
8.35
1.13
-6.29
-13.59
-20.56
-27.27
-34.02
-41.30
-49.62
-59.24
-69.80
-80.25
-88.89
-93.84
-93.57
-87.46
-75.98
-60.56
-43.09
-25.41
-8.88
5.65
17.79
27.32
34.17
38.33
39.98
39.54
37.59
34.78
31.71
28.80
26.22
23.98
21.83
19.47
16.61
13.12
9.09
4.75
0.32
-4.14
-8.84
-14.10
-20.20
-27.08
-34.35
-41.39
-47.76
-53.36
-58.63
-64.33
-71.22
-79.68
-89.49
-99.83
-109.41
-116.71
-120.31
-119.17
-112.86
-101.74
-86.84
-69.66
-51.72
-34.21
-17.84
-2.89
10.56
22.34
32.11
39.48
44.18
46.31
46.38
45.24
43.78
42.62
41.98
41.55
40.72
38.87
35.63
31.12
25.80
20.23
14.70
9.03
2.60
-5.26
-14.90
-26.06
-37.87
-49.12
-58.75
-66.27
-71.92
-76.66
-81.89
-88.97
-98.79
-111.34
-125.47
-139.02
-149.19
-153.36
-149.84
-138.38
-120.25
-97.74
-73.39
-49.30
-26.68
-5.94
13.02
30.34
45.96
59.52
70.56
78.80
84.36
87.82
90.05
91.89
93.86
96.09
98.30
100.12
101.32
101.95
102.26
102.44
102.37
101.55
99.21
94.62
87.46
78.01
67.07
55.69
44.76
34.63
25.02
15.07
3.75
-9.70
-25.38
-42.52
-59.47
-74.02
-83.79
-86.85
-82.23
-70.22
-52.34
-30.95
-8.60
12.57
31.29
47.18
60.46
71.52
80.58
87.56
92.29
94.79
95.52
95.34
95.19
95.74
97.05
98.60
99.56
99.24
97.36
94.16
90.20
86.03
81.84
77.31
71.83
64.77
55.96
45.87
35.58
26.32
18.91
13.39
8.92
4.11
-2.43
-11.66
-23.77
-38.18
-53.51
-67.78
-78.63
-83.77
-81.57
-71.61
-55.00
-34.12
-11.95
8.83
26.49
40.51
51.24
59.32
65.24
69.12
70.87
70.51
68.43
65.37
62.18
59.47
57.32
55.34
52.99
49.88
46.09
42.07
38.37
35.29
32.66
29.83
25.97
20.47
13.22
4.70
-4.18
-12.44
-19.49
-25.33
-30.53
-36.06
-42.92
-51.81
-62.88
-75.57
-88.53
-99.74
-106.88
-107.89
-101.64
-88.40
-69.78
-48.33
-26.76
-7.22
9.13
22.06
31.91
39.22
44.50
48.09
50.29
51.32
51.40
50.69
49.24
47.09
44.32
41.17
38.01
35.30
33.37
32.20
31.33
29.99
27.30
22.68
16.05
7.91
-0.85
-9.29
-16.74
-22.99
-28.36
-33.51
-39.27
-46.37
-55.12
-65.18
-75.33
-83.60
-87.71
-85.78
-77.02
-62.12
-43.10
-22.64
-3.29
13.23
26.15
35.58
42.00
45.91
47.70
47.65
46.05
43.27
39.77
36.05
32.55
29.62
27.42
25.86
24.66
23.35
21.45
18.61
14.64
9.59
3.64
-2.91
-9.74
-16.54
-23.13
-29.48
-35.79
-42.55
-50.35
-59.64
-70.33
-81.37
-90.84
-96.24
-95.31
-86.87
-71.41
-51.05
-28.88
-7.98
9.54
22.91
32.57
39.52
44.76
48.73
51.42
52.49
51.66
48.95
44.71
39.61
34.45
29.94
26.48
24.10
22.42
20.75
18.41
14.86
9.92
3.72
-3.36
-10.90
-18.53
-26.04
-33.39
-40.75
-48.54
-57.25
-67.22
-78.24
-89.28
-98.40
-103.23
-101.75
-93.01
-77.70
-57.95
-36.62
-16.43
0.87
14.71
25.46
33.86
40.61
46.05
50.30
53.42
55.46
56.45
56.41
55.17
52.60
48.71
43.79
38.44
33.34
29.03
25.68
23.03
20.48
17.28
12.79
6.65
-1.08
-10.01
-19.54
-29.05
-38.10
-46.60
-54.85
-63.39
-72.76
-82.99
-93.31
-102.04
-106.92
-105.85
-97.67
-82.73
-62.80
-40.57
-18.65
1.15
18.17
32.68
45.33
56.60
66.53
74.82
81.04
84.96
86.71
86.65
85.28
82.93
79.76
75.77
71.01
65.75
60.54
56.01
52.61
50.39
48.77
46.77
43.29
37.56
29.39
19.35
8.49
-2.03
-11.39
-19.35
-26.36
-33.31
-41.15
-50.58
-61.73
-74.01
-86.07
-96.00
-101.68
-101.33
-94.12
-80.51
-62.28
-41.95
-22.05
-4.39
10.30
22.18
31.88
39.93
46.56
51.72
55.36
57.57
58.69
59.17
59.34
59.32
58.99
58.11
56.55
54.45
52.37
51.16
51.69
54.43
59.09
64.54
69.02
70.72
68.40
61.79
51.62
39.29
26.30
13.79
2.28
-8.16
-17.77
-26.85
-35.64
-44.37
-53.13
-61.90
-70.26
-77.38
-81.99
-82.77
-78.78
-69.91
-57.02
-41.81
-26.29
-12.17
-0.47
8.61
15.47
20.67
24.60
27.36
28.91
29.25
28.65
27.55
26.44
25.56
24.90
24.20
23.23
21.89
20.33
18.82
17.59
16.75
16.21
15.71
14.98
13.71
11.61
8.44
4.03
-1.64
-8.38
-15.78
-23.31
-30.52
-37.23
-43.66
-50.39
-58.16
-67.52
-78.46
-90.14
-100.93
-108.78
-111.77
-108.68
-99.43
-85.07
-67.55
-49.11
-31.69
-16.57
-4.22
5.58
13.40
19.83
25.29
29.94
33.80
36.83
39.10
40.79
42.09
43.12
43.87
44.18
43.94
43.15
41.99
40.69
39.44
38.21
36.75
34.65
31.55
27.22
21.71
15.26
8.23
1.00
-6.10
-12.87
-19.26
-25.31
-31.23
-37.31
-43.87
-51.23
-59.54
-68.67
-78.05
-86.63
-92.96
-95.51
-93.08
-85.26
-72.67
-56.79
-39.57
-22.85
-7.93
4.61
14.76
22.79
29.01
33.58
36.58
38.16
38.60
38.26
37.57
36.78
35.96
34.98
33.72
32.11
30.26
28.39
26.68
25.12
23.47
21.28
18.07
13.49
7.51
0.44
-7.16
-14.64
-21.47
-27.40
-32.55
-37.39
-42.58
-48.78
-56.32
-64.98
-73.89
-81.56
-86.27
-86.52
-81.50
-71.32
-57.06
-40.42
-23.27
-7.24
6.67
18.04
26.96
33.68
38.41
41.30
42.43
41.99
40.39
38.19
35.93
33.94
32.29
30.78
29.16
27.31
25.26
23.11
20.86
18.28
14.92
10.27
4.06
-3.61
-12.21
-21.00
-29.27
-36.59
-43.04
-49.18
-55.86
-63.94
-73.89
-85.54
-97.87
-109.21
-117.50
-120.80
-117.87
-108.51
-93.72
-75.39
-55.74
-36.78
-19.75
-5.09
7.48
18.49
28.36
37.17
44.67
50.54
54.59
56.92
57.84
57.75
57.01
55.81
54.26
52.40
50.23
47.69
44.68
41.00
36.42
30.73
23.90
16.05
7.46
-1.57
-10.82
-20.27
-30.14
-40.74
-52.32
-64.76
-77.33
-88.68
-97.05
-100.77
-98.70
-90.67
-77.51
-60.81
-42.53
-24.42
-7.68
7.14
20.11
31.58
41.91
51.15
59.07
65.16
68.99
70.39
69.64
67.42
64.57
61.77
59.33
57.07
54.54
51.13
46.40
40.17
32.52
23.73
14.13
4.10
-6.10
-16.37
-26.90
-38.21
-51.00
-65.87
-82.87
-101.11
-118.70
-132.96
-141.16
-141.25
-132.45
-115.50
-92.45
-66.00
-38.83
-13.03
10.18
30.35
47.50
61.80
73.34
82.09
88.10
91.61
93.15
93.39
92.99
92.27
91.25
89.68
87.27
83.80
79.21
73.59
67.05
59.72
51.78
43.52
35.24
27.21
19.52
11.97
4.09
-4.74
-15.04
-27.06
-40.45
-54.17
-66.47
-75.15
-78.13
-74.06
-62.90
-46.05
-25.94
-5.25
13.92
30.54
44.54
56.43
66.64
75.18
81.72
85.91
87.72
87.61
86.32
84.57
82.74
80.82
78.54
75.72
72.36
68.72
65.03
61.32
57.22
52.08
45.26
36.45
25.90
14.36
2.82
-7.90
-17.44
-26.04
-34.41
-43.40
-53.76
-65.83
-79.41
-93.68
-107.24
-118.28
-124.97
-125.78
-119.99
-107.89
-90.72
-70.36
-48.80
-27.78
-8.47
8.46
22.72
34.18
42.84
48.83
52.50
54.44
55.33
55.83
56.33
56.95
57.55
57.91
57.87
57.41
56.50
55.02
52.65
48.92
43.41
35.95
26.71
16.32
5.63
-4.50
-13.48
-21.25
-28.29
-35.53
-43.97
-54.28
-66.38
-79.19
-90.70
-98.47
-100.25
-94.79
-82.22
-64.07
-42.75
-20.84
-0.28
17.95
33.84
47.86
60.49
71.83
81.56
89.13
94.15
96.68
97.26
96.74
95.98
95.50
95.36
95.20
94.41
92.43
88.92
83.82
77.36
69.86
61.62
52.80
43.45
33.52
23.05
12.19
1.23
-9.46
-19.54
-28.83
-37.36
-45.35
-53.23
-61.54
-70.85
-81.57
-93.80
-107.00
-119.92
-130.75
-137.45
-138.33
-132.58
-120.54
-103.55
-83.54
-62.43
-41.64
-21.93
-3.54
13.53
29.15
42.92
54.24
62.52
67.44
69.14
68.23
65.61
62.32
59.20
56.78
55.22
54.37
53.90
53.45
52.66
51.25
48.93
45.44
40.58
34.26
26.67
18.27
9.72
1.70
-5.30
-11.11
-15.86
-19.82
-23.23
-26.24
-28.95
-31.56
-34.47
-38.31
-43.77
-51.45
-61.54
-73.68
-86.84
-99.33
-109.04
-113.89
-112.34
-103.97
-89.63
-71.25
-51.21
-31.59
-13.62
2.43
16.88
30.15
42.31
53.03
61.80
68.23
72.32
74.43
75.12
74.92
74.18
73.05
71.57
69.72
67.55
65.12
62.50
59.76
56.89
53.76
50.16
45.81
40.53
34.39
27.79
21.32
15.49
10.47
5.94
1.28
-4.07
-10.33
-17.23
-24.18
-30.60
-36.21
-41.21
-46.16
-51.78
-58.69
-67.22
-77.29
-88.36
-99.34
-108.71
-114.73
-115.87
-111.21
-100.80
-85.66
-67.45
-48.07
-29.12
-11.68
3.78
17.14
28.50
37.94
45.47
51.10
54.87
56.95
57.59
57.11
55.85
54.18
52.39
50.74
49.36
48.26
47.26
46.08
44.35
41.76
38.15
33.58
28.28
22.56
16.70
10.81
4.91
-1.09
-7.24
-13.56
-19.96
-26.31
-32.48
-38.46
-44.37
-50.52
-57.35
-65.29
-74.51
-84.61
-94.49
-102.43
-106.46
-104.92
-97.05
-83.26
-65.06
-44.63
-24.16
-5.35
10.89
24.40
35.46
44.48
51.66
57.05
60.59
62.34
62.58
61.84
60.76
59.91
59.57
59.70
59.97
59.88
59.01
57.13
54.31
50.72
46.55
41.85
36.46
30.17
22.85
14.68
6.07
-2.42
-10.31
-17.40
-23.80
-29.85
-35.93
-42.38
-49.44
-57.31
-66.13
-75.86
-85.99
-95.37
-102.32
-104.97
-101.98
-93.01
-78.94
-61.64
-43.26
-25.63
-9.69
4.41
17.04
28.62
39.30
48.84
56.87
63.05
67.32
69.97
71.51
72.48
73.33
74.28
75.37
76.48
77.34
77.60
76.88
74.76
70.97
65.39
58.21
49.84
40.79
31.55
22.42
13.54
4.85
-3.74
-12.29
-20.79
-29.12
-37.19
-44.97
-52.64
-60.60
-69.37
-79.35
-90.49
-102.04
-112.51
-119.97
-122.65
-119.46
-110.40
-96.52
-79.57
-61.41
-43.51
-26.68
-11.15
3.21
16.52
28.70
39.42
48.33
55.14
59.88
62.83
64.40
65.00
64.95
64.44
63.57
62.41
61.00
59.28
57.12
54.32
50.69
46.10
40.60
34.32
27.45
20.12
12.45
4.44
-3.88
-12.45
-21.13
-29.71
-37.95
-45.68
-52.90
-59.80
-66.81
-74.49
-83.39
-93.73
-105.25
-116.96
-127.20
-133.98
-135.44
-130.56
-119.44
-103.38
-84.46
-64.88
-46.44
-30.13
-16.22
-4.52
5.27
13.38
19.88
24.91
28.72
31.76
34.52
37.41
40.58
43.89
46.99
49.43
50.84
51.02
49.97
47.83
44.76
40.91
36.29
30.82
24.42
17.10
9.07
0.72
-7.40
-14.77
-21.08
-26.30
-30.72
-34.87
-39.37
-44.82
-51.66
-60.01
-69.50
-79.11
-87.31
-92.28
-92.46
-87.05
-76.28
-61.44
-44.40
-27.11
-11.01
3.19
15.49
26.23
35.81
44.35
51.67
57.47
61.54
63.97
65.14
65.54
65.56
65.26
64.48
62.96
60.62
57.62
54.29
50.90
47.43
43.52
38.64
32.33
24.50
15.46
5.84
-3.68
-12.65
-20.96
-28.96
-37.27
-46.55
-57.26
-69.41
-82.33
-94.70
-104.69
-110.34
-110.11
-103.35
-90.54
-73.26
-53.71
-34.05
-15.88
0.08
13.86
25.82
36.28
45.33
52.78
58.50
62.54
65.26
67.17
68.72
70.04
70.96
71.08
70.07
67.90
64.82
61.29
57.65
53.95
49.82
44.69
38.03
29.70
20.02
9.67
-0.59
-10.23
-19.11
-27.56
-36.17
-45.64
-56.54
-69.04
-82.72
-96.36
-108.13
-115.93
-117.96
-113.31
-102.21
-86.04
-66.77
-46.40
-26.44
-7.66
9.71
25.78
40.58
53.90
65.34
74.50
81.17
85.45
87.74
88.61
88.57
87.96
86.90
85.31
83.11
80.26
76.84
73.03
68.98
64.75
60.17
54.91
48.60
41.00
32.21
22.60
12.78
3.33
-5.40
-13.45
-21.15
-29.05
-37.77
-47.78
-59.24
-71.88
-84.84
-96.66
-105.53
-109.68
-107.93
-100.05
-86.83
-69.76
-50.61
-30.85
-11.44
7.23
25.11
42.10
57.97
72.23
84.37
94.00
101.04
105.73
108.51
109.86
110.25
110.08
109.67
109.29
109.03
108.69
107.76
105.53
101.33
94.86
86.25
76.09
65.13
54.07
43.33
33.02
22.95
12.84
2.41
-8.49
-19.75
-31.05
-41.89
-51.85
-60.76
-68.86
-76.76
-85.27
-95.12
-106.62
-119.47
-132.61
-144.34
-152.57
-155.37
-151.47
-140.73
-124.18
-103.83
-82.01
-60.72
-41.20
-23.78
-8.15
6.18
19.55
31.91
42.93
52.16
59.29
64.27
67.33
68.89
69.45
69.47
69.23
68.82
68.13
66.97
65.11
62.45
58.98
54.77
49.96
44.70
39.10
33.24
27.11
20.66
13.79
6.44
-1.30
-9.22
-16.98
-24.29
-31.09
-37.60
-44.36
-52.06
-61.27
-72.16
-84.24
-96.26
-106.34
-112.41
-112.72
-106.48
-94.19
-77.46
-58.59
-39.80
-22.54
-7.30
6.27
18.82
30.79
42.14
52.39
61.00
67.68
72.54
75.93
78.21
79.55
79.93
79.32
77.83
75.81
73.73
71.88
70.22
68.35
65.63
61.54
55.85
48.79
41.01
33.28
26.22
20.07
14.59
9.18
3.19
-3.79
-11.71
-20.11
-28.31
-35.74
-42.14
-47.77
-53.26
-59.48
-67.22
-76.90
-88.25
-100.18
-110.86
-118.12
-120.03
-115.55
-104.87
-89.45
-71.41
-52.88
-35.32
-19.27
-4.50
9.49
22.94
35.60
46.83
55.96
62.68
67.18
70.01
71.77
72.85
73.34
73.17
72.28
70.86
69.22
67.66
66.22
64.65
62.48
59.24
54.72
48.97
42.38
35.45
28.67
22.50
17.25
13.04
9.76
7.02
4.14
0.36
-4.97
-12.17
-21.11
-31.25
-41.97
-52.77
-63.55
-74.58
-86.41
-99.40
-113.30
-127.04
-138.70
-145.99
-147.00
-140.88
-128.14
-110.49
-90.15
-69.13
-48.67
-29.30
-11.06
6.01
21.64
35.39
46.90
56.06
63.13
68.52
72.65
75.83
78.24
79.98
81.18
81.95
82.42
82.68
82.76
82.60
82.07
80.96
78.98
75.87
71.47
65.87
59.40
52.54
45.77
39.42
33.60
28.15
22.83
17.30
11.33
4.71
-2.63
-10.58
-18.85
-27.00
-34.60
-41.41
-47.60
-53.68
-60.50
-68.86
-79.20
-91.29
-104.09
-115.80
-124.27
-127.48
-124.12
-113.99
-98.10
-78.38
-57.22
-36.75
-18.44
-2.89
10.00
20.81
30.18
38.54
46.07
52.68
58.12
62.17
64.69
65.73
65.53
64.41
62.71
60.72
58.59
56.39
54.18
51.97
49.77
47.52
45.00
41.90
37.88
32.74
26.51
19.53
12.38
5.70
-0.09
-4.93
-9.13
-13.32
-18.14
-24.00
-30.90
-38.46
-46.03
-53.01
-59.02
-64.05
-68.42
-72.70
-77.52
-83.39
-90.49
-98.41
-106.08
-111.80
-113.65
-109.94
-99.92
-84.06
-64.03
-42.24
-21.16
-2.60
12.58
24.39
33.42
40.44
46.05
50.64
54.42
57.52
60.01
61.95
63.31
63.99
63.92
63.07
61.57
59.69
57.71
55.80
53.93
51.78
48.89
44.81
39.27
32.42
24.70
16.84
9.50
3.08
-2.36
-7.15
-11.75
-16.55
-21.68
-26.98
-32.06
-36.52
-40.18
-43.27
-46.45
-50.67
-56.82
-65.36
-75.91
-87.21
-97.22
-103.71
-104.86
-99.86
-89.16
-74.29
-57.40
-40.61
-25.52
-12.93
-2.92
4.98
11.41
16.92
21.83
26.17
29.83
32.69
34.72
36.04
36.85
37.33
37.54
37.42
36.90
35.98
34.80
33.58
32.45
31.31
29.89
27.80
24.74
20.58
15.43
9.46
2.87
-4.25
-11.79
-19.62
-27.47
-35.03
-42.05
-48.52
-54.75
-61.27
-68.69
-77.44
-87.53
-98.35
-108.68
-116.78
-120.76
-119.11
-111.18
-97.50
-79.64
-59.86
-40.28
-22.39
-6.74
6.98
19.39
31.05
42.13
52.41
61.47
68.97
74.76
78.95
81.77
83.49
84.37
84.64
84.51
84.16
83.73
83.21
82.42
81.05
78.75
75.24
70.45
64.50
57.65
50.19
42.35
34.25
25.94
17.49
9.02
0.71
-7.31
-15.01
-22.54
-30.29
-38.71
-48.17
-58.72
-69.88
-80.59
-89.36
-94.50
-94.65
-89.17
-78.39
-63.61
-46.70
-29.62
