1568072621.00
64.000000
-0.00
-0.00
-0.00
-0.00
-0.00
-0.00
-0.00
-0.00
-0.00
-0.00
0.00
0.01
0.01
-0.00
-0.03
-0.05
-0.05
0.00
0.13
0.36
0.66
1.01
1.37
1.72
2.06
2.40
2.79
3.24
3.80
4.42
5.06
5.66
6.20
6.68
7.15
7.68
8.31
9.14
10.09
11.04
11.88
12.56
13.14
13.76
14.65
15.96
17.91
20.32
22.90
25.38
27.58
29.57
31.68
34.32
37.81
42.54
48.15
54.10
59.83
64.97
69.58
74.14
79.34
85.71
93.76
103.00
112.62
121.73
129.77
136.75
143.30
150.75
157.77
166.64
177.95
191.79
206.97
220.57
228.25
225.36
208.53
176.87
132.76
80.05
23.07
-34.94
-92.44
-149.16
-205.23
-260.37
-313.74
-363.87
-409.83
-450.91
-486.50
-515.74
-537.23
-549.22
-549.96
-538.37
-514.21
-478.68
-433.87
-382.43
-326.98
-269.81
-212.64
-156.74
-103.13
-52.65
-6.27
35.17
71.01
100.95
125.12
143.98
158.22
168.57
175.66
179.95
181.73
181.25
178.75
174.51
168.88
162.25
154.96
147.35
139.63
131.96
124.36
116.79
109.19
101.48
93.66
85.86
78.25
71.09
64.55
58.65
53.21
47.94
42.54
36.87
31.02
25.33
20.24
16.09
12.93
10.44
8.07
5.26
1.71
-2.43
-6.62
-10.21
-12.64
-13.81
-14.05
-14.03
-14.47
-15.98
-18.92
-23.26
-28.38
-32.93
-35.01
-32.74
-25.04
-12.39
3.09
18.36
30.51
37.84
40.32
39.34
36.92
34.83
33.97
34.26
34.90
34.92
33.64
30.94
27.29
23.39
19.90
17.00
14.47
11.96
9.33
6.85
5.03
4.26
4.44
5.02
5.22
4.54
2.97
0.94
-0.86
-1.85
-1.84
-0.97
0.34
1.69
2.78
3.53
4.03
4.42
4.87
5.42
6.04
6.61
6.95
6.89
6.38
5.50
4.53
3.79
3.53
3.84
4.58
5.49
6.32
7.00
7.57
8.26
9.16
10.24
11.33
12.11
12.35
11.96
10.98
9.56
7.80
5.85
3.64
1.16
-1.52
-4.30
-7.02
-9.53
-11.74
-13.57
-14.98
-15.95
-16.47
-16.55
-16.28
-15.75
-15.09
-14.40
-13.79
-13.28
-12.86
-12.41
-11.78
-10.81
-9.41
-7.61
-5.58
-3.60
-1.92
-0.74
-0.11
0.07
-0.04
-0.27
-0.54
-0.82
-1.16
-1.58
-2.08
-2.54
-2.87
-3.00
-3.00
-2.98
-3.05
-3.25
-3.52
-3.69
-3.65
-3.39
-3.04
-2.77
-2.74
-3.04
-3.63
-4.38
-5.15
-5.83
-6.40
-6.88
-7.34
-7.91
-8.73
-9.93
-11.59
-13.67
-16.01
-18.34
-20.41
-22.09
-23.42
-24.58
-25.78
-27.21
-28.92
-30.88
-33.00
-35.16
-37.21
-38.93
-39.99
-40.03
-38.65
-35.58
-30.70
-24.10
-16.04
-6.94
2.66
12.20
21.16
29.13
35.87
41.29
45.41
48.36
50.29
51.39
51.82
51.74
51.19
50.17
48.65
46.61
44.08
41.13
37.84
34.24
30.35
26.18
21.82
17.45
13.33
9.66
6.56
4.01
1.89
0.06
-1.58
-3.11
-4.56
-6.00
-7.48
-9.06
-10.70
-12.31
-13.75
-14.87
-15.59
-15.94
-16.02
-15.97
-15.95
-16.10
-16.48
-17.04
-17.55
-17.64
-16.89
-14.92
-11.61
-7.10
-1.82
3.69
8.92
13.50
17.26
20.18
22.28
23.59
24.19
24.23
23.95
23.66
23.55
23.60
23.56
23.00
21.56
19.07
15.76
12.09
8.60
5.68
3.43
1.72
0.32
-0.92
-2.05
-2.98
-3.65
-4.05
-4.29
-4.45
-4.57
-4.61
-4.51
-4.28
-4.01
-3.87
-3.93
-4.20
-4.58
-4.96
-5.31
-5.71
-6.27
-7.09
-8.20
-9.56
-11.15
-12.91
-14.78
-16.66
-18.32
-19.47
-19.82
-19.18
-17.51
-14.95
-11.79
-8.36
-4.96
-1.83
0.92
3.25
5.13
6.56
7.50
7.97
7.99
7.64
7.06
6.36
5.63
4.92
4.23
3.56
2.89
2.23
1.58
0.96
0.42
0.03
-0.15
-0.13
0.00
0.10
0.02
-0.34
-0.94
-1.67
-2.34
-2.86
-3.20
-3.50
-3.94
-4.69
-5.79
-7.18
-8.70
-10.15
-11.46
-12.70
-14.02
-15.60
-17.54
-19.72
-21.89
-23.65
-24.63
-24.61
-23.53
-21.47
-18.57
-15.00
-10.90
-6.45
-1.89
2.41
6.11
8.96
10.88
12.03
12.72
13.24
13.81
14.45
15.09
15.61
15.97
16.21
16.53
17.14
18.23
19.88
21.93
24.06
25.86
27.04
27.54
27.58
27.59
27.95
28.85
30.19
31.66
32.93
33.85
34.55
35.36
36.65
38.65
41.33
44.39
47.39
49.98
52.01
53.67
55.41
57.77
61.33
66.47
73.30
81.40
89.73
96.55
99.74
97.26
87.86
71.65
50.31
26.62
3.76
-15.59
-29.94
-39.05
-43.63
-44.82
-43.74
-41.34
-38.45
-35.84
-34.23
-34.07
-35.33
-37.51
-39.85
-41.62
-42.51
-42.62
-42.35
-42.09
-42.08
-42.35
-42.79
-43.30
-43.82
-44.37
-44.97
-45.67
-46.48
-47.33
-48.07
-48.47
-48.24
-47.24
-45.53
-43.42
-41.29
-39.43
-37.91
-36.59
-35.22
-33.66
-31.91
-30.07
-28.17
-26.11
-23.65
-20.53
-16.63
-11.98
-6.80
-1.53
3.35
7.41
10.39
12.14
12.64
11.88
9.81
6.31
1.08
-6.14
-15.37
-26.19
-37.84
-49.47
-60.38
-70.15
-78.73
-86.56
-94.07
-101.00
-106.27
-108.41
-106.33
-99.88
-89.89
-78.01
-66.66
-57.82
-51.89
-47.39
-41.80
-32.87
-19.52
-2.12
17.53
35.93
49.68
57.29
60.03
60.82
62.32
65.89
71.30
76.95
79.36
75.02
61.95
40.29
11.51
-22.58
-59.17
-93.86
-112.99
-104.96
-69.39
-19.81
25.72
55.32
66.64
64.38
57.13
51.04
47.42
44.36
39.64
32.96
26.92
23.58
23.95
27.71
33.28
37.75
38.51
34.88
28.64
22.80
19.68
20.15
23.67
28.56
32.42
33.24
30.50
25.39
19.92
15.63
13.22
12.50
12.66
12.49
10.89
7.37
2.21
-3.92
-10.44
-16.94
-23.16
-28.95
-34.21
-38.77
-42.34
-44.46
-44.80
-43.36
-40.37
-36.29
-31.61
-26.73
-21.96
-17.50
-13.52
-10.13
-7.40
-5.32
-3.81
-2.67
-1.70
-0.73
0.42
1.80
3.43
5.25
7.13
8.88
10.35
11.42
12.08
12.44
12.64
12.84
13.06
13.22
13.16
12.70
11.78
10.39
8.68
6.78
4.85
2.98
1.26
-0.24
-1.48
-2.44
-3.20
-3.86
-4.57
-5.43
-6.49
-7.79
-9.32
-11.09
-13.06
-15.11
-17.02
-18.50
-19.23
-18.99
-17.67
-15.32
-12.12
-8.32
-4.18
0.02
4.00
7.54
10.47
12.76
14.52
15.91
17.06
18.05
18.89
19.53
19.92
20.08
20.04
19.88
19.65
19.37
19.11
18.94
18.94
19.17
19.55
19.93
20.04
19.66
18.68
17.17
15.30
13.31
11.43
9.77
8.37
7.13
5.87
4.44
2.67
0.51
-2.03
-4.82
-7.69
-10.54
-13.28
-15.93
-18.47
-20.89
-23.12
-25.08
-26.71
-27.91
-28.52
-28.29
-26.97
-24.39
-20.62
-16.02
-11.10
-6.33
-2.00
1.89
5.46
8.82
11.90
14.45
16.17
16.90
16.75
16.03
15.14
14.44
14.14
14.25
14.72
15.40
16.14
16.82
17.30
17.48
17.35
16.96
16.41
15.85
15.39
15.12
15.04
15.09
15.15
15.03
14.57
13.71
12.51
11.17
10.00
9.29
9.20
9.75
10.78
12.02
13.14
13.82
13.83
13.04
11.55
9.63
7.74
6.37
5.98
6.83
8.93
12.03
15.64
19.14
21.87
23.30
23.16
21.47
18.58
14.96
11.07
7.24
3.60
0.15
-3.12
-6.16
-8.82
-10.88
-12.23
-12.91
-13.05
-12.84
-12.39
-11.67
-10.53
-8.83
-6.51
-3.73
-0.70
2.30
5.05
7.47
9.56
11.37
12.96
14.42
15.81
17.23
18.65
19.94
20.79
20.72
19.28
16.15
11.33
5.15
-1.80
-8.80
-15.28
-20.86
-25.45
-29.13
-31.99
-33.98
-34.92
-34.57
-32.78
-29.57
-25.17
-19.91
-14.17
-8.25
-2.45
3.00
7.82
11.83
14.90
17.06
18.44
19.26
19.73
20.01
20.21
20.32
20.28
19.93
19.12
17.70
15.68
13.16
10.37
7.58
5.00
2.76
0.89
-0.63
-1.89
-2.97
-3.98
-4.98
-6.01
-7.06
-8.08
-9.03
-9.88
-10.58
-11.07
-11.27
-11.15
-10.74
-10.23
-9.91
-10.03
-10.74
-11.96
-13.43
-14.78
-15.61
-15.64
-14.65
-12.58
-9.50
-5.65
-1.40
2.78
6.45
9.27
11.08
11.94
12.07
11.76
11.28
10.76
10.24
9.70
9.14
8.68
8.52
8.84
9.66
10.81
11.94
12.69
12.88
12.50
11.77
10.90
10.00
9.00
7.75
6.09
3.97
1.43
-1.41
-4.44
-7.54
-10.61
-13.46
-15.89
-17.66
-18.68
-18.97
-18.78
-18.44
-18.30
-18.65
-19.60
-21.07
-22.71
-23.98
-24.26
-23.02
-20.05
-15.53
-10.00
-4.15
1.38
6.21
10.17
13.26
15.50
16.91
17.46
17.22
16.36
15.11
13.78
12.55
11.53
10.73
10.08
9.53
9.06
8.76
8.74
9.07
9.74
10.57
11.31
11.69
11.53
10.86
9.87
8.79
7.85
7.10
6.49
5.90
5.24
4.50
3.71
2.94
2.19
1.40
0.45
-0.80
-2.47
-4.66
-7.41
-10.74
-14.54
-18.57
-22.37
-25.45
-27.30
-27.60
-26.33
-23.77
-20.38
-16.65
-12.97
-9.55
-6.51
-3.86
-1.66
0.08
1.43
2.51
3.53
4.66
6.01
7.56
9.17
10.66
11.92
12.90
13.71
14.48
15.33
16.25
17.08
17.60
17.61
17.02
15.92
14.50
12.95
11.40
9.91
8.44
7.02
5.66
4.42
3.31
2.28
1.21
0.00
-1.41
-3.02
-4.81
-6.77
-8.92
-11.23
-13.55
-15.61
-16.98
-17.27
-16.22
-13.87
-10.51
-6.62
-2.66
1.06
4.41
7.37
9.96
12.14
13.77
14.70
14.87
14.34
13.35
12.22
11.23
10.54
10.14
9.92
9.73
9.43
8.97
8.30
7.35
6.07
4.37
2.25
-0.25
-3.06
-6.09
-9.29
-12.52
-15.57
-18.07
-19.63
-19.97
-19.09
-17.28
-15.07
-13.01
-11.53
-10.80
-10.78
-11.35
-12.32
-13.51
-14.71
-15.60
-15.81
-15.00
-12.98
-9.88
-6.05
-2.07
1.54
4.38
6.27
7.24
7.46
7.20
6.71
6.22
5.84
5.63
5.55
5.49
5.37
5.12
4.66
3.93
2.91
1.62
0.15
-1.29
-2.49
-3.23
-3.42
-3.09
-2.40
-1.58
-0.87
-0.44
-0.38
-0.66
-1.17
-1.76
-2.27
-2.65
-2.99
-3.45
-4.24
-5.44
-6.98
-8.62
-10.09
-11.15
-11.69
-11.69
-11.21
-10.25
-8.79
-6.82
-4.43
-1.80
0.81
3.19
5.23
6.87
8.11
8.88
9.09
8.65
7.61
6.18
4.71
3.55
2.93
2.87
3.19
3.67
4.08
4.33
4.39
4.28
4.01
3.57
2.92
2.10
1.20
0.29
-0.51
-1.21
-1.86
-2.54
-3.38
-4.42
-5.66
-7.03
-8.46
-9.90
-11.35
-12.86
-14.44
-16.02
-17.44
-18.45
-18.82
-18.35
-17.01
-14.89
-12.16
-9.06
-5.81
-2.58
0.45
3.15
5.40
7.14
8.37
9.16
9.66
9.96
10.16
10.26
10.26
10.14
9.96
9.79
9.72
9.73
9.73
9.59
9.23
8.63
7.88
7.15
6.51
5.95
5.41
4.76
3.96
3.01
1.98
0.91
-0.22
-1.44
-2.77
-4.16
-5.55
-6.88
-8.21
-9.65
-11.32
-13.19
-15.03
-16.41
-16.90
-16.19
-14.26
-11.39
-8.01
-4.60
-1.52
1.03
3.04
4.61
5.89
6.98
7.90
8.55
8.82
8.63
8.05
7.25
6.48
5.89
5.48
5.12
4.68
4.10
3.44
2.87
2.51
2.41
2.48
2.57
2.53
2.31
1.94
1.49
1.00
0.44
-0.27
-1.16
-2.18
-3.18
-4.01
-4.55
-4.88
-5.18
-5.69
-6.59
-7.93
-9.60
-11.42
-13.20
-14.72
-15.80
-16.23
-15.81
-14.40
-12.03
-8.91
-5.40
-1.89
1.29
3.99
6.21
8.04
9.57
10.83
11.78
12.37
12.63
12.64
12.51
12.29
12.00
11.59
11.00
10.26
9.45
8.65
7.97
7.44
7.08
6.79
6.48
6.00
5.32
4.42
3.43
2.46
1.57
0.69
-0.29
-1.53
-3.03
-4.68
-6.27
-7.60
-8.55
-9.15
-9.52
-9.87
-10.38
-11.21
-12.44
-14.01
-15.77
-17.44
-18.70
-19.28
-19.03
-17.92
-16.06
-13.62
-10.78
-7.75
-4.68
-1.74
0.96
3.32
5.30
6.90
8.20
9.25
10.07
10.64
10.88
10.75
10.30
9.71
9.15
8.82
8.76
8.89
9.04
9.07
8.88
8.50
8.00
7.46
6.93
6.37
5.70
4.86
3.79
2.53
1.17
-0.17
-1.40
-2.49
-3.48
-4.47
-5.51
-6.62
-7.73
-8.75
-9.64
-10.40
-11.11
-11.92
-12.98
-14.35
-16.02
-17.83
-19.47
-20.60
-20.92
-20.25
-18.61
-16.20
-13.29
-10.13
-6.95
-3.88
-0.97
1.73
4.14
6.15
7.60
8.33
8.27
7.47
6.22
4.97
4.15
4.11
4.90
6.30
7.88
9.24
10.11
10.47
10.45
10.25
10.01
9.75
9.42
8.98
8.47
7.98
7.66
7.60
7.76
7.96
7.96
7.52
6.53
5.06
3.30
1.50
-0.16
-1.59
-2.86
-4.07
-5.34
-6.74
-8.29
-9.94
-11.65
-13.38
-15.05
-16.58
-17.75
-18.29
-17.93
-16.50
-14.07
-10.91
-7.45
-4.11
-1.17
1.27
3.25
4.87
6.19
7.22
8.03
8.71
9.44
10.33
11.40
12.53
13.53
14.23
14.60
14.74
14.77
14.82
14.88
14.84
14.57
14.01
13.16
12.15
11.08
9.99
8.83
7.47
5.83
3.93
1.95
0.15
-1.24
-2.14
-2.68
-3.09
-3.59
-4.28
-5.13
-6.02
-6.88
-7.75
-8.73
-9.90
-11.21
-12.50
-13.57
-14.29
-14.61
-14.56
-14.16
-13.36
-12.10
-10.35
-8.23
-6.01
-3.99
-2.45
-1.46
-0.97
-0.79
-0.72
-0.65
-0.55
-0.44
-0.32
-0.09
0.36
1.13
2.18
3.36
4.42
5.18
5.61
5.81
5.90
5.86
5.57
4.79
3.40
1.50
-0.61
-2.51
-3.94
-4.84
-5.43
-5.99
-6.74
-7.68
-8.69
-9.60
-10.35
-11.05
-11.88
-13.06
-14.64
-16.52
-18.44
-20.10
-21.17
-21.44
-20.81
-19.29
-17.03
-14.25
-11.17
-7.97
-4.69
-1.34
2.08
5.46
8.62
11.33
13.41
14.82
15.66
16.11
16.33
16.42
16.47
16.55
16.67
16.82
16.84
16.49
15.56
13.98
11.93
9.81
8.05
6.92
6.42
6.28
6.13
5.68
4.85
3.77
2.59
1.43
0.29
-0.86
-2.02
-3.10
-3.91
-4.36
-4.49
-4.55
-4.86
-5.72
-7.19
-9.13
-11.18
-12.91
-13.97
-14.16
-13.43
-11.85
-9.64
-7.06
-4.38
-1.90
0.22
1.89
3.16
4.18
5.09
5.99
6.88
7.66
8.21
8.42
8.27
7.90
7.49
7.24
7.29
7.65
8.22
8.84
9.39
9.76
9.94
9.92
9.66
9.15
8.39
7.43
6.42
5.51
4.83
4.45
4.29
4.19
3.96
3.43
2.49
1.16
-0.44
-2.15
-3.79
-5.32
-6.75
-8.17
-9.62
-11.03
-12.19
-12.84
-12.71
-11.70
-9.91
-7.54
-4.88
-2.14
0.50
2.92
4.97
6.51
7.43
7.69
7.41
6.80
6.14
5.60
5.28
5.15
5.14
5.17
5.21
5.26
5.31
5.30
5.19
4.91
4.44
3.75
2.82
1.68
0.38
-0.95
-2.18
-3.23
-4.13
-4.97
-5.86
-6.89
-8.05
-9.27
-10.50
-11.71
-12.88
-14.02
-15.05
-15.79
-16.00
-15.45
-14.02
-11.82
-9.09
-6.20
-3.45
-1.02
1.05
2.80
4.29
5.46
6.24
6.61
6.65
6.51
6.36
6.30
6.28
6.18
5.88
5.36
4.69
4.04
3.55
3.36
3.47
3.82
4.25
4.55
4.51
4.03
3.11
1.89
0.59
-0.60
-1.59
-2.37
-3.02
-3.65
-4.32
-5.07
-5.91
-6.81
-7.76
-8.68
-9.44
-9.92
-9.98
-9.53
-8.52
-6.90
-4.69
-1.98
1.04
4.06
6.74
8.83
10.22
10.95
11.19
11.11
10.81
10.38
9.89
9.39
8.92
8.52
8.13
7.72
7.26
6.79
6.33
5.92
5.47
4.86
3.92
2.49
0.54
-1.85
-4.49
-7.11
-9.44
-11.29
-12.67
-13.72
-14.73
-15.93
-17.41
-19.06
-20.59
-21.70
-22.12
-21.78
-20.71
-19.06
-17.00
-14.64
-12.03
-9.16
-6.02
-2.68
0.66
3.70
6.09
7.55
8.00
7.52
6.39
4.96
3.61
2.68
2.43
2.93
4.14
5.81
7.64
9.31
10.57
11.32
11.59
11.49
11.16
10.69
10.14
9.52
8.85
8.15
7.43
6.61
5.57
4.16
2.28
-0.01
-2.49
-4.79
-6.56
-7.54
-7.58
-6.72
-5.08
-2.84
-0.21
2.56
5.20
7.45
9.12
10.10
10.38
10.07
9.30
8.25
7.12
6.05
5.19
4.63
4.42
4.57
5.05
5.76
6.60
7.43
8.10
8.47
8.40
7.77
6.50
4.62
2.29
-0.24
-2.68
-4.82
-6.57
-8.02
-9.33
-10.68
-12.19
-13.91
-15.78
-17.66
-19.39
-20.70
-21.33
-21.08
-19.79
-17.52
-14.47
-10.97
-7.36
-3.96
-0.98
1.44
3.28
4.57
5.39
5.83
5.97
5.85
5.49
4.91
4.16
3.35
2.63
2.19
2.15
2.59
3.42
4.51
5.64
6.60
7.22
7.38
7.06
6.31
5.25
4.01
2.76
1.61
0.66
-0.10
-0.74
-1.37
-2.13
-3.03
-4.00
-4.88
-5.44
-5.52
-5.04
-3.99
-2.44
-0.51
1.71
4.07
6.41
8.54
10.27
11.47
12.13
12.33
12.22
11.98
11.70
11.44
11.20
10.95
10.64
10.21
9.64
8.96
8.25
7.64
7.25
7.12
7.14
7.11
6.81
6.06
4.84
3.29
1.64
0.09
-1.23
-2.34
-3.39
-4.51
-5.82
-7.30
-8.88
-10.41
-11.79
-12.94
-13.84
-14.42
-14.57
-14.12
-12.91
-10.87
-8.08
-4.77
-1.21
2.31
5.55
8.27
10.22
11.19
11.06
9.91
8.08
6.04
4.27
3.02
2.34
2.04
1.86
1.62
1.24
0.71
0.05
-0.71
-1.52
-2.30
-2.90
-3.20
-3.13
-2.77
-2.23
-1.71
-1.33
-1.17
-1.26
-1.61
-2.20
-2.98
-3.89
-4.85
-5.82
-6.78
-7.82
-8.95
-10.11
-11.08
-11.54
-11.23
-9.99
-7.92
-5.27
-2.35
0.53
3.19
5.49
7.34
8.64
9.33
9.41
9.02
8.38
7.73
7.26
7.09
7.25
7.69
8.31
8.92
9.33
9.37
8.97
8.21
7.27
6.32
5.53
4.95
4.53
4.15
3.66
2.90
1.80
0.36
-1.31
-3.09
-4.81
-6.38
-7.77
-9.00
-10.17
-11.35
-12.61
-13.98
-15.42
-16.82
-17.99
-18.69
-18.70
-17.90
-16.29
-14.01
-11.26
-8.29
-5.34
-2.64
-0.42
1.14
1.94
2.00
1.50
0.75
0.11
-0.16
0.07
0.72
1.62
2.58
3.49
4.38
5.30
6.30
7.33
8.23
8.79
8.84
8.27
7.11
5.47
3.50
1.38
-0.76
-2.80
-4.65
-6.33
-7.89
-9.44
-11.08
-12.82
-14.57
-16.08
-17.03
-17.13
-16.23
-14.40
-11.88
-9.01
-6.08
-3.22
-0.43
2.32
5.00
7.37
9.15
10.14
10.34
9.99
9.45
9.01
8.76
8.59
8.35
7.98
7.54
7.18
7.00
6.97
6.96
6.76
6.24
5.33
4.07
2.55
0.88
-0.83
-2.46
-3.95
-5.25
-6.38
-7.42
-8.51
-9.77
-11.29
-13.05
-14.88
-16.47
-17.41
-17.38
-16.22
-14.03
-11.10
-7.82
-4.55
-1.54
1.04
3.09
4.57
5.44
5.77
5.66
5.19
4.47
3.63
2.84
2.41
2.59
3.50
4.97
6.53
7.60
7.85
7.31
6.42
5.76
5.72
6.27
7.07
7.61
7.55
6.82
5.57
3.99
2.16
0.06
-2.37
-5.09
-7.95
-10.67
-12.99
-14.69
-15.64
-15.74
-14.91
-13.12
-10.41
-6.96
-3.10
0.81
4.38
7.40
9.78
11.63
13.14
14.53
15.90
17.17
18.19
18.72
18.62
17.88
16.64
15.13
13.60
12.24
11.13
10.31
9.72
9.19
8.54
7.54
6.05
4.06
1.72
-0.73
-3.03
-5.04
-6.71
-8.17
-9.55
-10.99
-12.55
-14.23
-15.98
-17.68
-19.20
-20.32
-20.77
-20.32
-18.85
-16.40
-13.19
-9.55
-5.80
-2.18
1.18
4.19
6.80
8.87
10.30
11.00
10.99
10.45
9.62
8.76
8.06
7.63
7.43
7.36
7.32
7.24
7.07
6.75
6.23
5.43
4.27
2.79
1.09
-0.60
-2.09
-3.26
-4.15
-4.90
-5.71
-6.70
-7.91
-9.27
-10.72
-12.23
-13.83
-15.55
-17.35
-19.05
-20.36
-20.92
-20.48
-18.98
-16.52
-13.34
-9.71
-5.87
-2.05
1.53
4.57
6.75
7.85
7.86
7.01
5.71
4.42
3.45
2.96
2.91
3.22
3.78
4.55
5.52
6.69
8.00
9.34
10.58
11.57
12.19
12.42
12.35
12.11
11.85
11.66
11.58
11.52
11.40
11.13
10.68
10.09
9.37
8.55
7.65
6.70
5.76
4.86
4.00
3.19
2.43
1.76
1.26
1.06
1.22
1.79
2.70
3.84
5.05
6.18
7.12
7.77
8.12
8.20
8.09
7.89
7.60
7.12
6.23
4.64
2.13
-1.35
-5.63
-10.25
-14.65
-18.17
-20.29
-20.70
-19.47
-17.09
-14.44
-12.57
-12.39
-14.30
-18.03
-22.71
-27.18
-30.45
-32.01
-31.90
-30.59
-28.71
-26.80
-25.19
-24.04
-23.39
-23.19
-23.28
-23.40
-23.19
-22.28
-20.43
-17.61
-13.98
-9.86
-5.61
-1.56
2.14
5.44
8.46
11.33
14.14
16.85
19.31
21.32
22.74
23.54
23.84
23.86
23.83
23.91
24.20
24.68
25.24
25.68
25.70
25.00
23.32
20.59
17.04
13.12
9.43
6.54
4.75
4.06
4.19
4.77
5.51
6.30
7.19
8.36
9.91
11.86
14.11
16.47
18.72
20.68
22.19
23.21
23.73
23.82
23.55
22.94
21.93
20.45
18.45
15.99
13.25
10.50
7.99
5.87
4.23
3.14
2.62
2.72
3.40
4.50
5.76
6.87
7.57
7.76
7.49
6.90
6.11
5.16
3.96
2.44
0.57
-1.58
-3.83
-5.92
-7.65
-8.87
-9.60
-9.98
-10.26
-10.71
-11.55
-12.91
-14.77
-16.92
-19.02
-20.62
-21.26
-20.64
-18.66
-15.49
-11.47
-7.07
-2.74
1.11
4.13
6.06
6.71
6.02
4.08
1.16
-2.36
-6.02
-9.33
-11.91
-13.43
-13.76
-12.98
-11.38
-9.44
-7.68
-6.48
-6.07
-6.43
-7.45
-9.03
-11.13
-13.75
-16.80
-20.00
-22.93
-25.13
-26.21
-26.10
-24.98
-23.20
-21.15
-19.07
-17.01
-14.86
-12.46
-9.69
-6.50
-2.94
0.86
4.68
8.22
11.11
13.10
14.13
14.42
14.43
14.59
15.09
15.76
16.19
15.95
14.83
12.98
10.75
8.45
6.19
3.79
0.96
-2.52
-6.63
-11.06
-15.36
-19.07
-21.87
-23.70
-24.69
-25.09
-25.16
-25.19
-25.41
-25.98
-26.94
-28.13
-29.18
-29.50
-28.52
-25.81
-21.29
-15.27
-8.35
-1.27
5.29
10.76
14.78
17.15
17.85
17.01
14.97
12.22
9.36
7.05
5.82
5.93
7.29
9.44
11.71
13.48
14.40
14.51
14.16
13.81
13.80
14.19
14.83
15.48
15.92
16.00
15.57
14.43
12.29
8.97
4.50
-0.73
-6.01
-10.50
-13.50
-14.57
-13.67
-11.08
-7.32
-3.02
1.11
4.45
6.55
7.29
6.91
5.90
4.85
4.20
4.18
4.81
6.00
7.70
9.90
12.54
15.42
18.22
20.52
21.97
22.40
21.84
20.49
18.62
16.49
14.30
12.17
10.12
8.06
5.82
3.23
0.17
-3.29
-6.91
-10.26
-12.89
-14.46
-14.82
-14.05
-12.42
-10.27
-7.92
-5.65
-3.69
-2.23
-1.44
-1.41
-2.13
-3.43
-5.05
-6.72
-8.18
-9.32
-10.16
-10.85
-11.60
-12.68
-14.29
-16.53
-19.30
-22.32
-25.13
-27.26
-28.30
-28.11
-26.80
-24.74
-22.40
-20.21
-18.42
-17.08
-16.09
-15.30
-14.62
-14.03
-13.53
-13.09
-12.64
-12.01
-11.03
-9.53
-7.38
-4.51
-0.95
3.20
7.73
12.37
16.86
21.00
24.69
27.86
30.50
32.57
34.05
34.88
35.09
34.67
33.58
31.76
29.13
25.72
21.70
17.39
13.19
9.41
6.24
3.70
1.74
0.23
-1.01
-2.24
-3.73
-5.72
-8.24
-11.00
-13.49
-15.16
-15.66
-15.01
-13.54
-11.81
-10.31
-9.32
-8.86
-8.75
-8.79
-8.85
-8.94
-9.22
-9.87
-11.03
-12.61
-14.37
-15.90
-16.85
-17.04
-16.54
-15.62
-14.64
-13.88
-13.50
-13.50
-13.84
-14.41
-15.05
-15.54
-15.67
-15.25
-14.32
-13.09
-11.92
-11.11
-10.74
-10.53
-9.93
-8.30
-5.18
-0.43
5.63
12.42
19.17
25.22
30.08
33.60
35.79
36.89
37.17
36.90
36.31
35.59
34.98
34.63
34.72
35.26
36.14
37.05
37.63
37.53
36.57
34.78
32.32
29.40
26.14
22.54
18.50
13.91
8.70
2.92
-3.27
-9.66
-16.04
-22.27
-28.29
-34.14
-39.78
-45.08
-49.71
-53.13
-54.81
-54.37
-51.75
-47.27
-41.50
-35.16
-29.00
-23.63
-19.57
-17.12
-16.32
-16.92
-18.35
-19.79
-20.43
-19.65
-17.22
-13.34
-8.55
-3.42
1.60
6.30
10.66
14.66
18.16
20.86
22.42
22.67
21.74
20.03
18.09
16.43
15.38
15.11
15.66
17.07
19.30
22.23
25.57
28.87
31.61
33.36
33.88
33.26
31.80
29.95
28.21
26.92
26.27
26.27
26.80
27.64
28.58
29.42
30.01
30.23
29.95
29.03
27.40
25.00
21.95
18.44
14.76
11.23
8.15
5.71
3.97
2.85
2.13
1.58
0.99
0.23
-0.75
-1.87
-3.09
-4.32
-5.55
-6.70
-7.68
-8.25
-8.20
-7.40
-5.97
-4.37
-3.33
-3.59
-5.67
-9.59
-14.84
-20.50
-25.52
-29.00
-30.43
-29.69
-27.04
-22.92
-17.88
-12.42
-6.99
-1.89
2.63
6.33
9.02
10.53
10.78
9.82
7.92
5.48
3.02
1.07
-0.00
0.03
1.17
3.27
6.11
9.45
13.00
16.47
19.48
21.62
22.48
21.80
19.51
15.76
10.93
5.52
0.03
-5.10
-9.62
-13.45
-16.69
-19.57
-22.32
-25.05
-27.73
-30.12
-31.90
-32.76
-32.47
-30.96
-28.33
-24.77
-20.50
-15.71
-10.56
-5.20
0.20
5.40
10.17
14.22
17.38
19.53
20.64
20.82
20.30
19.45
18.69
18.38
18.69
19.49
20.44
21.12
21.23
20.66
19.53
18.07
16.45
14.75
12.89
10.80
8.40
5.76
2.96
0.15
-2.62
-5.31
-7.97
-10.63
-13.27
-15.82
-18.25
-20.56
-22.88
-25.35
-28.05
-30.77
-33.03
-34.16
-33.56
-30.96
-26.56
-21.01
-15.10
-9.50
-4.57
-0.35
3.30
6.44
8.98
10.75
11.57
11.47
10.71
9.69
8.83
8.37
8.36
8.62
8.89
8.90
8.49
7.61
6.36
4.89
3.32
1.71
0.07
-1.64
-3.45
-5.35
-7.29
-9.22
-11.16
-13.13
-15.15
-17.19
-19.11
-20.75
-21.98
-22.74
-23.13
-23.35
-23.66
-24.31
-25.43
-26.95
-28.56
-29.74
-29.86
-28.38
-25.01
-19.81
-13.18
-5.74
1.81
8.83
14.93
19.89
23.71
26.53
28.54
29.95
30.91
31.49
31.73
31.64
31.22
30.51
29.51
28.25
26.82
25.29
23.81
22.50
21.42
20.54
19.73
18.83
17.68
16.21
14.40
12.33
10.12
7.86
5.60
3.33
1.01
-1.45
-4.08
-6.88
-9.74
-12.44
-14.72
-16.41
-17.48
-18.10
-18.61
-19.35
-20.55
-22.26
-24.27
-26.30
-27.98
-28.99
-29.08
-28.11
-26.04
-22.98
-19.13
-14.86
-10.52
-6.41
-2.69
0.60
3.48
6.02
8.24
10.08
11.52
12.48
12.93
12.86
12.29
11.25
9.86
8.25
6.64
5.26
4.43
4.43
5.37
7.10
9.10
10.64
11.04
9.95
7.43
3.96
0.11
-3.61
-6.88
-9.51
-11.36
-12.27
-12.16
-11.20
-9.92
-9.08
-9.42
-11.31
-14.57
-18.45
-21.95
-24.05
-24.11
-22.01
-18.11
-13.13
-7.87
-2.99
1.10
4.32
6.78
8.73
10.37
11.76
12.84
13.47
13.47
12.79
11.50
9.78
7.87
5.96
4.18
2.51
0.86
-0.89
-2.82
-4.81
-6.51
-7.45
-7.14
-5.27
-1.93
2.42
6.97
10.81
13.12
13.36
11.47
7.84
3.21
-1.50
-5.49
-8.23
-9.61
-9.86
-9.41
-8.75
-8.27
-8.20
-8.56
-9.14
-9.47
-8.94
-7.01
-3.52
1.20
6.34
11.02
14.61
16.97
18.41
19.41
20.36
21.34
22.24
22.92
23.43
23.95
24.68
25.71
26.88
27.85
28.24
27.83
26.63
24.83
22.75
20.66
18.69
16.83
14.96
12.99
10.93
8.84
6.84
4.97
3.20
1.39
-0.60
-2.86
-5.37
-8.03
-10.64
-12.98
-14.88
-16.21
-17.02
-17.52
-18.06
-19.01
-20.62
-22.91
-25.64
-28.33
-30.35
-31.14
-30.29
-27.68
-23.53
-18.30
-12.62
-7.10
-2.28
1.50
4.06
5.44
5.84
5.58
5.01
4.39
3.78
3.09
2.13
0.73
-1.10
-3.20
-5.31
-7.15
-8.51
-9.25
-9.26
-8.43
-6.71
-4.15
-0.99
2.37
5.43
7.72
8.94
9.02
8.08
6.38
4.20
1.78
-0.71
-3.19
-5.63
-8.00
-10.26
-12.39
-14.40
-16.33
-18.27
-20.27
-22.30
-24.26
-25.94
-27.04
-27.23
-26.20
-23.76
-19.94
-14.98
-9.30
-3.41
2.21
7.23
11.46
14.91
17.65
19.80
21.42
22.53
23.19
23.45
23.47
23.48
23.63
23.98
24.40
24.71
24.77
24.54
24.13
23.65
23.17
22.66
22.05
21.29
20.38
19.33
18.07
16.51
14.56
12.23
9.70
7.24
5.05
3.18
1.52
-0.11
-1.84
-3.68
-5.64
-7.65
-9.68
-11.70
-13.56
-15.03
-15.83
-15.70
-14.51
-12.29
-9.20
-5.53
-1.68
1.96
5.02
7.27
8.66
9.26
9.28
8.92
8.36
7.71
7.03
6.35
5.68
5.01
4.33
3.63
2.94
2.28
1.70
1.21
0.75
0.25
-0.37
-1.15
-2.04
-2.94
-3.74
-4.40
-4.96
-5.53
-6.23
-7.13
-8.28
-9.64
-11.22
-12.98
-14.88
-16.78
-18.41
-19.46
-19.57
-18.55
-16.40
-13.31
-9.67
-5.88
-2.33
0.70
3.01
4.56
5.35
5.50
5.16
4.48
3.60
2.61
1.56
0.49
-0.56
-1.58
-2.56
-3.53
-4.51
-5.54
-6.59
-7.57
-8.37
-8.87
-9.03
-8.93
-8.76
-8.74
-9.08
-9.89
-11.15
-12.75
-14.55
-16.48
-18.50
-20.56
-22.55
-24.23
-25.29
-25.45
-24.51
-22.49
-19.56
-15.97
-12.02
-7.95
-3.98
-0.32
2.78
5.12
6.59
7.27
7.38
7.25
7.11
7.10
7.19
7.29
7.33
7.28
7.17
7.02
6.76
6.31
5.61
4.67
3.62
2.58
1.69
0.96
0.31
-0.41
-1.34
-2.60
-4.21
-6.14
-8.30
-10.62
-12.98
-15.24
-17.19
-18.56
-19.09
-18.60
-17.07
-14.65
-11.56
-8.07
-4.40
-0.75
2.68
5.67
8.00
9.56
10.33
10.48
10.24
9.84
9.40
8.92
8.37
7.68
6.88
6.01
5.16
4.42
3.85
3.45
3.18
2.96
2.62
1.99
0.95
-0.55
-2.42
-4.51
-6.61
-8.60
-10.46
-12.32
-14.39
-16.84
-19.70
-22.74
-25.52
-27.51
-28.26
-27.50
-25.26
-21.74
-17.29
-12.29
-7.10
-2.02
2.64
6.62
9.73
11.88
13.16
13.75
13.90
13.84
13.72
13.56
13.29
12.82
12.13
11.28
10.45
9.82
9.51
9.49
9.62
9.62
9.26
8.38
6.99
5.24
3.35
1.57
0.03
-1.27
-2.46
-3.76
-5.31
-7.16
-9.20
-11.22
-12.97
-14.26
-14.96
-14.99
-14.29
-12.77
-10.34
-6.97
-2.77
2.05
7.15
12.18
16.80
20.77
23.94
26.23
27.61
28.14
27.93
27.14
26.01
24.73
23.50
22.43
21.57
20.88
20.26
19.60
18.76
17.67
16.30
14.69
12.92
11.06
9.19
7.35
5.53
3.71
1.86
-0.09
-2.18
-4.42
-6.77
-9.19
-11.61
-13.95
-16.12
-17.97
-19.25
-19.68
-18.98
-16.99
-13.71
-9.38
-4.38
0.86
5.91
10.47
14.34
17.42
19.66
21.10
21.76
21.78
21.28
20.43
19.37
18.24
17.16
16.22
15.50
14.98
14.57
14.13
13.55
12.73
11.71
10.60
9.51
8.49
7.46
6.28
4.83
3.05
1.04
-1.04
-3.00
-4.74
-6.23
-7.53
-8.76
-10.05
-11.57
-13.49
-15.94
-18.94
-22.27
-25.50
-28.03
-29.29
-28.95
-27.04
-23.85
-19.81
-15.35
-10.74
-6.17
-1.81
2.10
5.32
7.63
9.01
9.61
9.70
9.58
9.46
9.42
9.47
9.58
9.75
10.04
10.49
11.10
11.83
12.51
12.95
12.93
12.30
10.98
9.04
6.68
4.21
1.97
0.24
-0.85
-1.40
-1.69
-2.11
-3.03
-4.65
-6.95
-9.69
-12.54
-15.23
-17.56
-19.49
-21.02
-22.17
-22.84
-22.85
-21.99
-20.20
-17.54
-14.23
-10.50
-6.52
-2.36
1.96
6.32
10.43
13.88
16.30
17.48
17.52
16.77
15.65
14.51
13.51
12.64
11.81
11.00
10.25
9.69
9.39
9.31
9.32
9.17
8.69
7.76
6.42
4.76
2.87
0.82
-1.40
-3.70
-5.92
-7.81
-9.19
-10.08
-10.76
-11.71
-13.37
-15.95
-19.27
-22.87
-26.13
-28.52
-29.69
-29.46
-27.82
-24.82
-20.71
-15.84
-10.72
-5.85
-1.54
2.16
5.44
8.54
11.62
14.58
17.18
19.11
20.21
20.47
20.04
19.17
18.10
17.06
16.22
15.70
15.55
15.73
16.04
16.23
16.06
15.38
14.20
12.67
11.00
9.39
7.92
6.57
5.21
3.67
1.84
-0.34
-2.85
-5.57
-8.36
-11.09
-13.70
-16.27
-19.00
-22.14
-25.79
-29.78
-33.63
-36.61
-38.04
-37.47
-34.87
-30.60
-25.23
-19.34
-13.36
-7.54
-2.02
3.07
7.62
11.53
14.77
17.38
19.41
20.89
21.78
22.04
21.65
20.72
19.50
18.26
17.26
16.66
16.46
16.54
16.73
16.78
16.48
15.66
14.28
12.45
10.38
8.35
6.58
5.15
4.06
3.19
2.42
1.64
0.71
-0.54
-2.26
-4.64
-7.66
-11.15
-14.72
-17.84
-20.02
-20.84
-20.04
-17.56
-13.55
-8.35
-2.46
3.51
8.98
13.53
16.93
19.15
20.31
20.53
19.88
18.44
16.24
13.36
9.96
6.28
2.59
-0.75
-3.48
-5.47
-6.77
-7.59
-8.18
-8.69
-9.10
-9.31
-9.18
-8.69
-7.99
-7.29
-6.80
-6.63
-6.77
-7.20
-7.93
-9.03
-10.48
-12.10
-13.58
-14.65
-15.22
-15.47
-15.77
-16.49
-17.77
-19.41
-20.95
-21.81
-21.54
-19.93
-17.14
-13.60
-9.87
-6.48
-3.75
-1.75
-0.27
0.99
2.32
3.86
5.56
7.29
8.92
10.33
11.39
12.00
12.05
11.56
10.70
9.80
9.27
9.35
10.07
11.21
12.39
13.31
13.76
13.77
13.48
13.02
12.46
11.75
10.79
9.50
7.86
5.90
3.69
1.23
-1.49
-4.47
-7.63
-10.79
-13.67
-15.98
-17.48
-18.09
-17.85
-16.88
-15.36
-13.39
-11.01
-8.22
-4.98
-1.27
2.83
7.11
11.26
14.93
17.78
19.54
20.12
19.57
18.15
16.22
14.24
12.64
11.72
11.62
12.24
13.36
14.61
15.56
15.86
15.20
13.53
10.99
7.98
5.05
2.67
1.12
0.36
0.13
0.04
-0.21
-0.84
-1.94
-3.52
-5.53
-7.87
-10.36
-12.80
-15.07
-17.17
-19.25
-21.48
-23.88
-26.28
-28.22
-29.17
-28.68
-26.56
-22.93
-18.17
-12.82
-7.43
-2.49
1.71
5.03
7.53
9.38
10.78
11.91
12.84
13.56
14.03
14.17
13.97
13.43
12.64
11.73
10.84
10.17
9.89
10.09
10.75
11.72
12.69
13.32
13.28
12.38
10.61
8.14
5.27
2.37
-0.25
-2.40
-4.00
-5.14
-5.98
-6.74
-7.59
-8.70
-10.09
-11.81
-13.87
-16.27
-18.96
-21.75
-24.33
-26.27
-27.14
-26.68
-24.81
-21.64
-17.38
-12.23
-6.37
-0.01
6.52
12.71
18.02
21.98
24.40
25.36
25.15
24.13
22.57
20.66
18.55
16.39
14.37
12.63
11.25
10.17
9.23
8.24
7.06
5.66
4.06
2.36
0.64
-1.04
-2.64
-4.14
-5.51
-6.69
-7.63
-8.31
-8.78
-9.15
-9.55
-10.10
-10.80
-11.63
-12.48
-13.32
-14.20
-15.26
-16.67
-18.59
-21.04
-23.81
-26.44
-28.29
-28.66
-27.10
-23.59
-18.62
-13.00
-7.58
-2.99
0.58
3.28
5.38
7.09
8.46
9.40
9.85
9.82
9.39
8.71
7.92
7.11
6.44
6.09
6.26
7.12
8.68
10.83
13.34
15.88
18.13
19.82
20.77
20.92
20.33
19.19
17.74
16.19
14.66
13.17
11.69
10.17
8.56
6.80
4.84
2.61
0.09
-2.68
-5.48
-8.03
-10.03
-11.24
-11.60
-11.12
-9.94
-8.22
-6.11
-3.79
-1.41
0.87
2.92
4.62
5.88
6.68
7.05
7.13
7.17
7.42
8.07
9.13
10.41
11.58
12.27
12.29
11.64
10.47
9.03
7.51
5.95
4.30
2.43
0.26
-2.23
-4.94
-7.75
-10.51
-13.11
-15.54
-17.90
-20.31
-22.94
-25.87
-29.01
-32.06
-34.63
-36.24
-36.61
-35.65
-33.49
-30.38
-26.57
-22.26
-17.60
-12.83
-8.29
-4.34
-1.27
0.84
2.14
2.88
3.32
3.60
3.75
3.78
3.72
3.67
3.72
3.94
4.31
4.79
5.30
5.80
6.25
6.58
6.72
6.58
6.10
5.28
4.18
2.92
1.59
0.23
-1.18
-2.72
-4.50
-6.57
-8.93
-11.47
-13.96
-16.11
-17.61
-18.17
-17.64
-15.96
-13.27
-9.80
-5.83
-1.66
2.43
6.18
9.38
11.85
13.52
14.43
14.71
14.54
14.09
13.46
12.69
11.79
10.76
9.63
8.44
7.20
5.94
4.72
3.67
2.93
2.58
2.58
2.69
2.58
1.91
0.55
-1.38
-3.54
-5.55
-7.19
-8.51
-9.80
-11.44
-13.75
-16.82
-20.50
-24.41
-27.98
-30.59
-31.63
-30.62
-27.39
-22.10
-15.30
-7.78
-0.34
6.40
12.10
16.70
20.23
22.75
24.29
24.89
24.67
23.80
22.54
21.13
19.71
18.35
17.05
15.81
14.62
13.49
12.43
11.42
10.47
9.54
8.60
7.63
6.63
5.63
4.64
3.66
2.67
1.59
0.35
-1.04
-2.56
-4.14
-5.73
-7.34
-8.99
-10.74
-12.64
-14.74
-17.09
-19.68
-22.36
-24.80
-26.50
-26.93
-25.72
-22.81
-18.51
-13.36
-7.91
-2.59
2.38
6.91
10.90
14.19
16.62
18.08
18.63
18.51
18.02
17.42
16.82
16.24
15.58
14.81
13.91
12.96
12.00
11.10
10.23
9.33
8.32
7.08
5.54
3.67
1.49
-0.95
-3.62
-6.50
-9.57
-12.64
-15.41
-17.40
-18.17
-17.44
-15.31
-12.19
-8.72
-5.53
-3.10
-1.73
-1.59
-2.74
-5.13
-8.52
-12.39
-16.04
-18.72
-19.83
-19.09
-16.60
-12.70
-7.88
-2.61
2.68
7.65
12.07
15.80
18.80
21.09
22.71
23.67
23.98
23.71
23.00
22.10
21.32
20.85
20.72
20.79
20.80
20.57
20.06
19.37
18.64
17.93
17.14
16.12
14.75
12.99
10.91
8.66
6.31
3.90
1.41
-1.12
-3.58
-5.90
-8.03
-10.05
-12.11
-14.39
-16.96
-19.76
-22.64
-25.45
-28.11
-30.69
-33.39
-36.38
-39.77
-43.43
-46.98
-49.86
-51.46
-51.30
-49.15
-45.09
-39.42
-32.57
-24.95
-16.92
-8.75
-0.66
7.15
14.45
21.05
26.77
31.50
35.15
37.75
39.33
40.02
39.95
39.31
38.31
37.11
35.89
34.79
33.87
33.12
32.42
31.59
30.48
29.03
27.34
25.59
23.93
22.38
20.82
19.07
17.00
14.62
12.09
9.56
7.11
4.70
2.27
-0.19
-2.56
-4.67
-6.43
-7.89
-9.30
-11.01
-13.30
-16.26
-19.71
-23.25
-26.33
-28.41
-29.07
-28.17
-25.80
-22.28
-18.04
-13.48
-8.95
-4.67
-0.79
2.56
5.31
7.39
8.80
9.55
9.71
9.42
8.86
8.22
7.66
7.25
6.92
6.55
6.04
5.37
4.63
4.03
3.79
4.13
5.20
7.05
9.60
12.57
15.59
18.20
20.05
20.93
20.80
19.73
17.81
15.14
11.89
8.30
4.76
1.61
-0.89
-2.79
-4.31
-5.76
-7.34
-9.08
-10.80
-12.33
-13.54
-14.42
-15.03
-15.37
-15.34
-14.75
-13.46
-11.45
-8.87
-5.97
-2.99
-0.13
2.47
4.72
6.51
7.78
8.48
8.70
8.60
8.35
8.09
7.88
7.73
7.63
7.58
7.59
7.66
7.74
7.79
7.80
7.78
7.75
7.72
7.61
7.27
6.58
5.51
4.15
2.68
1.33
0.20
-0.73
-1.63
-2.70
-4.10
-5.82
-7.74
-9.68
-11.50
-13.15
-14.68
-16.23
-17.93
-19.81
-21.85
-23.91
-25.85
-27.45
-28.52
-28.80
-28.06
-26.18
-23.16
-19.26
-14.86
-10.36
-6.08
-2.19
1.23
4.13
6.44
8.11
9.14
9.66
9.92
10.13
10.42
10.74
10.91
10.81
10.38
9.72
9.06
8.62
8.53
8.82
9.38
10.01
10.53
10.77
10.63
10.08
9.17
7.99
6.63
5.17
3.64
2.09
0.56
-0.89
-2.22
-3.44
-4.66
-5.95
-7.38
-8.90
-10.36
-11.57
-12.42
-12.97
-13.44
-14.15
-15.37
-17.22
-19.53
-21.97
-24.05
-25.27
-25.26
-23.86
-21.14
-17.37
-12.97
-8.36
-3.86
0.31
4.06
7.29
9.89
11.72
12.75
13.02
12.73
12.13
11.43
10.79
10.24
9.81
9.53
9.44
9.54
9.78
9.99
10.02
9.77
9.29
8.71
8.24
7.97
7.84
7.68
7.21
6.27
4.84
3.10
1.29
-0.32
-1.62
-2.62
-3.47
-4.35
-5.40
-6.63
-7.97
-9.31
-10.58
-11.80
-13.09
-14.62
-16.47
-18.56
-20.72
-22.68
-24.16
-24.97
-24.97
-24.02
-22.05
-19.02
-15.06
-10.44
-5.58
-0.93
3.14
6.43
8.90
10.64
11.80
12.59
13.16
13.63
14.05
14.39
14.57
14.57
14.37
14.03
13.62
13.21
12.85
12.57
12.37
12.22
12.06
11.80
11.33
10.59
9.61
8.47
7.31
6.22
5.20
4.17
3.04
1.73
0.26
-1.28
-2.76
-4.12
-5.35
-6.48
-7.56
-8.61
-9.63
-10.63
-11.71
-12.99
-14.56
-16.44
-18.47
-20.40
-21.91
-22.71
-22.55
-21.30
-18.97
-15.69
-11.76
-7.59
-3.56
0.07
3.24
6.02
8.51
10.71
12.53
13.82
14.52
14.66
14.41
13.94
13.41
12.89
12.44
12.10
11.91
11.90
12.02
12.21
12.34
12.35
12.22
11.97
11.59
11.03
10.23
9.14
7.80
6.31
4.80
3.40
2.16
1.00
-0.19
-1.51
-3.02
-4.68
-6.41
-8.14
-9.82
-11.43
-12.92
-14.23
-15.38
-16.44
-17.62
-19.14
-21.05
-23.21
-25.16
-26.39
-26.42
-25.06
-22.41
-18.80
-14.64
-10.26
-5.92
-1.77
2.03
5.34
8.03
10.03
11.40
12.27
12.79
13.04
13.08
12.90
12.52
12.02
11.55
11.24
11.14
11.21
11.31
11.29
11.08
10.69
10.19
9.61
8.93
8.03
6.85
5.40
3.77
2.13
0.63
-0.65
-1.71
-2.66
-3.59
-4.62
-5.81
-7.20
-8.77
-10.45
-12.15
-13.77
-15.26
-16.66
-18.06
-19.57
-21.26
-23.13
-25.08
-26.91
-28.31
-28.87
-28.17
-25.92
-22.09
-16.98
-11.18
-5.39
-0.22
4.03
7.32
9.82
11.76
13.29
14.42
15.13
15.40
15.24
14.72
13.94
12.98
11.93
10.94
10.19
9.89
10.15
10.94
12.03
13.11
13.89
14.20
14.10
13.80
13.53
13.42
13.44
13.37
12.96
12.04
10.57
8.66
6.53
4.35
2.26
0.33
-1.40
-2.91
-4.17
-5.20
-6.11
-7.10
-8.39
-10.20
-12.60
-15.51
-18.69
-21.79
-24.37
-26.02
-26.40
-25.32
-22.84
-19.24
-14.96
-10.45
-6.11
-2.16
1.28
4.22
6.65
8.62
10.18
11.41
12.40
13.19
13.78
14.14
14.23
14.06
13.70
13.23
12.74
12.34
12.13
12.17
12.45
12.87
13.22
13.25
12.78
11.74
10.24
8.49
6.76
5.23
4.02
3.09
2.36
1.66
0.86
-0.16
-1.44
-2.88
-4.36
-5.73
-6.92
-7.98
-9.06
-10.36
-12.04
-14.17
-16.61
-19.11
-21.32
-22.85
-23.40
-22.79
-21.00
-18.17
-14.58
-10.56
-6.50
-2.69
0.65
3.41
5.62
7.36
8.72
9.75
10.41
10.63
10.40
9.79
8.98
8.24
7.78
7.72
8.02
8.57
9.20
9.82
10.36
10.79
11.01
10.85
10.17
8.90
7.15
5.18
3.34
1.86
0.81
0.07
-0.61
-1.45
-2.59
-3.96
-5.43
-6.83
-8.04
-9.08
-10.00
-10.97
-12.16
-13.71
-15.71
-18.11
-20.78
-23.41
-25.64
-27.04
-27.22
-25.97
-23.27
-19.36
-14.66
-9.64
-4.74
-0.25
3.64
6.90
9.55
11.62
13.17
14.25
14.96
15.41
15.69
15.92
16.18
16.52
16.95
17.40
17.81
18.17
18.49
18.83
19.26
19.78
20.29
20.62
20.59
20.11
19.20
17.99
16.67
15.44
14.38
13.48
12.62
11.69
10.58
9.27
7.73
6.00
4.11
2.08
-0.12
-2.54
-5.26
-8.36
-11.87
-15.68
-19.53
-23.02
-25.69
-27.13
-27.08
-25.55
-22.81
-19.35
-15.73
-12.45
-9.82
-7.92
-6.66
-5.86
-5.39
-5.13
-5.02
-4.87
-4.43
-3.40
-1.52
1.27
4.82
8.77
12.68
16.09
18.69
20.26
20.75
20.24
18.90
17.01
14.85
12.73
10.84
9.25
7.85
6.44
4.77
2.70
0.29
-2.25
-4.59
-6.42
-7.56
-8.01
-7.97
-7.71
-7.56
-7.79
-8.58
-9.98
-11.92
-14.23
-16.64
-18.87
-20.52
-21.27
-20.80
-19.00
-15.94
-11.90
-7.35
-2.72
1.62
5.50
8.89
11.85
14.39
16.41
17.76
18.28
17.92
16.83
15.29
13.66
12.21
11.07
10.20
9.52
8.97
8.53
8.21
7.97
7.69
7.23
6.45
5.33
3.96
2.48
1.05
-0.24
-1.34
-2.28
-3.11
-3.91
-4.75
-5.70
-6.75
-7.89
-9.00
-9.98
-10.76
-11.31
-11.71
-12.13
-12.77
-13.76
-15.16
-16.81
-18.45
-19.69
-20.15
-19.54
-17.71
-14.64
-10.51
-5.60
-0.31
4.91
9.65
13.59
16.54
18.51
19.61
19.98
19.75
18.97
17.64
15.76
13.42
10.74
7.90
5.07
2.42
0.05
-1.93
-3.45
-4.42
-4.82
-4.68
-4.06
-3.09
-1.85
-0.43
1.14
2.74
4.23
5.43
6.16
6.31
5.90
5.04
3.91
2.72
1.60
0.62
-0.19
-0.89
-1.56
-2.31
-3.30
-4.65
-6.41
-8.49
-10.64
-12.47
-13.61
-13.77
-12.90
-11.07
-8.49
-5.37
-1.88
1.82
5.52
8.96
11.78
13.69
14.58
14.55
13.87
12.91
11.97
11.23
10.70
10.27
9.82
9.26
8.60
7.97
7.55
7.47
7.76
8.31
8.95
9.52
9.93
10.20
10.33
10.31
10.07
9.55
8.72
7.59
6.27
4.83
3.36
1.93
0.61
-0.53
-1.48
-2.28
-3.04
-3.92
-5.03
-6.46
-8.22
-10.27
-12.50
-14.77
-16.90
-18.67
-19.94
-20.62
-20.73
-20.33
-19.46
-18.12
-16.29
-13.99
-11.30
-8.36
-5.37
-2.52
0.05
2.22
3.91
5.10
5.81
6.12
6.15
6.08
6.09
6.37
7.02
8.04
9.32
10.62
11.69
12.31
12.37
11.86
10.87
9.55
8.03
6.44
4.81
3.14
1.35
-0.64
-2.92
-5.47
-8.19
-10.91
-13.42
-15.59
-17.34
-18.67
-19.62
-20.18
-20.32
-20.00
-19.21
-17.92
-16.11
-13.71
-10.64
-6.90
-2.62
1.87
6.16
9.80
12.50
14.18
14.94
15.01
14.66
14.09
13.45
12.83
12.32
11.93
11.61
11.27
10.76
9.97
8.88
7.56
6.15
4.81
3.65
2.69
1.84
0.98
0.01
-1.09
-2.29
-3.51
-4.70
-5.89
-7.11
-8.42
-9.81
-11.19
-12.45
-13.51
-14.38
-15.15
-16.00
-17.07
-18.38
-19.80
-21.05
-21.76
-21.58
-20.29
-17.86
-14.47
-10.42
-6.08
-1.77
2.21
5.63
8.34
10.26
11.48
12.17
12.53
12.70
12.72
12.57
12.21
11.70
11.13
10.64
10.30
10.06
9.83
9.46
8.91
8.20
7.45
6.75
6.13
5.52
4.75
3.68
2.26
0.56
-1.18
-2.72
-3.89
-4.65
-5.17
-5.71
-6.54
-7.81
-9.51
-11.50
-13.53
-15.32
-16.63
-17.26
-17.08
-16.00
-14.00
-11.15
-7.64
-3.76
0.09
3.56
6.42
8.58
10.09
11.02
11.37
11.08
10.08
8.39
6.19
3.83
1.66
-0.03
-1.14
-1.73
-2.01
-2.23
-2.56
-3.07
-3.70
-4.26
-4.56
-4.41
-3.71
-2.47
-0.80
1.15
3.23
5.28
7.16
8.74
9.88
10.55
10.75
10.60
10.25
9.83
9.44
9.12
8.86
8.69
8.64
8.79
9.17
9.82
10.71
11.70
12.63
13.35
13.76
13.88
13.84
13.80
13.92
14.26
14.78
15.41
16.05
16.65
17.20
17.70
18.18
18.68
19.25
19.95
20.78
21.69
22.45
22.74
22.16
20.27
16.77
11.55
4.87
-2.68
-10.23
-16.92
-22.12
-25.61
-27.66
-28.83
-29.75
-30.88
-32.34
-33.94
-35.33
-36.13
-36.11
-35.15
-33.27
-30.61
-27.34
-23.72
-20.03
-16.62
-13.75
-11.58
-10.10
-9.18
-8.62
-8.25
-7.96
-7.67
-7.36
-6.99
-6.53
-6.03
-5.53
-5.12
-4.83
-4.64
-4.48
-4.30
-4.08
-3.83
-3.61
-3.44
-3.37
-3.45
-3.74
-4.30
-5.13
-6.12
-7.10
-7.94
-8.57
-9.09
-9.67
-10.48
-11.58
-12.93
-14.37
-15.69
-16.66
-17.08
-16.76
-15.59
-13.55
-10.81
-7.63
-4.38
-1.37
1.14
3.06
4.34
4.99
5.10
4.75
4.07
3.23
2.37
1.67
1.24
1.16
1.49
2.19
3.20
4.41
5.70
6.95
8.07
9.02
9.79
10.37
10.75
10.95
10.97
10.82
10.48
9.90
9.04
7.87
6.41
4.76
3.03
1.31
-0.31
-1.84
-3.33
-4.89
-6.66
-8.76
-11.21
-13.86
-16.39
-18.37
-19.39
-19.20
-17.75
-15.21
-11.90
-8.17
-4.31
-0.53
3.02
6.24
9.03
11.29
12.93
13.91
14.25
14.07
13.54
12.87
12.22
11.70
11.33
11.08
10.94
10.84
10.77
10.72
10.67
10.67
10.70
10.71
10.57
10.14
9.33
8.21
6.99
5.93
5.20
4.76
4.34
3.64
2.42
0.66
-1.49
-3.79
-6.06
-8.19
-10.22
-12.18
-14.10
-15.98
-17.79
-19.47
-20.96
-22.13
-22.77
-22.62
-21.42
-19.07
-15.66
-11.51
-7.07
-2.77
1.07
4.35
7.09
9.39
11.30
12.79
13.82
14.35
14.44
14.20
13.76
13.25
12.74
12.28
11.86
11.46
10.98
10.37
9.59
8.75
8.00
7.57
7.57
7.90
8.28
8.33
7.76
6.56
5.01
3.47
2.29
1.56
1.17
0.86
0.40
-0.36
-1.41
-2.69
-4.11
-5.56
-6.94
-8.10
-8.95
-9.43
-9.64
-9.76
-10.06
-10.75
-11.97
-13.60
-15.32
-16.64
-17.02
-16.07
-13.64
-9.93
-5.38
-0.55
4.06
8.12
11.48
14.12
16.05
17.29
17.85
17.78
17.20
16.29
15.22
14.15
13.17
12.29
11.47
10.70
10.04
9.59
9.45
9.64
10.07
10.52
10.76
10.57
9.88
8.76
7.42
6.10
4.99
4.20
3.72
3.44
3.23
2.92
2.38
1.49
0.22
-1.40
-3.26
-5.20
-7.04
-8.60
-9.83
-10.74
-11.49
-12.28
-13.27
-14.52
-15.94
-17.29
-18.27
-18.63
-18.17
-16.85
-14.71
-11.87
-8.52
-4.88
-1.24
2.11
4.91
7.02
8.44
9.31
9.81
10.10
10.26
10.27
10.09
9.69
9.08
8.37
7.69
7.17
6.92
6.99
7.34
7.91
8.56
9.15
9.52
9.59
9.30
8.68
7.81
6.82
5.84
4.93
4.12
3.40
2.71
2.01
1.27
0.51
-0.26
-1.03
-1.82
-2.64
-3.51
-4.44
-5.43
-6.49
-7.66
-9.00
-10.51
-12.12
-13.65
-14.81
-15.33
-14.98
-13.72
-11.66
-9.04
-6.13
-3.17
-0.35
2.19
4.26
5.73
6.51
6.61
6.21
5.60
5.05
4.71
4.62
4.66
4.70
4.67
4.55
4.40
4.29
4.29
4.43
4.68
4.98
5.20
5.18
4.80
4.02
2.90
1.61
0.28
-0.96
-2.10
-3.16
-4.15
-5.07
-5.90
-6.63
-7.33
-8.09
-9.00
-10.13
-11.47
-12.96
-14.45
-15.76
-16.66
-16.91
-16.31
-14.77
-12.37
-9.34
-6.01
-2.73
0.22
2.65
4.47
5.70
6.40
6.69
6.68
6.45
6.04
5.47
4.81
4.15
3.66
3.48
3.64
4.02
4.45
4.70
4.70
4.47
4.13
3.77
3.42
2.98
2.35
1.45
0.31
-1.02
-2.45
-3.92
-5.39
-6.82
-8.15
-9.31
-10.27
-11.04
-11.75
-12.58
-13.67
-15.05
-16.57
-17.96
-18.84
-18.88
-17.84
-15.70
-12.63
-8.95
-5.11
-1.53
1.48
3.76
5.41
6.64
7.69
8.69
9.63
10.37
10.77
10.77
10.46
10.02
9.61
9.34
9.22
9.21
9.24
9.22
9.09
8.76
8.20
7.41
6.44
5.40
4.35
3.31
2.23
1.08
-0.18
-1.52
-2.92
-4.41
-6.04
-7.85
-9.82
-11.84
-13.73
-15.41
-16.95
-18.53
-20.34
-22.43
-24.54
-26.21
-26.91
-26.28
-24.28
-21.17
-17.38
-13.29
-9.16
-5.11
-1.24
2.35
5.52
8.11
10.06
11.42
12.33
12.92
13.33
13.59
13.73
13.80
13.87
14.02
14.34
14.81
15.36
15.85
16.12
16.02
15.50
14.59
13.41
12.15
10.94
9.86
8.88
7.91
6.83
5.52
3.95
2.14
0.17
-1.85
-3.79
-5.56
-7.08
-8.33
-9.40
-10.46
-11.78
-13.63
-16.22
-19.50
-23.16
-26.66
-29.27
-30.34
-29.45
-26.57
-22.04
-16.48
-10.58
-4.94
0.07
4.29
7.73
10.47
12.58
14.08
15.00
15.35
15.22
14.77
14.17
13.58
13.08
12.68
12.32
11.94
11.51
11.04
10.55
10.05
9.55
9.01
8.43
7.80
7.16
6.56
6.03
5.61
5.26
4.91
4.41
3.64
2.52
1.09
-0.49
-2.02
-3.32
-4.34
-5.16
-5.95
-6.88
-8.09
-9.63
-11.48
-13.53
-15.62
-17.51
-18.91
-19.51
-19.04
-17.35
-14.50
-10.73
-6.40
-1.88
2.49
6.53
10.13
13.21
15.70
17.50
18.57
18.99
18.98
18.82
18.78
19.03
19.57
20.26
20.89
21.21
21.05
20.35
19.17
17.66
15.96
14.19
12.40
10.60
8.84
7.18
5.75
4.64
3.81
3.17
2.50
1.62
0.46
-0.92
-2.38
-3.74
-4.88
-5.82
-6.64
-7.50
-8.55
-9.87
-11.48
-13.30
-15.25
-17.17
-18.86
-20.06
-20.51
-19.95
-18.26
-15.53
-11.98
-7.99
-3.96
-0.21
3.03
5.62
7.52
8.75
9.37
9.54
9.42
9.16
8.86
8.56
8.23
7.86
7.44
7.01
6.66
6.45
6.44
6.61
6.90
7.19
7.34
7.23
6.80
6.03
4.97
3.72
2.38
1.10
-0.05
-1.04
-1.92
-2.85
-3.95
-5.26
-6.72
-8.15
-9.42
-10.52
-11.60
-12.93
-14.71
-16.92
-19.30
-21.38
-22.67
-22.80
-21.68
-19.41
-16.30
-12.69
-8.87
-5.09
-1.50
1.76
4.59
6.87
8.55
9.61
10.15
10.33
10.36
10.39
10.55
10.92
11.55
12.44
13.53
14.65
15.57
16.05
15.94
15.17
13.88
12.25
10.53
8.86
7.37
6.05
4.93
4.00
3.22
2.51
1.73
0.71
-0.65
-2.38
-4.37
-6.41
-8.31
-9.93
-11.26
-12.39
-13.52
-14.83
-16.46
-18.45
-20.70
-22.95
-24.77
-25.71
-25.36
-23.56
-20.43
-16.39
-11.94
-7.56
-3.56
-0.05
2.99
5.59
7.80
9.60
10.99
11.99
12.67
13.07
13.25
13.25
13.13
12.98
12.89
12.92
13.06
13.19
13.18
12.93
12.44
11.80
11.13
10.56
10.10
9.73
9.28
8.63
7.67
6.41
4.92
3.35
1.85
0.48
-0.76
-1.92
-3.07
-4.23
-5.38
-6.50
-7.59
-8.72
-10.05
-11.70
-13.74
-16.04
-18.31
-20.18
-21.31
-21.49
-20.68
-19.02
-16.64
-13.68
-10.24
-6.45
-2.56
1.11
4.25
6.67
8.41
9.67
10.67
11.52
12.20
12.58
12.60
12.29
11.80
11.35
11.07
11.01
11.11
11.25
11.32
11.28
11.11
10.83
10.45
9.94
9.27
8.44
7.51
6.58
5.73
5.04
4.49
3.97
3.34
2.48
1.31
-0.12
-1.71
-3.33
-4.87
-6.26
-7.52
-8.73
-9.98
-11.36
-12.94
-14.74
-16.68
-18.62
-20.34
-21.58
-22.07
-21.63
-20.17
-17.75
-14.54
-10.78
-6.77
-2.82
0.80
3.86
6.20
7.78
8.74
9.27
9.57
9.79
9.92
9.90
9.70
9.36
9.04
8.95
9.19
9.72
10.34
10.78
10.89
10.68
10.29
9.85
9.41
8.90
8.24
7.38
6.43
5.55
4.88
4.45
4.17
3.83
3.24
2.32
1.10
-0.31
-1.78
-3.20
-4.53
-5.82
-7.16
-8.68
-10.51
-12.67
-15.05
-17.46
-19.61
-21.26
-22.22
-22.41
-21.81
-20.40
-18.20
-15.28
-11.81
-8.07
-4.45
-1.30
1.19
3.04
4.41
5.54
6.58
7.55
8.39
9.01
9.46
9.84
10.32
11.03
11.93
12.87
13.58
13.84
13.59
12.91
12.05
11.22
10.57
10.10
9.69
9.19
8.54
7.77
7.00
6.33
5.78
5.26
4.61
3.70
2.48
1.05
-0.47
-1.95
-3.35
-4.70
-6.08
-7.54
-9.11
-10.77
-12.52
-14.38
-16.28
-18.10
-19.55
-20.31
-20.09
-18.81
-16.56
-13.62
-10.28
-6.81
-3.38
-0.10
2.96
5.72
8.12
10.12
11.66
12.73
13.28
13.36
13.06
12.60
12.18
11.99
12.07
12.36
12.72
13.00
13.14
13.15
13.07
12.95
12.74
12.34
11.68
10.74
9.56
8.23
6.85
5.51
4.26
3.10
1.98
0.80
-0.51
-1.97
-3.48
-4.84
-5.88
-6.56
-7.02
-7.56
-8.49
-10.00
-12.02
-14.35
-16.64
-18.60
-19.99
-20.63
-20.43
-19.33
-17.42
-14.88
-12.01
-9.07
-6.21
-3.50
-0.93
1.47
3.59
5.26
6.34
6.82
6.80
6.46
6.01
5.58
5.26
5.07
5.07
5.25
5.52
5.73
5.70
5.31
4.61
3.72
2.83
2.05
1.35
0.61
-0.36
-1.64
-3.20
-4.92
-6.60
-8.10
-9.41
-10.59
-11.80
-13.17
-14.77
-16.55
-18.40
-20.20
-21.90
-23.56
-25.28
-27.15
-29.14
-31.12
-32.87
-34.12
-34.61
-34.13
-32.51
-29.65
-25.58
-20.48
-14.72
-8.78
-3.20
1.60
5.33
7.92
9.53
10.43
10.94
11.38
11.97
12.79
13.80
14.89
15.92
16.79
17.46
17.96
18.36
18.75
19.19
19.75
20.44
21.21
21.93
22.42
22.49
22.03
21.02
19.52
17.66
15.51
13.11
10.46
7.63
4.77
2.09
-0.19
-1.96
-3.24
-4.18
-5.00
-5.92
-7.10
-8.58
-10.28
-11.98
-13.37
-14.10
-13.90
-12.67
-10.52
-7.71
-4.61
-1.52
1.30
3.68
5.53
6.80
7.51
7.74
7.65
7.43
7.25
7.22
7.38
7.73
8.28
9.03
10.02
11.24
12.65
14.11
15.42
16.37
16.76
16.50
15.57
14.07
12.12
9.90
7.59
5.35
3.31
1.53
-0.01
-1.43
-2.87
-4.41
-6.05
-7.65
-9.09
-10.28
-11.24
-12.08
-12.95
-13.99
-15.21
-16.54
-17.81
-18.78
-19.18
-18.74
-17.27
-14.70
-11.13
-6.85
-2.28
2.12
6.02
9.25
11.82
13.80
15.30
16.28
16.66
16.30
15.22
13.59
11.66
9.75
8.03
6.57
5.29
4.13
3.02
2.00
1.12
0.42
-0.10
-0.51
-0.85
-1.12
-1.28
-1.24
-0.94
-0.43
0.15
0.59
0.67
0.26
-0.61
-1.78
-3.03
-4.15
-5.06
-5.84
-6.70
-7.87
-9.57
-11.86
-14.63
-17.59
-20.34
-22.42
-23.47
-23.29
-21.90
-19.50
-16.43
-13.01
-9.51
-6.08
-2.81
0.24
3.00
5.35
7.23
8.65
9.67
10.47
11.18
11.91
12.66
13.38
14.01
14.56
15.08
15.66
16.34
17.07
17.71
18.07
18.03
17.57
16.83
16.00
15.17
14.38
13.50
12.43
11.11
9.58
7.93
6.21
4.43
2.56
0.59
-1.42
-3.34
-5.09
-6.63
-8.11
-9.75
-11.78
-14.26
-17.03
-19.78
-22.06
-23.46
-23.70
-22.69
-20.51
-17.42
-13.75
-9.83
-6.00
-2.55
0.34
2.59
4.18
5.19
5.74
5.98
6.05
6.09
6.22
6.47
6.80
7.11
7.27
7.23
7.03
6.76
6.50
6.29
6.05
5.69
5.11
4.32
3.39
2.47
1.65
0.92
0.23
-0.54
-1.42
-2.35
-3.15
-3.62
-3.67
-3.30
-2.72
-2.26
-2.27
-3.03
-4.70
-7.19
-10.21
-13.29
-15.86
-17.38
-17.57
-16.46
-14.42
-12.03
-9.83
-8.11
-6.82
-5.65
-4.19
-2.14
0.48
3.41
6.18
8.35
9.63
10.01
9.66
8.85
7.84
6.83
5.97
5.41
5.30
5.71
6.61
7.79
8.90
9.57
9.54
8.68
7.05
4.79
2.18
-0.48
-2.89
-4.81
-6.12
-6.90
-7.41
-7.99
-8.92
-10.27
-11.89
-13.52
-14.90
-15.86
-16.40
-16.58
-16.56
-16.51
-16.61
-17.01
-17.70
-18.51
-19.09
-18.96
-17.79
-15.44
-12.11
-8.17
-3.99
0.20
4.27
8.08
11.32
13.62
14.76
14.87
14.45
14.15
14.50
15.63
17.24
18.86
20.05
20.66
20.80
20.64
20.31
19.86
19.37
18.91
18.54
18.14
17.41
16.00
13.69
10.55
6.87
3.08
-0.55
-3.89
-6.99
-9.87
-12.46
-14.60
-16.18
-17.33
-18.38
-19.78
-21.90
-24.83
-28.34
-31.92
-34.91
-36.69
-36.82
-35.12
-31.73
-26.97
-21.29
-15.14
-8.89
-2.84
2.77
7.71
11.85
15.12
17.57
19.37
20.71
21.72
22.45
22.86
22.88
22.52
21.85
21.01
20.19
19.48
18.95
18.56
18.22
17.81
17.23
16.42
15.41
14.33
13.32
12.51
11.85
11.18
10.21
8.66
6.39
3.48
0.23
-2.92
-5.56
-7.41
-8.43
-8.79
-8.82
-8.94
-9.50
-10.73
-12.62
-15.00
-17.48
-19.64
-21.09
-21.63
-21.25
-20.10
-18.39
-16.38
-14.22
-12.02
-9.89
-7.93
-6.25
-4.92
-3.93
-3.12
-2.26
-1.17
0.25
1.87
3.39
4.43
4.72
4.16
2.89
1.23
-0.52
-2.08
-3.32
-4.25
-5.01
-5.81
-6.89
-8.37
-10.13
-11.88
-13.22
-13.94
-14.15
-14.25
-14.76
-15.96
-17.71
-19.48
-20.63
-20.74
-19.81
-18.29
-16.79
-15.88
-15.86
-16.69
-18.14
-19.85
-21.42
-22.50
-22.75
-21.88
-19.64
-15.90
-10.65
-4.08
3.40
11.16
18.50
24.69
29.16
31.62
32.15
31.10
29.05
26.54
23.99
21.56
19.22
16.85
14.40
11.94
9.63
7.64
6.01
4.57
3.04
1.16
-1.20
-3.93
-6.76
-9.38
-11.64
-13.52
-15.14
-16.60
-17.87
-18.93
-19.90
-20.99
-22.30
-23.53
-23.68
-21.56
-16.41
-8.52
0.42
7.72
10.59
7.35
-1.96
-15.53
-30.59
-44.38
-54.64
-60.09
-60.38
-55.78
-46.95
-34.89
-20.67
-5.72
8.45
21.21
32.46
42.51
51.78
60.78
69.62
78.56
87.30
94.97
101.83
108.14
113.56
117.06
117.59
114.14
107.59
99.31
90.45
83.74
81.09
82.32
85.36
87.68
86.89
83.82
80.28
77.89
80.47
90.93
109.58
134.04
160.90
186.07
208.97
229.76
231.14
202.03
143.50
69.24
-3.72
-55.64
-89.81
-111.51
-124.83
-132.44
-135.71
-134.05
-128.06
-120.24
-113.68
-111.87
-114.61
-120.62
-128.55
-135.01
-136.82
-132.78
-123.94
-112.49
-101.47
-91.51
-82.74
-75.36
-68.37
-60.73
-52.41
-44.44
-38.17
-35.15
-35.17
-37.54
-41.57
-46.00
-49.56
-51.63
-52.32
-52.14
-52.00
-52.15
-52.65
-53.49
-54.25
-54.27
-53.03
-50.31
-46.19
-41.07
-35.17
-28.60
-21.31
-13.08
-3.65
7.15
19.24
32.34
45.96
59.47
72.05
82.71
90.41
94.34
94.25
90.62
84.61
77.71
71.28
66.13
62.43
59.79
57.55
55.09
52.02
48.30
44.21
40.32
37.27
35.56
35.31
36.19
37.46
38.21
37.72
35.61
32.09
27.83
23.70
20.47
18.54
17.75
17.45
16.72
14.61
10.47
4.07
-4.33
-14.03
-24.08
-33.42
-41.09
-46.49
-49.44
-50.25
-49.59
-48.17
-46.58
-45.14
-44.00
-43.29
-43.19
-43.98
-45.82
-48.65
-52.14
-55.74
-58.88
-61.19
-62.54
-63.06
-63.00
-62.63
-62.19
-61.79
-61.52
-61.40
-61.45
-61.67
-62.05
-62.58
-63.18
-63.73
-64.00
-63.72
-62.64
-60.50
-57.11
-52.37
-46.31
-39.08
-30.97
-22.30
-13.37
-4.30
4.90
14.38
24.27
34.57
45.10
55.47
65.18
73.74
80.79
86.15
89.84
91.95
92.63
91.97
89.99
86.68
82.07
76.25
69.44
61.95
54.13
46.31
38.77
31.65
25.01
18.84
13.03
7.48
2.04
-3.39
-8.86
-14.32
-19.63
-24.62
-29.13
-33.08
-36.48
-39.46
-42.19
-44.83
-47.46
-49.99
-52.15
-53.58
-53.81
-52.47
-49.36
-44.57
-38.46
-31.51
-24.22
-16.94
-9.83
-2.96
3.61
9.73
15.18
19.77
23.41
26.16
28.17
29.60
30.58
31.19
31.41
31.17
30.28
28.49
25.57
21.47
16.43
10.98
5.75
1.24
-2.38
-5.26
-7.72
-9.99
-12.14
-14.03
-15.54
-16.67
-17.60
-18.60
-19.89
-21.48
-23.18
-24.63
-25.41
-25.15
-23.54
-20.41
-15.70
-9.56
-2.29
5.62
13.63
21.22
27.99
33.68
38.22
41.60
43.89
45.13
45.38
44.71
43.27
41.23
38.77
36.08
33.25
30.31
27.16
23.63
19.56
14.82
9.44
3.54
-2.57
-8.44
-13.46
-17.07
-18.82
-18.59
-16.55
-13.24
-9.38
-5.69
-2.60
-0.26
1.46
2.77
3.86
5.04
6.43
8.01
9.66
11.29
12.92
14.65
16.64
19.10
22.48
26.97
32.46
38.48
44.45
49.87
54.22
57.08
58.04
57.20
54.59
50.23
44.22
36.85
28.74
20.43
12.28
2.53
-8.90
-20.88
-31.85
-40.95
-48.81
-55.87
-62.44
-67.87
-71.82
-73.84
-74.01
-72.76
-70.69
-68.18
-65.24
-61.75
-57.61
-53.03
-48.17
-43.47
-39.48
-36.55
-34.62
-33.14
-31.56
-29.52
-27.11
-24.45
-21.75
-19.15
-16.59
-13.81
-10.44
-6.13
-0.58
6.43
15.09
25.42
37.02
49.13
60.71
70.76
78.45
83.37
85.48
85.14
82.85
79.13
74.44
69.19
63.70
58.26
53.00
47.94
42.94
37.76
32.15
25.93
19.12
11.95
4.86
-1.67
-7.24
-11.66
-15.05
-17.75
-20.18
-22.66
-25.34
-28.17
-30.99
-33.74
-36.47
-39.34
-42.50
-45.95
-49.52
-52.96
-56.07
-58.75
-61.04
-63.04
-64.82
-66.39
-67.63
-68.42
-68.54
-67.74
-65.67
-61.94
-56.24
-48.48
-38.91
-28.10
-16.83
-5.90
4.01
12.50
19.36
24.58
28.26
30.55
31.64
31.81
31.33
30.53
29.66
28.88
28.26
27.79
27.43
27.12
26.80
26.45
25.99
25.36
24.50
23.37
21.96
20.28
18.35
16.20
13.88
11.49
9.16
7.06
5.28
3.78
2.44
1.05
-0.50
-2.22
-3.96
-5.54
-6.84
-7.87
-8.77
-9.78
-11.09
-12.85
-14.99
-17.35
-19.58
-21.28
-22.02
-21.52
-19.65
-16.55
-12.51
-7.95
-3.26
1.25
5.38
9.01
12.08
14.52
16.31
17.50
18.18
18.55
18.77
18.97
19.25
19.65
20.19
20.85
21.60
22.35
22.98
23.35
23.31
22.73
21.52
19.64
17.16
14.25
11.15
8.11
5.28
2.62
-0.08
-3.07
-6.51
-10.34
-14.29
-18.07
-21.46
-24.39
-26.94
-29.23
-31.34
-33.32
-35.24
-37.20
-39.35
-41.73
-44.19
-46.36
-47.66
-47.58
-45.81
-42.37
-37.65
-32.20
-26.60
-21.26
-16.36
-11.88
-7.74
-3.88
-0.36
2.64
4.93
6.33
6.81
6.45
5.45
4.08
2.59
1.19
-0.00
-0.95
-1.66
-2.15
-2.52
-2.86
-3.29
-3.91
-4.71
-5.50
-6.02
-5.98
-5.27
-3.99
-2.43
-0.94
0.28
1.19
1.92
2.61
3.32
4.02
4.57
4.90
4.96
4.77
4.33
3.56
2.33
0.51
-1.92
-4.81
-7.75
-10.23
-11.67
-11.61
-9.84
-6.40
-1.59
4.20
10.51
16.93
23.03
28.40
32.65
35.50
36.84
36.84
35.81
34.12
32.07
29.80
27.32
24.59
21.59
18.43
15.37
12.71
10.81
9.93
10.19
11.52
13.67
16.31
19.05
21.52
23.39
24.43
24.46
23.46
21.50
18.73
15.28
11.21
6.48
1.04
-5.05
-11.54
-17.91
-23.59
-28.06
-31.01
-32.39
-32.34
-31.06
-28.74
-25.54
-21.57
-16.98
-11.85
-6.22
-0.11
6.45
13.31
20.19
26.75
32.67
37.78
42.04
45.55
48.42
50.71
52.42
53.54
54.08
54.17
54.00
53.77
53.70
53.89
54.39
55.15
56.08
57.07
58.04
58.87
59.48
59.74
59.52
58.72
57.26
55.09
52.22
48.60
44.18
38.87
32.62
25.47
17.55
9.12
0.50
-8.00
-16.18
-23.98
-31.57
-39.24
-47.31
-55.96
-65.09
-74.39
-83.35
-91.43
-98.13
-103.02
-105.79
-106.26
-104.52
-100.93
-96.15
-90.95
-86.00
-81.62
-77.76
-74.05
-70.02
-65.34
-59.82
-53.48
-46.45
-38.92
-31.15
-23.44
-16.12
-9.50
-3.80
0.93
4.74
7.77
10.16
11.98
13.24
13.93
14.03
13.61
12.79
11.68
10.40
9.02
7.55
5.96
4.24
2.41
0.50
-1.35
-3.02
-4.40
-5.45
-6.28
-7.07
-8.01
-9.21
-10.54
-11.68
-12.17
-11.60
-9.78
-6.75
-2.84
1.49
5.79
9.73
13.09
15.75
17.64
18.66
18.81
18.20
17.09
15.80
14.61
13.66
12.86
12.01
10.88
9.38
7.59
5.70
3.98
2.56
1.45
0.51
-0.46
-1.59
-2.86
-4.15
-5.25
-6.02
-6.42
-6.56
-6.60
-6.75
-7.11
-7.75
-8.68
-9.87
-11.35
-13.08
-15.01
-16.95
-18.67
-19.92
-20.53
-20.47
-19.81
-18.65
-17.05
-14.94
-12.24
-8.86
-4.83
-0.29
4.50
9.29
13.88
18.13
21.95
25.29
28.11
30.35
31.95
32.87
33.03
32.42
31.13
29.34
27.38
25.54
24.02
22.84
21.91
21.03
20.10
19.08
18.02
17.04
16.17
15.45
14.85
14.36
13.98
13.69
13.43
13.07
12.49
11.58
10.32
8.75
7.00
5.23
3.65
2.47
1.89
2.06
2.99
4.57
6.60
8.78
10.82
12.50
13.64
14.17
14.07
13.36
12.05
10.17
7.69
4.63
1.08
-2.75
-6.54
-9.93
-12.67
-14.68
-16.12
-17.25
-18.34
-19.49
-20.64
-21.66
-22.42
-22.89
-23.15
-23.30
-23.39
-23.38
-23.21
-22.82
-22.20
-21.37
-20.29
-18.87
-16.94
-14.39
-11.13
-7.21
-2.68
2.43
8.14
14.48
21.38
28.66
35.98
42.92
48.98
53.70
56.63
57.43
55.93
52.21
46.58
39.53
31.54
23.03
14.19
5.12
-4.16
-13.58
-22.98
-32.15
-40.79
-48.64
-55.43
-60.91
-64.97
-67.60
-68.90
-69.08
-68.37
-66.90
-64.80
-62.12
-58.91
-55.27
-51.31
-47.20
-43.13
-39.31
-35.99
-33.47
-31.98
-31.63
-32.29
-33.66
-35.25
-36.58
-37.30
-37.27
-36.61
-35.59
-34.54
-33.67
-32.98
-32.24
-31.12
-29.28
-26.50
-22.77
-18.18
-12.94
-7.24
-1.16
5.26
12.04
19.16
26.54
34.12
41.88
49.83
57.93
65.98
73.56
80.06
84.91
87.75
88.66
88.08
86.67
85.01
83.42
81.86
80.05
77.64
74.34
69.99
64.51
57.90
50.24
41.77
32.91
24.28
16.49
10.04
5.08
1.38
-1.58
-4.34
-7.29
-10.53
-13.95
-17.29
-20.40
-23.22
-25.81
-28.32
-30.84
-33.39
-35.93
-38.33
-40.43
-42.03
-42.94
-43.03
-42.26
-40.69
-38.42
-35.55
-32.13
-28.17
-23.73
-18.97
-14.17
-9.65
-5.68
-2.38
0.33
2.67
4.81
6.86
8.76
10.39
11.65
12.49
12.93
13.06
12.90
12.42
11.54
10.14
8.19
5.77
3.17
0.84
-0.70
-1.02
0.05
2.36
5.48
8.89
12.13
14.97
17.41
19.51
21.27
22.60
23.30
23.24
22.47
21.20
19.77
18.46
17.50
16.90
16.62
16.56
16.67
16.92
17.28
17.71
18.08
18.22
17.94
17.06
15.50
13.26
10.40
6.99
3.08
-1.32
-6.17
-11.32
-16.53
-21.45
-25.75
-29.22
-31.79
-33.55
-34.59
-34.99
-34.75
-33.84
-32.30
-30.20
-27.70
-24.84
-21.58
-17.74
-13.18
-7.92
-2.22
3.42
8.43
12.37
15.03
16.44
16.78
16.30
15.22
13.70
11.86
9.79
7.55
5.21
2.83
0.47
-1.76
-3.75
-5.39
-6.64
-7.52
-8.12
-8.58
-9.00
-9.42
-9.84
-10.19
-10.43
-10.57
-10.66
-10.78
-10.96
-11.20
-11.41
-11.54
-11.53
-11.37
-11.12
-10.81
-10.52
-10.29
-10.10
-9.94
-9.78
-9.65
-9.62
-9.82
-10.34
-11.17
-12.12
-12.87
-13.05
-12.32
-10.52
-7.66
-3.93
0.37
4.92
9.39
13.49
16.99
19.73
21.65
22.76
23.21
23.16
22.79
22.17
21.29
20.10
18.58
16.84
15.09
13.55
12.38
11.58
10.99
10.44
9.79
8.98
8.06
7.07
6.02
4.92
3.77
2.61
1.50
0.48
-0.45
-1.33
-2.20
-3.07
-3.91
-4.68
-5.38
-6.09
-6.89
-7.85
-8.99
-10.24
-11.53
-12.81
-14.07
-15.36
-16.76
-18.29
-19.95
-21.70
-23.46
-25.10
-26.39
-27.02
-26.63
-24.96
-21.95
-17.81
-12.95
-7.89
-3.05
1.31
5.04
8.13
10.54
12.24
13.24
13.65
13.65
13.45
13.27
13.18
13.19
13.23
13.24
13.23
13.29
13.46
13.77
14.17
14.57
14.85
14.94
14.83
14.50
13.94
13.18
12.21
11.09
9.92
8.81
7.84
7.07
6.49
6.03
5.64
5.27
4.85
4.37
3.73
2.89
1.75
0.30
-1.40
-3.18
-4.85
-6.26
-7.39
-8.41
-9.59
-11.18
-13.22
-15.47
-17.43
-18.47
-18.08
-16.04
-12.54
-8.08
-3.33
1.10
4.74
7.41
9.15
10.14
10.57
10.62
10.39
9.94
9.29
8.46
7.37
5.97
4.19
2.07
-0.22
-2.41
-4.23
-5.48
-6.15
-6.37
-6.38
-6.44
-6.71
-7.29
-8.22
-9.47
-10.99
-12.73
-14.63
-16.63
-18.71
-20.80
-22.82
-24.62
-25.99
-26.63
-26.28
-24.72
-21.88
-17.88
-13.01
-7.67
-2.25
2.95
7.73
12.00
15.70
18.77
21.13
22.72
23.52
23.55
22.91
21.76
20.27
18.64
17.05
15.60
14.32
13.13
11.91
10.52
8.86
6.94
4.82
2.61
0.45
-1.52
-3.16
-4.29
-4.80
-4.61
-3.76
-2.41
-0.75
1.01
2.70
4.29
5.77
7.16
8.48
9.67
10.65
11.34
11.66
11.55
10.97
9.85
8.14
5.80
2.92
-0.33
-3.65
-6.71
-9.24
-11.10
-12.32
-13.10
-13.65
-14.20
-14.85
-15.57
-16.18
-16.45
-16.18
-15.31
-13.95
-12.38
-10.93
-9.89
-9.37
-9.27
-9.36
-9.33
-8.96
-8.12
-6.77
-5.01
-2.96
-0.84
1.08
2.54
3.31
3.23
2.26
0.48
-1.94
-4.75
-7.69
-10.47
-12.80
-14.46
-15.29
-15.28
-14.50
-13.12
-11.30
-9.16
-6.77
-4.18
-1.42
1.39
4.12
6.60
8.66
10.19
11.12
11.48
11.42
11.17
11.00
11.11
11.56
12.26
13.02
13.62
13.92
13.87
13.53
12.98
12.33
11.59
10.76
9.81
8.67
7.25
5.45
3.17
0.36
-2.91
-6.37
-9.60
-12.12
-13.48
-13.46
-12.07
-9.60
-6.49
-3.18
-0.03
2.70
4.88
6.49
7.53
8.04
8.07
7.70
7.02
6.12
5.16
4.30
3.69
3.41
3.44
3.70
4.09
4.53
5.00
5.49
5.96
6.27
6.30
5.96
5.29
4.45
3.62
2.92
2.35
1.79
1.13
0.31
-0.61
-1.51
-2.32
-3.05
-3.79
-4.66
-5.69
-6.83
-7.95
-8.95
-9.83
-10.72
-11.83
-13.34
-15.32
-17.70
-20.28
-22.78
-24.90
-26.30
-26.70
-25.88
-23.77
-20.54
-16.51
-12.11
-7.76
-3.73
-0.19
2.82
5.27
7.12
8.37
9.05
9.33
9.44
9.59
9.92
10.48
11.23
12.11
13.06
14.02
14.94
15.72
16.29
16.57
16.51
16.11
15.38
14.34
13.05
11.59
10.05
8.50
6.96
5.46
3.94
2.39
0.83
-0.69
-2.07
-3.30
-4.38
-5.40
-6.46
-7.62
-8.87
-10.21
-11.61
-13.09
-14.67
-16.32
-17.89
-19.11
-19.65
-19.24
-17.78
-15.35
-12.16
-8.53
-4.72
-0.98
2.54
5.69
8.38
10.54
12.08
13.00
13.32
13.14
12.61
11.93
11.27
10.73
10.38
10.21
10.20
10.32
10.49
10.59
10.47
9.98
9.04
7.71
6.15
4.59
3.20
2.08
1.21
0.46
-0.30
-1.21
-2.35
-3.74
-5.32
-6.99
-8.67
-10.31
-11.92
-13.53
-15.17
-16.91
-18.84
-21.03
-23.50
-26.14
-28.66
-30.57
-31.37
-30.66
-28.32
-24.57
-19.84
-14.69
-9.60
-4.89
-0.72
2.89
5.95
8.47
10.41
11.71
12.38
12.51
12.30
12.00
11.79
11.73
11.75
11.69
11.48
11.15
10.88
10.87
11.18
11.67
12.03
11.90
11.05
9.44
7.27
4.85
2.44
0.22
-1.76
-3.62
-5.46
-7.40
-9.46
-11.61
-13.77
-15.85
-17.85
-19.76
-21.53
-22.99
-23.94
-24.14
-23.47
-22.00
-19.94
-17.54
-14.95
-12.20
-9.25
-6.03
-2.60
0.90
4.23
7.21
9.73
11.76
13.33
14.44
15.09
15.34
15.32
15.29
15.61
16.65
18.65
21.66
25.48
29.75
34.05
37.95
41.17
43.53
44.92
45.33
44.79
43.43
41.40
38.91
36.09
33.03
29.75
26.23
22.47
18.49
14.40
10.30
6.27
2.40
-1.25
-4.64
-7.77
-10.70
-13.59
-16.70
-20.25
-24.33
-28.79
-33.17
-36.86
-39.27
-40.01
-39.05
-36.68
-33.42
-29.85
-26.44
-23.54
-21.26
-19.55
-18.21
-16.98
-15.66
-14.12
-12.37
-10.47
-8.49
-6.44
-4.25
-1.89
0.64
3.21
5.69
7.96
9.97
11.76
13.37
14.74
15.79
16.38
16.43
15.95
15.04
13.87
12.58
11.27
10.01
8.85
7.77
6.74
5.63
4.31
2.70
0.83
-1.14
-2.97
-4.47
-5.62
-6.59
-7.71
-9.26
-11.35
-13.80
-16.15
-17.81
-18.28
-17.30
-14.93
-11.48
-7.43
-3.30
0.50
3.66
6.07
7.72
8.67
9.07
9.02
8.65
8.10
7.53
7.05
6.71
6.50
6.31
6.03
5.58
4.94
4.15
3.30
2.41
1.51
0.62
-0.26
-1.07
-1.76
-2.32
-2.78
-3.17
-3.54
-3.87
-4.15
-4.37
-4.61
-5.02
-5.76
-6.90
-8.36
-9.85
-11.04
-11.67
-11.69
-11.30
-10.89
-10.83
-11.36
-12.51
-14.08
-15.70
-16.93
-17.24
-16.23
-13.65
-9.58
-4.40
1.29
6.85
11.81
15.95
19.26
21.81
23.61
24.52
24.34
22.90
20.20
16.43
11.94
7.19
2.65
-1.26
-4.19
-5.92
-6.36
-5.65
-4.08
-2.11
-0.26
1.02
1.44
0.96
-0.15
-1.45
-2.43
-2.71
-2.18
-1.03
0.31
1.35
1.73
1.32
0.21
-1.31
-2.94
-4.42
-5.66
-6.69
-7.60
-8.49
-9.41
-10.31
-11.04
-11.35
-10.93
-9.43
-6.60
-2.36
3.14
9.48
16.14
22.55
28.26
32.97
36.52
38.83
39.87
39.71
38.44
36.26
33.45
30.29
27.10
24.16
21.66
19.71
18.28
17.27
16.54
15.99
15.56
15.24
15.00
14.78
14.52
14.19
13.78
13.34
12.94
12.67
12.61
12.84
13.44
14.45
15.85
17.51
19.26
20.91
22.27
23.13
23.38
22.93
21.76
19.96
17.69
15.12
12.38
9.61
6.92
4.49
2.58
1.52
1.58
2.89
5.34
8.60
12.16
15.45
18.04
19.67
20.32
20.12
19.21
17.68
15.50
12.62
9.05
4.96
0.67
-3.50
-7.28
-10.63
-13.66
-16.54
-19.31
-21.82
-23.82
-25.03
-25.37
-25.04
-24.47
-24.18
-24.62
-25.98
-28.12
-30.66
-33.16
-35.23
-36.72
-37.72
-38.51
-39.36
-40.39
-41.46
-42.18
-42.06
-40.66
-37.76
-33.40
-27.90
-21.73
-15.40
-9.29
-3.65
1.41
5.83
9.64
12.88
15.62
17.96
20.01
21.85
23.48
24.84
25.86
26.55
27.00
27.41
27.89
28.39
28.71
28.50
27.51
25.67
23.11
20.13
17.01
13.92
10.89
7.90
5.01
2.31
-0.02
-1.89
-3.38
-4.68
-6.04
-7.59
-9.32
-11.05
-12.56
-13.68
-14.41
-14.83
-15.03
-14.97
-14.50
-13.42
-11.58
-9.07
-6.19
-3.38
-1.02
0.67
1.73
2.31
2.58
2.60
2.31
1.63
0.58
-0.66
-1.82
-2.64
-3.02
-3.05
-2.97
-3.00
-3.29
-3.88
-4.74
-5.86
-7.26
-8.97
-10.92
-12.95
-14.77
-16.16
-17.03
-17.53
-18.04
-18.95
-20.59
-23.03
-26.04
-29.18
-31.84
-33.41
-33.43
-31.62
-28.08
-23.17
-17.52
-11.82
-6.63
-2.29
1.13
3.69
5.48
6.54
6.93
6.72
6.08
5.23
4.32
3.40
2.44
1.46
0.56
-0.00
0.03
0.77
2.04
3.49
4.69
5.31
5.23
4.50
3.25
1.62
-0.22
-2.11
-3.86
-5.33
-6.51
-7.54
-8.73
-10.34
-12.42
-14.75
-16.87
-18.20
-18.28
-16.93
-14.23
-10.57
-6.45
-2.37
1.25
4.15
6.22
7.49
8.05
8.00
7.46
6.53
5.33
3.99
2.63
1.35
0.20
-0.82
-1.72
-2.52
-3.25
-3.95
-4.65
-5.38
-6.16
-7.03
-8.02
-9.16
-10.45
-11.83
-13.19
-14.46
-15.66
-16.93
-18.47
-20.47
-22.93
-25.63
-28.14
-29.91
-30.42
-29.29
-26.38
-21.80
-15.93
-9.33
-2.66
3.46
8.60
12.59
15.46
17.44
18.78
19.63
20.06
20.00
19.36
18.12
16.35
14.24
12.03
9.98
8.28
7.05
6.34
6.17
6.51
7.25
8.20
9.06
9.49
9.20
8.10
6.30
4.07
1.70
-0.61
-2.86
-5.14
-7.50
-9.87
-11.97
-13.36
-13.60
-12.39
-9.70
-5.76
-1.00
4.09
9.06
13.58
17.41
20.49
22.81
24.43
25.42
25.91
25.98
25.73
25.23
24.55
23.73
22.79
21.74
20.59
19.34
17.99
16.55
14.97
13.20
11.15
8.78
6.11
3.23
0.31
-2.49
-5.03
-7.24
-9.11
-10.66
-12.01
-13.34
-14.93
-17.06
-19.90
-23.39
-27.17
-30.69
-33.32
-34.57
-34.19
-32.18
-28.80
-24.45
-19.63
-14.85
-10.58
-7.16
-4.71
-3.16
-2.28
-1.73
-1.26
-0.68
0.02
0.72
1.26
1.52
1.47
1.28
1.14
1.28
1.79
2.56
3.33
3.74
3.51
2.48
0.73
-1.48
-3.83
-5.95
-7.64
-8.89
-9.86
-10.79
-11.96
-13.55
-15.64
-18.17
-20.99
-23.83
-26.26
-27.77
-27.87
-26.20
-22.74
-17.77
-11.85
-5.63
0.35
5.76
10.44
14.38
17.58
20.03
21.72
22.65
22.95
22.76
22.30
21.74
21.15
20.53
19.83
18.98
18.01
16.96
15.91
14.90
13.84
12.57
10.92
8.79
6.22
3.39
0.51
-2.29
-5.03
-7.83
-10.86
-14.21
-17.88
-21.77
-25.67
-29.37
-32.56
-34.87
-35.86
-35.13
-32.48
-28.01
-22.17
-15.65
-9.18
-3.30
1.80
6.20
10.09
13.61
16.73
19.25
21.00
21.93
22.16
21.96
21.57
21.13
20.70
20.27
19.84
19.45
19.13
18.85
18.53
18.02
17.19
15.92
14.15
11.87
9.11
6.03
2.85
-0.17
-2.82
-5.07
-7.08
-9.12
-11.55
-14.58
-18.23
-22.30
-26.40
-30.02
-32.60
-33.66
-32.90
-30.23
-25.83
-20.09
-13.57
-6.82
-0.34
5.52
10.49
14.43
17.23
18.87
19.45
19.17
18.32
17.25
16.23
15.47
15.11
15.18
15.67
16.50
17.56
18.68
19.70
20.51
21.01
21.15
20.90
20.20
18.97
17.15
14.75
11.86
8.67
5.34
2.02
-1.23
-4.40
-7.49
-10.50
-13.40
-16.20
-19.01
-22.05
-25.54
-29.54
-33.83
-37.82
-40.73
-41.80
-40.58
-37.07
-31.76
-25.33
-18.50
-11.83
-5.64
-0.12
4.60
8.45
11.36
13.34
14.53
15.16
15.49
15.75
16.10
16.59
17.21
17.88
18.52
19.07
19.55
20.02
20.59
21.32
22.17
22.99
23.50
23.48
22.79
21.45
19.64
17.65
15.69
13.86
12.06
10.11
7.77
4.94
1.70
-1.71
-5.01
-7.99
-10.62
-13.09
-15.70
-18.76
-22.47
-26.82
-31.54
-36.15
-39.95
-42.19
-42.23
-39.70
-34.67
-27.67
-19.55
-11.27
-3.62
2.90
8.18
12.31
15.46
17.82
19.50
20.68
21.55
22.40
23.49
24.98
26.85
28.94
30.98
32.70
33.98
34.79
35.22
35.33
35.10
34.45
33.30
31.66
29.70
27.68
25.84
24.22
22.66
20.88
18.58
15.63
12.15
8.39
4.66
1.21
-1.81
-4.32
-6.35
-8.00
-9.48
-11.06
-12.92
-15.08
-17.33
-19.29
-20.50
-20.59
-19.37
-16.84
-13.11
-8.38
-2.92
2.92
8.70
13.92
18.07
20.82
22.06
21.93
20.77
19.00
16.97
14.97
13.16
11.64
10.46
9.59
8.94
8.38
7.74
6.92
5.87
4.59
3.07
1.27
-0.91
-3.58
-6.74
-10.30
-14.01
-17.53
-20.49
-22.67
-24.04
-24.84
-25.45
-26.32
-27.71
-29.72
-32.19
-34.91
-37.60
-40.02
-41.90
-42.88
-42.53
-40.45
-36.44
-30.65
-23.53
-15.76
-8.02
-0.87
5.37
10.62
14.95
18.52
21.45
23.83
25.69
27.08
28.04
28.72
29.27
29.77
30.24
30.51
30.39
29.74
28.56
27.00
25.29
23.56
21.76
19.68
17.07
13.80
9.96
5.83
1.72
-2.17
-5.82
-9.43
-13.22
-17.38
-21.93
-26.74
-31.52
-35.86
-39.26
-41.14
-41.00
-38.52
-33.76
-27.16
-19.50
-11.66
-4.42
1.78
6.81
10.77
13.78
15.88
17.10
17.46
17.12
16.36
15.50
14.79
14.32
14.01
13.73
13.39
12.98
12.57
12.25
12.00
11.72
11.27
10.52
9.47
8.20
6.82
5.38
3.73
1.59
-1.41
-5.52
-10.81
-17.05
-23.85
-30.77
-37.41
-43.47
-48.62
-52.49
-54.62
-54.58
-52.16
-47.55
-41.25
-34.02
-26.63
-19.62
-13.27
-7.64
-2.72
1.43
4.68
6.89
8.01
8.18
7.74
7.12
6.75
6.93
7.81
9.32
11.33
13.67
16.17
18.66
20.97
22.88
24.20
24.80
24.65
23.81
22.44
20.71
18.76
16.69
14.51
12.21
9.76
7.09
4.06
0.50
-3.68
-8.43
-13.48
-18.30
-22.23
-24.66
-25.13
-23.49
-19.94
-14.91
-9.03
-2.93
2.85
7.95
12.21
15.60
18.19
20.02
21.15
21.64
21.61
21.25
20.75
20.25
19.83
19.44
19.03
18.54
17.90
17.07
15.97
14.51
12.67
10.51
8.18
5.82
3.51
1.22
-1.12
-3.64
-6.35
-9.21
-12.09
-14.84
-17.33
-19.46
-21.24
-22.73
-24.15
-25.74
-27.70
-30.06
-32.59
-34.78
-35.98
-35.59
-33.25
-29.01
-23.22
-16.46
-9.32
-2.31
4.19
9.98
14.95
19.04
22.25
24.62
26.23
27.19
27.67
27.83
27.82
27.74
27.61
27.39
27.04
26.52
25.84
25.04
24.13
23.10
21.90
20.53
18.97
17.23
15.33
13.22
10.85
8.17
5.21
2.06
-1.13
-4.26
-7.25
-10.09
-12.83
-15.54
-18.34
-21.31
-24.45
-27.66
-30.67
-33.05
-34.36
-34.21
-32.38
-28.91
-24.07
-18.24
-11.93
-5.63
0.21
5.22
9.17
12.00
13.79
14.75
15.09
15.03
14.76
14.45
14.26
14.30
14.54
14.83
14.91
14.57
13.70
12.43
11.03
9.69
8.47
7.17
5.50
3.28
0.58
-2.32
-5.07
-7.40
-9.26
-10.81
-12.25
-13.71
-15.22
-16.73
-18.22
-19.73
-21.31
-22.95
-24.46
-25.50
-25.62
-24.47
-21.86
-17.91
-12.96
-7.49
-2.03
3.03
7.36
10.76
13.11
14.31
14.36
13.40
11.70
9.63
7.57
5.82
4.48
3.52
2.85
2.39
2.11
2.05
2.20
2.52
2.88
3.13
3.17
2.95
2.49
1.82
0.92
-0.27
-1.79
-3.65
-5.77
-8.11
-10.63
-13.39
-16.53
-20.20
-24.47
-29.27
-34.23
-38.76
-42.10
-43.50
-42.47
-38.90
-33.12
-25.77
-17.58
-9.18
-1.06
6.43
12.98
18.30
22.16
24.52
25.56
25.73
25.55
25.47
25.73
26.30
26.97
27.45
27.56
27.25
26.62
25.76
24.73
23.47
21.83
19.68
16.99
13.84
10.46
7.08
3.90
1.01
-1.61
-4.08
-6.57
-9.18
-11.99
-14.95
-17.91
-20.64
-22.87
-24.31
-24.68
-23.77
-21.51
-17.98
-13.50
-8.52
-3.48
1.24
5.46
9.14
12.31
14.97
17.07
18.49
19.19
19.25
18.84
18.17
17.38
16.49
15.45
14.18
12.73
11.25
9.99
9.18
8.97
9.36
10.22
11.28
12.19
12.60
12.24
10.96
8.79
5.93
2.65
-0.71
-3.84
-6.53
-8.67
-10.34
-11.70
-12.93
-14.11
-15.10
-15.57
-15.10
-13.36
-10.26
-6.03
-1.14
3.82
8.29
11.87
14.31
15.60
15.82
15.19
13.99
12.48
10.95
9.54
8.36
7.37
6.49
5.59
4.62
3.59
2.62
1.88
1.51
1.52
1.76
1.98
1.89
1.27
0.07
-1.61
-3.55
-5.54
-7.42
-9.21
-11.08
-13.29
-16.04
-19.39
-23.15
-26.87
-29.93
-31.74
-31.87
-30.16
-26.76
-22.09
-16.67
-11.03
-5.58
-0.61
3.71
7.28
10.03
11.93
13.00
13.35
13.19
12.80
12.44
12.30
12.47
12.86
13.36
13.83
14.19
14.45
14.64
14.77
14.75
14.48
13.80
12.64
11.01
9.04
6.95
4.97
3.32
2.15
1.50
1.23
1.02
0.41
-1.05
-3.62
-7.13
-10.99
-14.30
-16.15
-15.91
-13.44
-9.15
-3.79
1.77
6.84
11.04
14.24
16.50
17.88
18.39
18.02
16.84
15.07
13.07
11.21
9.69
8.56
7.65
6.77
5.80
4.75
3.74
2.90
2.28
1.87
1.57
1.29
0.94
0.39
-0.45
-1.66
-3.23
-5.12
-7.17
-9.25
-11.29
-13.30
-15.39
-17.67
-20.19
-22.88
-25.50
-27.63
-28.85
-28.74
-27.09
-23.94
-19.59
-14.53
-9.27
-4.26
0.21
4.03
7.16
9.59
11.29
12.25
12.53
12.26
11.70
11.11
10.65
10.35
10.12
9.78
9.23
8.51
7.76
7.12
6.67
6.31
5.80
4.89
3.46
1.56
-0.57
-2.65
-4.47
-5.95
-7.16
-8.26
-9.36
-10.55
-11.89
-13.46
-15.38
-17.72
-20.39
-23.05
-25.15
-26.11
-25.53
-23.34
-19.83
-15.48
-10.82
-6.23
-1.93
1.97
5.36
8.11
10.08
11.20
11.55
11.31
10.75
10.07
9.40
8.76
8.16
7.64
7.25
7.07
7.08
7.22
7.34
7.31
7.06
6.60
6.00
5.33
4.56
3.69
2.73
1.72
0.76
-0.11
-0.93
-1.82
-2.88
-4.18
-5.62
-7.04
-8.29
-9.32
-10.21
-11.17
-12.42
-14.13
-16.32
-18.83
-21.29
-23.21
-24.07
-23.49
-21.37
-17.93
-13.58
-8.84
-4.09
0.43
4.62
8.45
11.80
14.55
16.56
17.77
18.24
18.12
17.58
16.80
15.92
15.05
14.29
13.66
13.21
12.92
12.75
12.67
12.60
12.42
12.06
11.45
10.62
9.67
8.71
7.78
6.86
5.81
4.50
2.86
0.96
-1.08
-3.08
-4.93
-6.62
-8.17
-9.61
-10.95
-12.13
-13.10
-13.89
-14.62
-15.47
-16.63
-18.15
-19.98
-21.93
-23.75
-25.17
-25.94
-25.88
-24.90
-22.98
-20.22
-16.81
-13.00
-9.11
-5.42
-2.13
0.64
2.92
4.74
6.18
7.25
7.95
8.27
8.24
7.96
7.55
7.14
6.82
6.68
6.77
7.13
7.76
8.60
9.49
10.23
10.66
10.72
10.40
9.80
9.07
8.35
7.75
7.35
7.13
7.01
6.80
6.34
5.49
4.22
2.62
0.82
-1.03
-2.84
-4.55
-6.12
-7.53
-8.76
-9.86
-10.93
-12.08
-13.44
-15.07
-17.00
-19.19
-21.52
-23.78
-25.66
-26.77
-26.73
-25.33
-22.59
-18.79
-14.40
-9.87
-5.57
-1.70
1.70
4.56
6.86
8.55
9.64
10.24
10.51
10.68
10.90
11.23
11.59
11.90
12.05
12.04
11.94
11.88
11.97
12.22
12.52
12.68
12.48
11.78
10.58
8.99
7.18
5.31
3.50
1.86
0.43
-0.78
-1.75
-2.57
-3.29
-3.96
-4.58
-5.10
-5.50
-5.79
-6.05
-6.35
-6.73
-7.14
-7.53
-7.89
-8.30
-8.94
-9.95
-11.37
-13.11
-14.91
-16.45
-17.36
-17.34
-16.20
-13.88
-10.54
-6.52
-2.29
1.68
5.02
7.54
9.25
10.29
10.80
10.88
10.59
9.99
9.24
8.52
8.00
7.75
7.69
7.64
7.49
7.23
6.99
6.93
7.11
7.46
7.76
7.77
7.34
6.52
5.43
4.28
3.22
2.33
1.61
0.99
0.41
-0.20
-0.87
-1.65
-2.54
-3.61
-4.84
-6.22
-7.67
-9.04
-10.22
-11.12
-11.77
-12.29
-12.84
-13.54
-14.44
-15.42
-16.26
-16.66
-16.34
-15.11
-12.93
-9.89
-6.22
-2.22
1.78
5.44
8.44
10.56
11.67
11.81
11.17
10.09
8.93
7.99
7.48
7.41
7.66
8.02
8.28
8.33
8.19
7.98
7.88
8.03
8.44
9.02
9.62
10.05
10.21
10.04
9.60
8.95
8.14
7.15
5.92
4.41
2.63
0.72
-1.12
-2.75
-4.14
-5.42
-6.80
-8.44
-10.37
-12.53
-14.77
-17.03
-19.30
-21.61
-23.88
-25.85
-27.10
-27.18
-25.88
-23.21
-19.54
-15.36
-11.14
-7.20
-3.71
-0.74
1.64
3.36
4.34
4.62
4.38
3.92
3.55
3.45
3.68
4.11
4.62
5.11
5.56
5.96
6.31
6.57
6.66
6.56
6.29
5.96
5.65
5.39
5.13
4.74
4.09
3.14
1.92
0.55
-0.82
-2.08
-3.21
-4.26
-5.39
-6.79
-8.64
-11.00
-13.81
-16.81
-19.63
-21.82
-23.02
-23.04
-21.90
-19.78
-16.95
-13.72
-10.36
-7.11
-4.16
-1.63
0.41
1.94
2.98
3.57
3.73
3.52
3.01
2.34
1.66
1.13
0.83
0.74
0.78
0.85
0.90
0.92
0.94
0.97
0.93
0.73
0.30
-0.38
-1.19
-2.00
-2.64
-3.01
-3.12
-3.09
-3.15
-3.62
-4.78
-6.83
-9.71
-13.10
-16.43
-19.03
-20.32
-19.92
-17.76
-14.05
-9.17
-3.63
2.06
7.43
12.15
16.07
19.15
21.41
22.86
23.48
23.20
22.03
20.10
17.69
15.17
12.86
10.96
9.46
8.23
7.12
6.05
5.04
4.14
3.35
2.59
1.71
0.56
-0.93
-2.68
-4.58
-6.52
-8.47
-10.48
-12.64
-14.95
-17.34
-19.70
-21.93
-24.05
-26.12
-28.18
-30.08
-31.49
-31.92
-30.90
-28.18
-23.88
-18.43
-12.41
-6.33
-0.47
5.14
10.64
16.14
21.60
26.79
31.42
35.22
38.06
39.96
41.00
41.27
40.87
39.87
38.43
36.75
35.04
33.44
31.92
30.35
28.54
26.37
23.84
21.04
18.09
15.06
11.90
8.53
4.95
1.25
-2.33
-5.54
-8.21
-10.33
-12.00
-13.45
-14.95
-16.69
-18.83
-21.43
-24.40
-27.54
-30.48
-32.78
-34.00
-33.84
-32.21
-29.23
-25.19
-20.45
-15.31
-10.06
-4.88
0.01
4.42
8.16
11.09
13.19
14.55
15.30
15.60
15.60
15.43
15.23
15.07
15.00
15.02
15.08
15.11
15.10
15.04
14.91
14.68
14.27
13.59
12.61
11.38
10.00
8.56
7.12
5.70
4.30
2.94
1.65
0.40
-0.86
-2.25
-3.82
-5.56
-7.38
-9.18
-10.94
-12.78
-14.90
-17.44
-20.34
-23.27
-25.64
-26.83
-26.34
-24.03
-20.07
-14.92
-9.12
-3.16
2.60
7.91
12.58
16.48
19.46
21.45
22.51
22.80
22.56
22.03
21.40
20.76
20.15
19.58
19.06
18.62
18.31
18.14
18.09
18.12
18.14
18.05
17.71
16.99
15.82
14.21
12.23
10.06
7.87
5.76
3.77
1.83
-0.19
-2.42
-4.97
-7.84
-10.98
-14.20
-17.28
-19.99
-22.21
-23.98
-25.43
-26.81
-28.31
-29.98
-31.70
-33.19
-34.07
-33.94
-32.40
-29.18
-24.18
-17.61
-9.95
-1.91
5.73
12.33
17.51
21.19
23.49
24.57
24.56
23.54
21.62
19.08
16.30
13.74
11.81
10.77
10.71
11.61
13.37
15.85
18.90
22.29
25.74
28.95
31.57
33.37
34.15
33.83
32.47
30.21
27.33
24.15
20.94
17.91
15.16
12.70
10.44
8.26
6.04
3.71
1.28
-1.11
-3.35
-5.36
-7.21
-9.12
-11.32
-14.03
-17.35
-21.22
-25.43
-29.66
-33.48
-36.42
-38.02
-37.94
-36.06
-32.57
-27.93
-22.73
-17.56
-12.91
-9.05
-6.09
-3.99
-2.63
-1.83
-1.39
-1.15
-0.95
-0.69
-0.32
0.17
0.80
1.59
2.56
3.68
4.90
6.12
7.26
8.32
9.35
10.49
11.79
13.20
14.49
15.36
15.63
15.26
14.49
13.70
13.28
13.43
14.09
14.98
15.69
15.88
15.36
14.19
12.57
10.75
8.92
7.20
5.71
4.53
3.66
2.88
1.69
-0.49
-4.04
-8.80
-14.01
-18.49
-21.11
-21.30
-19.22
-15.63
-11.49
-7.56
-4.18
-1.36
1.02
3.01
4.56
5.64
6.26
6.59
6.94
7.58
8.67
10.16
11.84
13.42
14.69
15.60
16.23
16.80
17.44
18.18
18.91
19.39
19.43
18.93
17.91
16.51
14.91
13.23
11.51
9.69
7.68
5.37
2.74
-0.14
-3.10
-5.93
-8.44
-10.51
-12.15
-13.46
-14.66
-15.94
-17.46
-19.26
-21.28
-23.31
-25.04
-26.09
-26.12
-24.86
-22.20
-18.26
-13.32
-7.83
-2.30
2.82
7.19
10.68
13.32
15.28
16.79
18.05
19.26
20.55
22.03
23.73
25.59
27.40
28.82
29.53
29.26
27.97
25.82
23.06
19.91
16.50
12.87
9.06
5.17
1.41
-1.99
-4.83
-7.08
-8.82
-10.23
-11.54
-12.92
-14.45
-16.13
-17.87
-19.52
-20.93
-21.98
-22.68
-23.15
-23.64
-24.46
-25.84
-27.84
-30.28
-32.77
-34.79
-35.81
-35.45
-33.55
-30.17
-25.61
-20.30
-14.77
-9.48
-4.80
-0.98
1.92
3.96
5.26
5.96
6.21
6.12
5.81
5.38
4.93
4.53
4.18
3.88
3.58
3.22
2.80
2.34
1.90
1.57
1.37
1.28
1.22
1.11
0.91
0.64
0.42
0.30
0.30
0.29
0.11
-0.43
-1.42
-2.79
-4.41
-6.07
-7.62
-9.02
-10.40
-11.95
-13.89
-16.33
-19.19
-22.14
-24.66
-26.16
-26.11
-24.24
-20.57
-15.42
-9.37
-3.06
2.91
8.07
12.15
15.09
16.95
17.94
18.28
18.17
17.76
17.17
16.48
15.78
15.17
14.70
14.38
14.14
13.90
13.59
13.21
12.77
12.29
11.73
11.03
10.06
8.76
7.11
5.12
2.92
0.63
-1.60
-3.64
-5.48
-7.22
-9.04
-11.05
-13.20
-15.19
-16.59
-17.02
-16.43
-15.15
-13.81
-13.11
-13.56
-15.25
-17.85
-20.72
-23.15
-24.44
-24.16
-22.14
-18.55
-13.86
-8.68
-3.65
0.77
4.36
7.15
9.30
11.01
12.39
13.51
14.35
14.90
15.21
15.32
15.29
15.13
14.82
14.33
13.66
12.87
12.05
11.29
10.66
10.14
9.63
9.06
8.38
7.64
6.97
6.49
6.25
6.14
5.91
5.27
4.00
2.05
-0.44
-3.22
-6.01
-8.61
-10.91
-12.83
-14.33
-15.33
-15.84
-16.01
-16.12
-16.57
-17.61
-19.23
-21.06
-22.45
-22.76
-21.58
-18.87
-15.02
-10.64
-6.36
-2.68
0.14
1.99
2.89
2.91
2.15
0.81
-0.83
-2.48
-3.83
-4.62
-4.75
-4.22
-3.18
-1.87
-0.52
0.68
1.70
2.63
3.55
4.55
5.54
6.35
6.78
6.73
6.27
5.61
5.02
4.61
4.36
4.11
3.64
2.85
1.75
0.51
-0.69
-1.65
-2.24
-2.44
-2.33
-2.15
-2.22
-2.95
-4.68
-7.51
-11.23
-15.25
-18.81
-21.17
-21.82
-20.64
-17.90
-14.09
-9.80
-5.58
-1.81
1.30
3.65
5.21
5.97
5.95
5.20
3.84
2.13
0.40
-1.02
-1.88
-2.13
-1.88
-1.31
-0.63
0.03
0.62
1.12
1.52
1.81
1.94
1.91
1.76
1.64
1.67
1.99
2.61
3.47
4.42
5.28
5.94
6.31
6.38
6.17
5.73
5.10
4.30
3.29
1.98
0.22
-2.17
-5.23
-8.80
-12.46
-15.56
-17.39
-17.44
-15.53
-11.93
-7.21
-2.13
2.62
6.56
9.50
11.50
12.77
13.54
14.00
14.27
14.43
14.56
14.75
15.03
15.39
15.73
15.90
15.74
15.17
14.18
12.84
11.24
9.44
7.48
5.35
3.09
0.76
-1.53
-3.66
-5.53
-7.12
-8.45
-9.63
-10.77
-11.98
-13.32
-14.76
-16.24
-17.64
-18.83
-19.72
-20.27
-20.62
-20.98
-21.65
-22.87
-24.64
-26.64
-28.29
-28.89
-27.87
-24.99
-20.43
-14.72
-8.64
-3.00
1.53
4.57
6.10
6.44
6.11
5.65
5.48
5.84
6.76
8.19
10.03
12.17
14.47
16.77
18.88
20.68
22.14
23.29
24.17
24.79
25.12
25.10
24.73
24.05
23.17
22.16
21.05
19.79
18.29
16.46
14.30
11.86
9.29
6.80
4.56
2.66
1.11
-0.22
-1.53
-3.02
-4.82
-6.91
-9.12
-11.12
-12.47
-12.78
-11.83
-9.61
-6.39
-2.60
1.29
4.85
7.78
9.90
11.11
11.41
10.90
9.73
8.16
6.47
4.94
3.76
3.00
2.63
2.54
2.62
2.76
2.88
2.96
3.03
3.08
3.13
3.16
3.14
3.01
2.72
2.21
1.46
0.46
-0.75
-2.14
-3.64
-5.20
-6.81
-8.39
-9.90
-11.33
-12.71
-14.17
-15.86
-17.89
-20.20
-22.52
-24.40
-25.35
-24.99
-23.20
-20.12
-16.08
-11.49
-6.72
-2.03
2.35
6.24
9.44
11.80
13.20
13.64
13.27
12.36
11.27
10.32
9.77
9.68
10.00
10.53
11.13
11.68
12.09
12.29
12.14
11.55
10.46
8.99
7.35
5.77
4.37
3.09
1.74
0.11
-1.87
-4.16
-6.59
-9.01
-11.35
-13.63
-15.95
-18.39
-21.02
-23.86
-26.90
-30.04
-33.00
-35.35
-36.49
-35.92
-33.37
-29.00
-23.35
-17.23
-11.37
-6.26
-2.05
1.37
4.18
6.53
8.44
9.88
10.86
11.48
11.91
12.34
12.87
13.57
14.43
15.42
16.53
17.71
18.81
19.68
20.08
19.89
19.06
17.65
15.75
13.42
10.68
7.54
4.08
0.46
-3.09
-6.38
-9.37
-12.16
-14.97
-17.99
-21.32
-24.95
-28.83
-32.89
-37.13
-41.53
-45.90
-49.87
-52.89
-54.41
-54.04
-51.73
-47.76
-42.69
-37.14
-31.62
-26.48
-21.91
-18.00
-14.78
-12.25
-10.29
-8.68
-7.09
-5.18
-2.70
0.37
3.79
7.19
10.18
12.58
14.47
16.20
18.19
20.74
23.95
27.66
31.56
35.32
38.69
41.54
43.83
45.63
47.02
48.16
49.25
50.44
51.77
53.15
54.29
54.87
54.62
53.43
51.42
48.85
46.06
43.35
40.91
38.81
37.00
35.38
33.86
32.39
30.94
29.47
27.91
26.11
23.95
21.39
18.53
15.62
12.96
10.77
9.18
8.15
7.58
7.37
7.52
8.01
8.81
9.75
10.57
11.03
10.95
10.36
9.45
8.47
7.59
6.78
5.81
4.36
2.17
-0.80
-4.36
-8.14
-11.76
-14.93
-17.59
-19.84
-21.89
-23.92
-26.09
-28.46
-31.00
-33.62
-36.14
-38.26
-39.62
-39.85
-38.69
-36.00
-31.90
-26.71
-20.90
-15.04
-9.66
-5.15
-1.72
0.65
2.10
2.85
3.10
3.01
2.72
2.30
1.82
1.32
0.82
0.34
-0.11
-0.51
-0.79
-0.91
-0.85
-0.68
-0.47
-0.40
-0.66
-1.41
-2.79
-4.86
-7.59
-10.86
-14.51
-18.31
-22.04
-25.43
-28.26
-30.32
-31.49
-31.77
-31.28
-30.18
-28.66
-26.83
-24.75
-22.36
-19.55
-16.18
-12.10
-7.25
-1.71
4.28
10.26
15.75
20.31
23.64
25.66
26.42
26.13
25.15
23.97
23.14
23.18
24.38
26.69
29.73
32.95
35.73
37.55
38.11
37.28
35.12
31.88
27.97
23.87
20.10
16.95
14.52
12.67
11.14
9.71
8.22
6.59
4.83
2.94
1.07
-0.53
-1.54
-1.61
-0.59
1.45
4.15
7.07
9.81
12.17
14.09
15.58
16.59
17.01
16.77
15.93
14.72
13.42
12.31
11.48
10.84
10.24
9.54
8.70
7.74
6.67
5.43
3.91
2.02
-0.26
-2.77
-5.29
-7.58
-9.49
-10.98
-12.09
-12.95
-13.67
-14.39
-15.22
-16.33
-17.86
-19.87
-22.26
-24.72
-26.77
-27.84
-27.48
-25.46
-21.91
-17.23
-11.99
-6.79
-2.08
1.84
4.83
6.86
7.91
8.04
7.38
6.17
4.73
3.41
2.42
1.84
1.58
1.47
1.35
1.13
0.79
0.35
-0.14
-0.66
-1.21
-1.80
-2.48
-3.32
-4.37
-5.68
-7.22
-8.93
-10.67
-12.37
-13.96
-15.52
-17.16
-19.04
-21.23
-23.62
-25.92
-27.61
-28.14
-27.09
-24.34
-20.16
-15.10
-9.80
-4.79
-0.34
3.51
6.80
9.60
11.86
13.48
14.37
14.54
14.07
13.10
11.77
10.23
8.61
7.07
5.74
4.74
4.10
3.81
3.81
4.00
4.25
4.44
4.43
4.16
3.63
2.92
2.17
1.46
0.78
0.01
-1.02
-2.44
-4.34
-6.70
-9.41
-12.27
-14.97
-17.11
-18.26
-18.08
-16.39
-13.32
-9.24
-4.66
-0.07
4.16
7.83
10.85
13.17
14.74
15.52
15.55
14.98
14.06
13.03
12.07
11.24
10.50
9.78
9.02
8.20
7.34
6.45
5.54
4.62
3.68
2.72
1.69
0.53
-0.80
-2.28
-3.88
-5.45
-6.89
-8.17
-9.38
-10.68
-12.25
-14.19
-16.48
-18.96
-21.44
-23.69
-25.46
-26.47
-26.40
-25.00
-22.17
-18.08
-13.16
-7.98
-3.10
1.11
4.50
7.08
8.97
10.25
10.99
11.23
11.05
10.57
9.90
9.15
8.35
7.54
6.76
6.08
5.61
5.41
5.45
5.67
5.93
6.13
6.18
6.03
5.59
4.78
3.53
1.84
-0.18
-2.31
-4.33
-6.08
-7.52
-8.79
-10.05
-11.46
-13.12
-15.06
-17.26
-19.71
-22.38
-25.11
-27.64
-29.52
-30.26
-29.50
-27.07
-23.18
-18.29
-12.98
-7.78
-3.06
1.05
4.54
7.46
9.82
11.62
12.83
13.51
13.74
13.62
13.24
12.66
11.91
11.02
10.10
9.27
8.66
8.33
8.26
8.32
8.31
8.02
7.29
5.96
3.94
1.19
-2.25
-6.18
-10.31
-14.29
-17.77
-20.52
-22.49
-23.81
-24.75
-25.67
-26.89
-28.68
-31.14
-34.08
-37.08
-39.43
-40.37
-39.32
-36.06
-30.85
-24.31
-17.19
-10.11
-3.41
2.78
8.46
13.57
18.00
21.58
24.25
26.08
27.30
28.16
28.86
29.44
29.83
29.89
29.44
28.41
26.82
24.81
22.60
20.40
18.30
16.29
14.26
12.09
9.77
7.39
5.09
2.94
0.89
-1.20
-3.47
-5.95
-8.56
-11.22
-13.84
-16.46
-19.12
-21.82
-24.41
-26.61
-28.06
-28.39
-27.37
-24.93
-21.21
-16.57
-11.51
-6.54
-2.08
1.61
4.47
6.56
8.00
8.91
9.41
9.59
9.61
9.63
9.82
10.29
11.07
12.09
13.21
14.23
14.99
15.35
15.25
14.65
13.53
11.87
9.66
6.96
3.90
0.75
-2.19
-4.61
-6.34
-7.28
-7.49
-7.06
-6.11
-4.80
-3.26
-1.71
-0.39
0.40
0.38
-0.67
-2.78
-5.74
-9.11
-12.28
-14.62
-15.65
-15.14
-13.15
-9.97
-6.01
-1.76
2.31
5.79
8.37
9.89
10.45
10.28
9.73
9.13
8.63
8.25
7.91
7.56
7.21
7.01
7.06
7.47
8.18
9.06
9.91
10.57
10.90
10.84
10.39
9.59
8.48
7.15
5.70
4.24
2.85
1.55
0.30
-0.96
-2.30
-3.75
-5.27
-6.77
-8.18
-9.49
-10.78
-12.17
-13.80
-15.76
-17.97
-20.24
-22.20
-23.43
-23.49
-22.10
-19.19
-14.95
-9.81
-4.33
0.95
5.63
9.46
12.38
14.44
15.73
16.36
16.47
16.21
15.74
15.29
15.05
15.12
15.50
16.04
16.55
16.87
16.92
16.77
16.51
16.18
15.74
15.07
14.03
12.58
10.83
8.98
7.29
5.93
4.98
4.37
3.93
3.46
2.80
1.89
0.75
-0.59
-2.10
-3.88
-6.07
-8.86
-12.35
-16.46
-20.88
-25.17
-28.80
-31.27
-32.22
-31.40
-28.81
-24.65
-19.31
-13.37
-7.43
-2.08
2.27
5.43
7.48
8.72
9.48
10.05
10.58
11.07
11.44
11.63
11.66
11.57
11.48
11.42
11.44
11.54
11.71
11.97
12.29
12.61
12.77
12.55
11.80
10.47
8.69
6.65
4.53
2.43
0.35
-1.75
-3.91
-6.09
-8.19
-10.14
-11.89
-13.51
-15.07
-16.70
-18.49
-20.47
-22.56
-24.54
-26.04
-26.56
-25.67
-23.15
-19.12
-13.95
-8.23
-2.50
2.80
7.41
11.15
13.88
15.50
15.96
15.40
14.08
12.43
10.82
9.55
8.72
8.23
7.94
7.68
7.36
6.95
6.48
5.99
5.50
5.05
4.60
4.15
3.62
2.96
2.09
0.97
-0.40
-2.02
-3.84
-5.73
-7.52
-8.97
-9.86
-10.08
-9.64
-8.73
-7.68
-6.79
-6.33
-6.38
-6.88
-7.55
-8.00
-7.77
-6.51
-4.02
-0.40
4.00
8.67
13.10
16.87
19.69
21.43
22.01
21.45
19.84
17.35
14.27
10.98
7.83
5.16
3.22
2.13
1.87
2.27
3.04
3.88
4.60
5.08
5.32
5.31
5.03
4.37
3.27
1.74
-0.08
-2.01
-3.89
-5.68
-7.37
-9.06
-10.76
-12.51
-14.33
-16.26
-18.40
-20.83
-23.59
-26.64
-29.85
-32.92
-35.48
-37.04
-37.12
-35.39
-31.77
-26.51
-20.14
-13.32
-6.68
-0.72
4.26
8.12
10.88
12.62
13.51
13.76
13.61
13.32
13.14
13.24
13.74
14.61
15.68
16.72
17.50
17.91
18.02
18.07
18.31
18.94
19.95
21.15
22.27
23.10
23.54
23.69
23.69
23.67
23.63
23.39
22.62
20.90
17.83
13.16
6.88
-0.69
-8.96
-17.18
-24.59
-30.59
-34.81
-37.20
-37.82
-36.80
-34.18
-29.96
-24.23
-17.29
-9.75
-2.48
3.64
7.98
10.33
10.90
10.22
8.91
7.46
6.17
5.17
4.43
3.89
3.47
3.15
2.96
2.99
3.31
3.96
4.81
5.62
6.12
6.07
5.35
3.97
2.04
-0.33
-3.04
-6.07
-9.46
-13.23
-17.38
-21.85
-26.41
-30.71
-34.29
-36.64
-37.33
-36.13
-33.01
-28.16
-21.96
-14.92
-7.66
-0.77
5.16
9.80
13.02
14.99
16.00
16.39
16.43
16.25
15.91
15.42
14.80
14.00
12.96
11.55
9.72
7.53
5.12
2.71
0.46
-1.61
-3.60
-5.71
-8.13
-10.96
-14.19
-17.65
-21.08
-24.14
-26.57
-28.24
-29.20
-29.70
-30.06
-30.59
-31.43
-32.46
-33.35
-33.58
-32.68
-30.28
-26.30
-20.92
-14.53
-7.56
-0.42
6.54
13.03
18.76
23.45
26.88
28.95
29.75
29.55
28.76
27.75
26.74
25.84
24.99
24.08
23.02
21.77
20.33
18.74
17.06
15.33
13.55
11.70
9.76
7.69
5.54
3.37
1.30
-0.56
-2.19
-3.62
-4.98
-6.38
-7.96
-9.80
-11.95
-14.39
-16.97
-19.40
-21.27
-22.15
-21.68
-19.78
-16.63
-12.62
-8.21
-3.77
0.50
4.49
8.18
11.52
14.44
16.89
18.87
20.49
21.88
23.17
24.39
25.52
26.46
27.14
27.45
27.32
26.73
25.68
24.25
22.53
20.58
18.42
15.92
13.03
9.71
6.10
2.44
-0.99
-4.00
-6.60
-8.90
-11.16
-13.60
-16.40
-19.64
-23.25
-26.97
-30.30
-32.60
-33.23
-31.76
-28.14
-22.70
-16.10
-9.06
-2.18
4.20
9.97
15.18
19.87
23.98
27.35
29.84
31.39
32.12
32.26
32.07
31.71
31.17
30.36
29.17
27.59
25.72
23.66
21.47
19.09
16.39
13.20
9.42
5.04
0.14
-5.13
-10.57
-15.94
-21.02
-25.62
-29.63
-33.08
-36.14
-39.00
-41.89
-44.87
-47.88
-50.62
-52.63
-53.33
-52.11
-48.54
-42.49
-34.19
-24.22
-13.36
-2.37
8.10
17.56
25.68
32.23
37.06
40.11
41.53
41.60
40.74
39.42
37.99
36.67
35.48
34.35
33.17
31.87
30.43
28.91
27.36
25.76
24.06
22.09
19.78
17.11
14.20
11.23
8.38
5.74
3.27
0.92
-1.39
-3.62
-5.72
-7.62
-9.35
-11.02
-12.83
-15.01
-17.72
-21.03
-24.83
-28.77
-32.32
-34.78
-35.49
-34.02
-30.30
-24.68
-17.82
-10.44
-3.11
3.84
10.28
16.19
21.46
25.90
29.24
31.30
32.08
31.79
30.84
29.60
28.37
27.24
26.16
25.00
23.76
22.47
21.26
20.22
19.35
18.53
17.59
16.39
14.88
13.09
11.08
8.94
6.73
4.45
2.16
-0.12
-2.37
-4.59
-6.84
-9.16
-11.61
-14.12
-16.59
-18.86
-20.82
-22.49
-24.02
-25.71
-27.89
-30.78
-34.34
-38.23
-41.84
-44.42
-45.29
-44.09
-40.79
-35.73
-29.46
-22.52
-15.38
-8.31
-1.49
4.98
10.93
16.20
20.63
24.16
26.89
28.99
30.66
32.09
33.37
34.59
35.76
36.90
37.94
38.72
39.00
38.54
37.19
34.92
31.90
28.36
24.55
20.69
16.95
13.50
10.50
8.07
6.24
4.94
3.94
2.98
1.80
0.24
-1.72
-3.99
-6.35
-8.53
-10.32
-11.67
-12.67
-13.56
-14.63
-16.11
-18.08
-20.44
-22.92
-25.12
-26.55
-26.74
-25.35
-22.27
-17.65
-11.97
-5.86
0.06
5.25
9.48
12.68
14.95
16.42
17.25
17.60
17.63
17.48
17.27
17.08
16.93
16.83
16.82
16.93
17.20
17.63
18.15
18.60
18.82
18.66
18.06
17.06
15.73
14.18
12.50
10.71
8.82
6.86
4.83
2.73
0.55
-1.79
-4.36
-7.18
-10.21
-13.30
-16.29
-19.04
-21.43
-23.42
-24.99
-26.17
-27.04
-27.78
-28.64
-29.84
-31.48
-33.37
-35.05
-35.90
-35.36
-33.06
-29.03
-23.67
-17.62
-11.53
-5.89
-0.85
3.65
7.81
11.76
15.43
18.61
21.08
22.72
23.62
23.99
24.02
23.83
23.42
22.77
21.90
20.91
19.92
19.05
18.30
17.56
16.70
15.55
14.10
12.42
10.62
8.82
7.02
5.16
3.13
0.94
-1.32
-3.48
-5.34
-6.85
-8.06
-9.09
-10.08
-11.11
-12.17
-13.25
-14.34
-15.42
-16.47
-17.48
-18.46
-19.45
-20.58
-21.93
-23.53
-25.25
-26.82
-27.87
-28.04
-27.09
-24.93
-21.63
-17.38
-12.48
-7.28
-2.15
2.59
6.68
9.98
12.49
14.27
15.44
16.06
16.22
15.95
15.31
14.41
13.37
12.29
11.23
10.24
9.30
8.37
7.41
6.39
5.30
4.17
3.03
1.91
0.82
-0.24
-1.26
-2.19
-3.02
-3.71
-4.29
-4.85
-5.48
-6.19
-6.95
-7.71
-8.43
-9.12
-9.80
-10.49
-11.12
-11.66
-12.12
-12.63
-13.38
-14.52
-16.06
-17.81
-19.44
-20.57
-20.85
-20.11
-18.33
-15.66
-12.36
-8.80
-5.36
-2.36
-0.02
1.64
2.70
3.32
3.65
3.84
3.98
4.13
4.28
4.38
4.38
4.28
4.14
4.04
4.00
3.98
3.87
3.62
3.29
3.03
3.01
3.25
3.58
3.71
3.38
2.50
1.26
-0.06
-1.21
-2.13
-2.96
-3.89
-5.06
-6.41
-7.78
-9.03
-10.08
-10.99
-11.86
-12.78
-13.75
-14.74
-15.63
-16.29
-16.54
-16.19
-15.05
-13.05
-10.29
-7.04
-3.68
-0.58
2.03
4.02
5.41
6.27
6.66
6.65
6.33
5.80
5.18
4.60
4.19
4.06
4.23
4.67
5.29
5.96
6.57
7.03
7.28
7.30
7.08
6.61
5.88
4.93
3.80
2.58
1.29
-0.02
-1.40
-2.83
-4.31
-5.79
-7.18
-8.42
-9.50
-10.46
-11.38
-12.33
-13.37
-14.53
-15.79
-17.10
-18.34
-19.29
-19.72
-19.41
-18.25
-16.29
-13.70
-10.72
-7.56
-4.38
-1.29
1.59
4.11
6.09
7.44
8.15
8.34
8.17
7.77
7.19
6.46
5.58
4.63
3.78
3.18
2.98
3.19
3.71
4.38
5.01
5.44
5.59
5.43
4.98
4.31
3.53
2.79
2.17
1.67
1.20
0.60
-0.30
-1.55
-3.06
-4.66
-6.15
-7.44
-8.57
-9.70
-10.97
-12.48
-14.19
-15.95
-17.55
-18.69
-19.14
-18.72
-17.39
-15.22
-12.42
-9.26
-5.95
-2.69
0.37
3.10
5.35
7.01
8.06
8.57
8.71
8.68
8.63
8.62
8.63
8.59
8.47
8.26
8.00
7.76
7.60
7.53
7.54
7.57
7.56
7.47
7.32
7.07
6.67
5.97
4.85
3.23
1.22
-0.95
-2.98
-4.61
-5.80
-6.64
-7.31
-8.02
-8.80
-9.60
-10.31
-10.88
-11.43
-12.11
-13.06
-14.26
-15.51
-16.47
-16.81
-16.30
-14.89
-12.70
-9.95
-6.88
-3.75
-0.77
1.89
4.13
5.91
7.22
8.07
8.47
8.45
8.08
7.54
7.04
6.79
6.88
7.25
7.75
8.17
8.37
8.30
7.95
7.33
6.48
5.43
4.26
3.10
2.04
1.12
0.33
-0.43
-1.24
-2.14
-3.16
-4.30
-5.57
-6.93
-8.33
-9.67
-10.85
-11.83
-12.60
-13.29
-14.03
-14.98
-16.17
-17.52
-18.80
-19.61
-19.55
-18.28
-15.68
-11.88
-7.27
-2.36
2.38
6.61
10.18
13.04
15.22
16.77
17.72
18.12
18.04
17.56
16.75
15.69
14.45
13.10
11.75
10.51
9.44
8.52
7.62
6.59
5.33
3.80
2.12
0.47
-0.98
-2.11
-2.95
-3.55
-4.03
-4.39
-4.59
-4.55
-4.24
-3.77
-3.33
-3.16
-3.43
-4.23
-5.53
-7.25
-9.30
-11.56
-13.79
-15.66
-16.70
-16.48
-14.78
-11.68
-7.65
-3.28
0.83
4.30
7.03
9.12
10.78
12.15
13.30
14.24
14.99
15.56
16.01
16.33
16.48
16.35
15.88
15.04
13.86
12.36
10.64
8.78
6.89
5.08
3.38
1.76
0.13
-1.59
-3.42
-5.27
-7.02
-8.54
-9.77
-10.77
-11.69
-12.68
-13.90
-15.47
-17.48
-19.95
-22.78
-25.68
-28.24
-29.96
-30.44
-29.47
-27.09
-23.61
-19.44
-15.01
-10.64
-6.55
-2.82
0.47
3.28
5.56
7.28
8.48
9.21
9.60
9.75
9.80
9.80
9.78
9.65
9.38
9.00
8.59
8.39
8.56
9.18
10.12
11.11
11.89
12.28
12.30
12.12
11.93
11.84
11.80
11.64
11.19
10.36
9.17
7.68
5.95
4.01
1.86
-0.49
-2.88
-5.08
-6.73
-7.51
-7.17
-5.67
-3.19
-0.06
3.31
6.54
9.34
11.55
13.10
13.98
14.25
14.05
13.59
13.15
12.98
13.22
13.79
14.47
14.98
15.12
14.83
14.20
13.41
12.59
11.81
11.06
10.30
9.46
8.52
7.52
6.45
5.31
4.05
2.59
0.87
-1.12
-3.29
-5.49
-7.57
-9.44
-11.11
-12.65
-14.21
-15.87
-17.69
-19.59
-21.44
-23.02
-23.99
-24.05
-22.94
-20.56
-17.05
-12.75
-8.15
-3.73
0.09
3.12
5.31
6.76
7.62
8.06
8.22
8.24
8.21
8.18
8.21
8.29
8.46
8.75
9.15
9.62
10.05
10.26
10.11
9.54
8.68
7.73
6.92
6.29
5.76
5.13
4.22
2.97
1.46
-0.17
-1.81
-3.38
-4.87
-6.23
-7.43
-8.50
-9.55
-10.76
-12.33
-14.33
-16.60
-18.76
-20.31
-20.83
-20.04
-17.89
-14.54
-10.32
-5.63
-0.89
3.48
7.16
9.97
11.84
12.84
13.08
12.71
11.89
10.81
9.70
8.76
8.13
7.88
7.98
8.32
8.83
9.45
10.14
10.82
11.36
11.59
11.33
10.49
9.13
7.44
5.67
4.07
2.76
1.71
0.84
0.02
-0.86
-1.84
-2.88
-3.95
-5.04
-6.19
-7.51
-9.16
-11.28
-13.94
-17.08
-20.46
-23.68
-26.25
-27.64
-27.41
-25.34
-21.52
-16.30
-10.28
-4.11
1.63
6.59
10.57
13.50
15.40
16.28
16.22
15.35
13.92
12.20
10.54
9.22
8.42
8.21
8.48
9.04
9.61
9.96
9.97
9.62
9.02
8.27
7.44
6.53
5.47
4.25
2.87
1.40
-0.07
-1.52
-2.99
-4.53
-6.21
-7.98
-9.77
-11.43
-12.89
-14.15
-15.36
-16.73
-18.47
-20.63
-23.11
-25.59
-27.62
-28.67
-28.25
-26.07
-22.08
-16.51
-9.80
-2.55
4.62
11.19
16.76
21.15
24.40
26.69
28.29
29.44
30.31
30.96
31.39
31.59
31.56
31.32
30.81
29.94
28.56
26.57
23.94
20.79
17.28
13.58
9.80
6.00
2.20
-1.61
-5.46
-9.40
-13.51
-17.83
-22.29
-26.68
-30.70
-34.00
-36.34
-37.60
-37.79
-37.01
-35.39
-33.03
-30.05
-26.54
-22.62
-18.47
-14.25
-10.12
-6.21
-2.62
0.62
3.48
5.95
8.08
9.96
11.68
13.39
15.18
17.07
19.00
20.84
22.41
23.59
24.33
24.63
24.53
24.10
23.37
22.37
21.07
19.40
17.32
14.80
11.92
8.79
5.59
2.50
-0.35
-2.86
-5.01
-6.82
-8.37
-9.77
-11.17
-12.73
-14.56
-16.69
-18.99
-21.27
-23.30
-24.91
-26.07
-26.84
-27.41
-27.99
-28.68
-29.44
-30.03
-30.06
-29.07
-26.74
-22.96
-17.98
-12.25
-6.37
-0.83
4.01
8.02
11.17
13.50
15.05
15.90
16.18
16.13
16.01
16.00
16.15
16.34
16.39
16.18
15.74
15.20
14.74
14.41
14.13
13.76
13.15
12.25
11.09
9.75
8.26
6.61
4.77
2.77
0.73
-1.21
-2.90
-4.33
-5.58
-6.77
-8.02
-9.40
-10.90
-12.48
-14.11
-15.75
-17.38
-18.88
-20.12
-20.77
-20.53
-19.10
-16.37
-12.47
-7.76
-2.78
1.97
6.07
9.33
11.74
13.35
14.24
14.45
13.99
12.96
11.54
10.02
8.66
7.69
7.12
6.86
6.72
6.56
6.39
6.30
6.44
6.89
7.59
8.38
9.06
9.53
9.79
9.89
9.87
9.68
9.23
8.42
7.24
5.80
4.28
2.83
1.48
0.19
-1.19
-2.78
-4.67
-6.89
-9.48
-12.46
-15.81
-19.41
-22.90
-25.79
-27.51
-27.56
-25.75
-22.20
-17.35
-11.79
-6.14
-0.88
3.69
7.44
10.30
12.29
13.45
13.92
13.90
13.66
13.42
13.29
13.25
13.16
12.92
12.45
11.83
11.23
10.81
10.68
10.84
11.20
11.58
11.82
11.80
11.47
10.86
10.04
9.14
8.23
7.37
6.53
5.64
4.60
3.34
1.77
-0.08
-2.13
-4.20
-6.12
-7.76
-9.12
-10.37
-11.77
-13.57
-15.87
-18.54
-21.21
-23.41
-24.71
-24.77
-23.48
-20.87
-17.14
-12.61
-7.68
-2.75
1.82
5.82
9.15
11.81
13.84
15.28
16.18
16.62
16.72
16.63
16.45
16.25
16.01
15.71
15.34
14.98
14.69
14.54
14.51
14.56
14.58
14.45
14.10
13.50
12.64
11.57
10.35
9.10
7.92
6.89
6.05
5.34
4.61
3.73
2.53
0.99
-0.85
-2.84
-4.80
-6.60
-8.23
-9.74
-11.27
-12.95
-14.89
-17.15
-19.71
-22.44
-25.09
-27.27
-28.60
-28.73
-27.48
-24.87
-21.08
-16.43
-11.27
-5.95
-0.77
4.01
8.19
11.66
14.34
16.23
17.33
17.69
17.37
16.51
15.31
14.00
12.82
11.94
11.44
11.31
11.54
12.12
13.08
14.40
15.99
17.65
19.05
19.89
19.95
19.20
17.83
16.11
14.34
12.68
11.13
9.55
7.80
5.80
3.59
1.30
-0.93
-3.01
-4.96
-6.81
-8.60
-10.32
-11.91
-13.30
-14.52
-15.67
-16.89
-18.38
-20.23
-22.48
-24.99
-27.48
-29.54
-30.68
-30.49
-28.70
-25.33
-20.64
-15.09
-9.24
-3.58
1.50
5.75
9.08
11.53
13.22
14.34
15.09
15.65
16.14
16.62
17.12
17.67
18.27
18.93
19.65
20.41
21.13
21.73
22.05
21.98
21.41
20.31
18.71
16.71
14.38
11.79
9.02
6.12
3.20
0.35
-2.31
-4.74
-6.95
-9.02
-11.09
-13.23
-15.48
-17.82
-20.14
-22.34
-24.30
-25.95
-27.33
-28.54
-29.74
-31.05
-32.56
-34.23
-35.95
-37.55
-38.71
-39.08
-38.24
-35.85
-31.78
-26.23
-19.67
-12.82
-6.31
-0.60
4.17
8.15
11.56
14.58
17.23
19.37
20.85
21.59
21.64
21.22
20.56
19.87
19.30
18.85
18.52
18.26
18.08
18.00
18.01
18.06
18.07
17.97
17.71
17.35
16.94
16.55
16.19
15.83
15.34
14.61
13.51
12.05
10.25
8.24
6.16
4.08
2.05
0.03
-2.07
-4.30
-6.68
-9.15
-11.58
-13.88
-16.00
-18.01
-20.04
-22.23
-24.58
-26.89
-28.75
-29.66
-29.12
-26.90
-23.07
-17.99
-12.22
-6.35
-0.85
3.93
7.78
10.58
12.25
12.78
12.24
10.84
8.91
6.77
4.72
2.92
1.42
0.16
-0.87
-1.65
-2.04
-1.89
-1.13
0.20
1.95
3.89
5.81
7.57
9.08
10.27
11.16
11.76
12.12
12.33
12.44
12.44
12.22
11.63
10.55
8.95
6.90
4.57
2.09
-0.46
-3.05
-5.65
-8.27
-10.87
-13.43
-15.96
-18.50
-21.05
-23.55
-25.77
-27.33
-27.82
-26.92
-24.51
-20.78
-16.14
-11.10
-6.10
-1.45
2.65
6.13
8.93
10.99
12.26
12.77
12.67
12.18
11.55
11.00
10.61
10.38
10.24
10.09
9.88
9.62
9.33
9.06
8.81
8.55
8.21
7.68
6.89
5.80
4.47
3.04
1.71
0.66
-0.02
-0.40
-0.65
-1.03
-1.76
-2.91
-4.40
-6.05
-7.65
-9.10
-10.41
-11.69
-13.10
-14.82
-16.93
-19.41
-22.06
-24.56
-26.43
-27.19
-26.47
-24.20
-20.64
-16.33
-11.91
-7.90
-4.58
-1.91
0.27
2.16
3.86
5.38
6.71
7.90
9.02
10.16
11.32
12.40
13.25
13.75
13.90
13.84
13.78
13.92
14.38
15.07
15.80
16.26
16.22
15.58
14.39
12.89
11.39
10.11
9.15
8.41
7.71
6.91
5.93
4.81
3.66
2.53
1.41
0.19
-1.23
-2.93
-4.89
-7.05
-9.35
-11.69
-13.94
-15.93
-17.41
-18.10
-17.76
-16.25
-13.67
-10.28
-6.53
-2.90
0.19
2.59
4.35
5.70
6.88
8.04
9.15
10.07
10.67
10.95
11.04
11.09
11.14
11.12
10.86
10.22
9.21
7.98
6.78
5.77
4.98
4.32
3.65
2.86
1.98
1.12
0.38
-0.20
-0.70
-1.25
-1.96
-2.87
-3.91
-4.98
-5.96
-6.84
-7.76
-8.92
-10.56
-12.75
-15.36
-17.96
-20.02
-21.00
-20.57
-18.69
-15.63
-11.81
-7.71
-3.77
-0.35
2.31
4.07
4.95
5.08
4.71
4.07
3.36
2.67
2.03
1.47
1.05
0.83
0.84
1.02
1.25
1.43
1.53
1.63
1.91
2.51
3.43
4.53
5.50
6.04
5.95
5.24
4.07
2.70
1.32
0.01
-1.28
-2.69
-4.34
-6.33
-8.68
-11.35
-14.20
-17.06
-19.60
-21.48
-22.30
-21.77
-19.79
-16.50
-12.26
-7.58
-2.97
1.21
4.81
7.81
10.33
12.43
14.14
15.43
16.31
16.83
17.07
17.14
17.09
16.99
16.86
16.78
16.79
16.92
17.10
17.20
17.05
16.54
15.70
14.59
13.34
11.99
10.55
8.94
7.06
4.89
2.46
-0.09
-2.64
-5.06
-7.31
-9.42
-11.43
-13.42
-15.45
-17.61
-19.97
-22.55
-25.26
-27.84
-29.82
-30.68
-30.02
-27.70
-23.94
-19.25
-14.18
-9.20
-4.52
-0.22
3.67
7.08
9.82
11.74
12.83
13.26
13.33
13.34
13.45
13.64
13.78
13.71
13.41
12.97
12.55
12.27
12.14
12.04
11.82
11.32
10.48
9.36
8.06
6.74
5.50
4.40
3.40
2.43
1.35
0.07
-1.48
-3.26
-5.16
-7.11
-9.04
-10.95
-12.92
-15.08
-17.49
-20.22
-23.20
-26.29
-29.23
-31.68
-33.27
-33.66
-32.64
-30.19
-26.50
-21.94
-17.00
-12.12
-7.57
-3.43
0.40
4.08
7.71
11.20
14.37
17.03
19.09
20.62
21.82
22.92
24.13
25.49
26.98
28.45
29.72
30.59
30.89
30.49
29.29
27.28
24.45
20.90
16.84
12.61
8.61
5.15
2.38
0.20
-1.62
-3.33
-5.01
-6.50
-7.58
-8.06
-8.00
-7.72
-7.69
-8.39
-10.14
-12.99
-16.78
-21.16
-25.62
-29.55
-32.26
-33.18
-31.96
-28.58
-23.47
-17.28
-10.75
-4.45
1.30
6.39
10.79
14.42
17.18
19.01
19.98
20.36
20.45
20.47
20.45
20.27
19.79
19.01
18.15
17.48
17.22
17.36
17.64
17.75
17.43
16.65
15.55
14.31
13.03
11.67
10.08
8.11
5.72
2.97
0.01
-2.99
-5.90
-8.60
-10.98
-12.93
-14.34
-15.20
-15.66
-16.01
-16.61
-17.70
-19.23
-20.87
-22.03
-22.10
-20.63
-17.53
-13.03
-7.62
-1.83
3.86
9.10
13.73
17.63
20.80
23.22
24.91
25.88
26.13
25.68
24.56
22.87
20.73
18.36
16.01
13.92
12.25
11.05
10.22
9.55
8.80
7.76
6.30
4.38
2.07
-0.50
-3.17
-5.75
-8.11
-10.16
-11.91
-13.45
-14.88
-16.32
-17.82
-19.37
-20.90
-22.38
-23.86
-25.46
-27.30
-29.39
-31.57
-33.51
-34.72
-34.76
-33.31
-30.29
-25.88
-20.48
-14.58
-8.66
-3.16
1.63
5.54
8.50
10.53
11.66
12.01
11.70
10.92
9.87
8.75
7.69
6.66
5.56
4.18
2.39
0.20
-2.16
-4.31
-5.90
-6.70
-6.77
-6.42
-6.07
-6.06
-6.54
-7.47
-8.66
-9.89
-11.01
-11.94
-12.69
-13.27
-13.74
-14.14
-14.56
-15.06
-15.67
-16.35
-16.94
-17.18
-16.73
-15.29
-12.65
-8.78
-3.84
1.85
7.89
13.88
19.52
24.63
29.09
32.86
35.90
38.18
39.68
40.43
40.50
40.05
39.24
38.24
37.22
36.31
35.59
35.09
34.84
34.81
35.01
35.40
35.92
36.40
36.61
36.29
35.20
33.24
30.47
27.01
23.07
18.80
14.26
9.44
4.31
-1.14
-6.85
-12.75
-18.79
-24.95
-31.31
-37.91
-44.74
-51.60
-58.11
-63.69
-67.70
-69.59
-69.02
-65.95
-60.59
-53.38
-44.88
-35.70
-26.40
-17.41
-9.01
-1.24
5.99
12.84
19.45
25.83
31.87
37.35
42.04
45.72
48.24
49.59
49.89
49.39
48.38
47.19
46.00
44.86
43.65
42.14
40.02
37.05
33.05
28.02
22.11
15.58
8.72
1.82
-4.98
-11.60
-18.05
-24.30
-30.26
-35.70
-40.33
-43.80
-45.88
-46.57
-46.08
-44.87
-43.54
-42.61
-42.42
-42.95
-43.87
-44.60
-44.57
-43.32
-40.62
-36.50
-31.20
-25.09
-18.63
-12.30
-6.57
-1.80
1.84
4.38
6.07
7.25
8.28
9.30
10.24
10.89
11.00
10.49
9.52
8.40
7.52
7.09
7.13
7.45
7.78
7.86
7.51
6.63
5.16
3.09
0.54
-2.15
-4.45
-5.77
-5.67
-4.08
-1.32
2.02
5.29
8.07
10.21
11.82
13.10
14.15
15.00
15.60
15.94
16.10
16.19
16.24
16.15
15.72
14.76
13.26
11.41
9.58
8.14
7.32
7.08
7.20
7.39
7.36
6.94
6.02
4.62
2.78
0.64
-1.63
-3.83
-5.88
-7.78
-9.70
-11.86
-14.45
-17.49
-20.83
-24.17
-27.07
-29.14
-30.00
-29.46
-27.50
-24.34
-20.36
-16.05
-11.86
-8.12
-4.97
-2.49
-0.68
0.46
0.91
0.75
0.15
-0.66
-1.42
-1.95
-2.21
-2.25
-2.19
-2.13
-2.10
-2.03
-1.85
-1.50
-1.00
-0.47
-0.10
-0.09
-0.54
-1.46
-2.74
-4.19
-5.68
-7.16
-8.64
-10.17
-11.76
-13.42
-15.17
-17.17
-19.54
-22.29
-25.22
-27.88
-29.67
-30.07
-28.86
-26.12
-22.24
-17.70
-13.01
-8.54
-4.57
-1.28
1.29
3.18
4.58
5.70
6.77
7.94
9.28
10.81
12.52
14.42
16.54
18.91
21.51
24.29
27.20
30.19
33.19
36.06
38.63
40.63
41.83
42.12
41.52
40.15
38.16
35.56
32.25
28.04
22.83
16.69
9.86
2.70
-4.40
-11.09
-17.05
-22.00
-25.69
-27.95
-28.78
-28.36
-27.03
-25.17
-23.11
-21.09
-19.25
-17.68
-16.48
-15.75
-15.58
-15.98
-16.86
-18.06
-19.36
-20.64
-21.83
-22.94
-24.02
-25.07
-26.09
-26.96
-27.59
-27.90
-27.89
-27.60
-27.14
-26.59
-26.02
-25.38
-24.56
-23.41
-21.79
-19.63
-17.00
-14.06
-11.07
-8.32
-6.05
-4.45
-3.56
-3.25
-3.16
-2.84
-1.81
0.22
3.27
7.05
11.11
15.01
18.43
21.21
23.30
24.70
25.43
25.55
25.20
24.61
24.01
23.54
23.24
23.06
22.94
22.85
22.82
22.89
23.07
23.35
23.69
24.07
24.50
24.94
25.33
25.53
25.43
24.99
24.25
23.36
22.52
21.76
20.98
19.87
18.12
15.53
12.15
8.26
4.27
0.57
-2.50
-4.72
-5.93
-6.02
-4.95
-2.88
-0.16
2.74
5.31
7.14
8.03
7.89
6.74
4.63
1.67
-1.94
-5.89
-9.80
-13.26
-15.91
-17.52
-17.95
-17.24
-15.62
-13.42
-11.04
-8.83
-7.00
-5.60
-4.56
-3.75
-3.09
-2.50
-1.94
-1.35
-0.75
-0.17
0.26
0.42
0.25
-0.24
-0.92
-1.64
-2.22
-2.53
-2.43
-1.76
-0.35
1.90
4.98
8.69
12.68
16.53
19.82
22.27
23.75
24.26
23.93
22.94
21.52
19.86
18.16
16.60
15.33
14.43
13.88
13.55
13.28
12.87
12.23
11.35
10.30
9.11
7.73
6.05
3.94
1.38
-1.50
-4.46
-7.31
-10.01
-12.72
-15.74
-19.31
-23.48
-28.10
-32.77
-37.03
-40.44
-42.66
-43.48
-42.80
-40.70
-37.35
-33.06
-28.20
-23.16
-18.27
-13.82
-10.03
-7.00
-4.75
-3.18
-2.07
-1.16
-0.21
0.89
2.18
3.63
5.23
6.99
8.89
10.86
12.72
14.20
15.00
14.91
13.83
11.79
8.98
5.60
1.87
-2.09
-6.25
-10.65
-15.32
-20.23
-25.17
-29.77
-33.53
-35.96
-36.65
-35.39
-32.18
-27.27
-21.08
-14.18
-7.15
-0.52
5.29
10.07
13.77
16.50
18.45
19.83
20.82
21.52
21.98
22.15
22.01
21.53
20.72
19.66
18.47
17.30
16.25
15.41
14.83
14.50
14.33
14.23
14.07
13.78
13.30
12.63
11.79
10.71
9.29
7.33
4.67
1.25
-2.82
-7.25
-11.57
-15.27
-17.81
-18.75
-17.86
-15.12
-10.83
-5.53
0.04
5.18
9.31
12.15
13.66
14.00
13.43
12.17
10.41
8.30
6.01
3.74
1.77
0.39
-0.05
0.79
3.18
7.24
12.86
19.64
26.88
33.82
39.69
43.99
46.50
47.26
46.49
44.43
41.28
37.24
32.50
27.25
21.71
15.97
10.02
3.81
-2.70
-9.40
-15.96
-21.86
-26.54
-29.49
-30.45
-29.43
-26.76
-22.96
-18.66
-14.41
-10.61
-7.41
-4.83
-2.75
-1.12
0.05
0.68
0.73
0.27
-0.45
-1.12
-1.43
-1.21
-0.50
0.53
1.63
2.65
3.51
4.27
4.93
5.45
5.65
5.33
4.37
2.79
0.77
-1.44
-3.64
-5.80
-8.02
-10.49
-13.41
-16.81
-20.59
-24.47
-28.05
-30.86
-32.47
-32.56
-30.98
-27.79
-23.23
-17.66
-11.50
-5.19
0.88
6.35
10.91
14.37
16.70
17.99
18.41
18.21
17.56
16.65
15.61
14.62
13.88
13.59
13.89
14.79
16.10
17.52
18.76
19.58
19.93
19.86
19.44
18.63
17.28
15.12
11.88
7.40
1.77
-4.72
-11.62
-18.50
-24.96
-30.75
-35.74
-39.92
-43.33
-46.01
-47.98
-49.19
-49.49
-48.67
-46.46
-42.67
-37.25
-30.38
-22.53
-14.32
-6.45
0.53
6.28
10.72
13.94
16.15
17.58
18.48
19.12
19.69
20.37
21.13
21.88
22.44
22.71
22.71
22.55
22.31
21.98
21.40
20.39
18.89
17.00
14.97
13.05
11.37
9.93
8.55
7.11
5.54
3.89
2.23
0.63
-0.92
-2.48
-4.16
-6.02
-8.11
-10.52
-13.36
-16.69
-20.46
-24.46
-28.23
-31.20
-32.80
-32.57
-30.39
-26.41
-21.10
-15.09
-9.05
-3.52
1.20
5.04
8.11
10.63
12.76
14.61
16.20
17.53
18.64
19.62
20.54
21.41
22.17
22.67
22.78
22.45
21.73
20.77
19.64
18.39
16.99
15.35
13.45
11.31
8.98
6.57
4.14
1.77
-0.45
-2.38
-3.89
-4.89
-5.45
-5.74
-5.97
-6.30
-6.76
-7.25
-7.73
-8.27
-9.07
-10.40
-12.38
-14.90
-17.50
-19.60
-20.60
-20.14
-18.13
-14.74
-10.35
-5.41
-0.39
4.33
8.45
11.79
14.25
15.82
16.54
16.51
15.92
14.99
13.93
12.88
11.84
10.73
9.46
8.03
6.53
5.15
4.07
3.40
3.13
3.12
3.21
3.19
2.95
2.43
1.66
0.75
-0.13
-0.79
-1.05
-0.81
-0.10
0.90
1.91
2.66
3.01
2.98
2.76
2.55
2.44
2.35
2.01
1.15
-0.47
-2.93
-6.15
-9.89
-13.80
-17.39
-20.12
-21.48
-21.11
-18.97
-15.32
-10.70
-5.71
-0.86
3.53
7.30
10.34
12.59
13.97
14.47
14.23
13.48
12.56
11.73
11.13
10.70
10.34
9.93
9.40
8.80
8.16
7.49
6.71
5.71
4.42
2.81
0.98
-0.88
-2.55
-3.84
-4.69
-5.15
-5.40
-5.67
-6.16
-6.96
-8.08
-9.40
-10.80
-12.22
-13.63
-15.00
-16.31
-17.50
-18.59
-19.69
-21.00
-22.70
-24.78
-26.97
-28.76
-29.50
-28.64
-25.94
-21.49
-15.70
-9.15
-2.51
3.65
8.84
12.75
15.27
16.47
16.56
15.86
14.67
13.27
11.89
10.80
10.18
10.18
10.78
11.83
13.06
14.20
15.05
15.52
15.60
15.35
14.86
14.22
13.46
12.64
11.77
10.86
9.93
8.97
7.99
6.92
5.72
4.34
2.78
1.03
-0.85
-2.83
-4.88
-7.00
-9.17
-11.41
-13.73
-16.11
-18.56
-21.02
-23.31
-25.10
-25.99
-25.63
-23.88
-20.81
-16.70
-11.95
-6.96
-2.10
2.32
6.04
8.84
10.61
11.36
11.25
10.54
9.50
8.36
7.26
6.28
5.47
4.83
4.35
3.97
3.60
3.14
2.53
1.74
0.85
-0.01
-0.72
-1.21
-1.52
-1.82
-2.27
-3.00
-3.99
-5.11
-6.17
-7.06
-7.73
-8.28
-8.87
-9.66
-10.76
-12.23
-14.00
-15.89
-17.60
-18.74
-18.93
-17.91
-15.63
-12.32
-8.41
-4.36
-0.60
2.68
5.45
7.76
9.69
11.19
12.14
12.47
12.19
11.48
10.57
9.68
8.88
8.14
7.40
6.60
5.79
5.03
4.40
3.88
3.42
2.93
2.32
1.52
0.48
-0.88
-2.57
-4.59
-6.84
-9.12
-11.27
-13.18
-14.85
-16.46
-18.24
-20.38
-22.94
-25.76
-28.50
-30.71
-31.94
-31.85
-30.27
-27.23
-22.96
-17.84
-12.39
-7.11
-2.40
1.48
4.47
6.60
7.95
8.58
8.59
8.10
7.31
6.46
5.77
5.35
5.15
5.07
4.96
4.70
4.28
3.72
3.09
2.46
1.87
1.33
0.81
0.25
-0.43
-1.26
-2.21
-3.19
-4.15
-5.07
-6.07
-7.31
-9.01
-11.25
-13.93
-16.78
-19.35
-21.15
-21.74
-20.86
-18.45
-14.70
-9.98
-4.80
0.35
5.06
9.04
12.15
14.34
15.64
16.13
15.96
15.36
14.58
13.88
13.40
13.17
13.06
12.86
12.42
11.69
10.73
9.67
8.62
7.62
6.58
5.36
3.81
1.87
-0.43
-2.89
-5.33
-7.54
-9.42
-10.98
-12.30
-13.47
-14.51
-15.29
-15.58
-15.10
-13.65
-11.13
-7.65
-3.42
1.29
6.16
10.89
15.24
18.99
21.96
24.07
25.27
25.55
24.95
23.55
21.51
19.08
16.61
14.44
12.86
11.98
11.70
11.77
11.91
11.91
11.75
11.57
11.55
11.76
12.12
12.37
12.21
11.46
10.13
8.41
6.59
4.92
3.56
2.59
1.99
1.66
1.43
1.05
0.30
-0.90
-2.41
-3.86
-4.78
-4.79
-3.70
-1.63
1.14
4.26
7.42
10.41
13.13
15.45
17.27
18.47
18.95
18.71
17.88
16.64
15.25
13.95
12.87
12.08
11.55
11.21
10.99
10.88
10.84
10.90
11.05
11.22
11.26
10.91
9.86
7.85
4.78
0.76
-3.88
-8.67
-13.15
-17.00
-20.08
-22.43
-24.21
-25.64
-26.89
-28.06
-29.16
-30.06
-30.48
-30.16
-28.85
-26.43
-22.94
-18.62
-13.82
-8.99
-4.60
-1.03
1.48
2.84
3.17
2.72
1.85
0.88
0.07
-0.41
-0.50
-0.26
0.23
0.83
1.41
1.88
2.22
2.48
2.71
2.91
3.01
2.84
2.25
1.16
-0.37
-2.13
-3.86
-5.32
-6.40
-7.12
-7.59
-7.97
-8.39
-8.96
-9.74
-10.68
-11.61
-12.22
-12.17
-11.18
-9.17
-6.24
-2.70
1.08
4.73
7.98
10.63
12.62
13.94
14.67
14.85
14.54
13.76
12.55
10.99
9.20
7.32
5.46
3.65
1.87
0.11
-1.59
-3.13
-4.45
-5.49
-6.28
-6.86
-7.23
-7.35
-7.14
-6.61
-5.85
-5.06
-4.47
-4.22
-4.37
-4.88
-5.71
-6.87
-8.45
-10.56
-13.20
-16.28
-19.48
-22.32
-24.26
-24.79
-23.61
-20.69
-16.35
-11.17
-5.83
-0.89
3.28
6.61
9.19
11.18
12.68
13.74
14.34
14.53
14.40
14.12
13.88
13.77
13.79
13.83
13.74
13.39
12.73
11.78
10.61
9.31
7.99
6.66
5.33
3.97
2.52
0.94
-0.81
-2.75
-4.88
-7.20
-9.73
-12.51
-15.58
-18.88
-22.30
-25.63
-28.65
-31.26
-33.41
-35.10
-36.22
-36.56
-35.75
-33.49
-29.70
-24.65
-18.89
-13.05
-7.64
-2.89
1.20
4.71
7.59
9.67
10.71
10.58
9.44
7.70
5.92
4.62
4.12
4.52
5.78
7.74
10.23
13.03
15.93
18.63
20.88
22.44
23.17
23.07
22.23
20.85
19.19
17.47
15.79
14.09
12.18
9.90
7.22
4.35
1.60
-0.73
-2.54
-3.97
-5.33
-6.95
-8.99
-11.43
-14.04
-16.51
-18.47
-19.56
-19.47
-17.97
-15.00
-10.71
-5.50
0.10
5.58
10.47
14.53
17.62
19.78
21.08
21.68
21.71
21.31
20.62
19.75
18.85
18.03
17.38
16.93
16.66
16.52
16.46
16.48
16.55
16.64
16.70
16.64
16.34
15.74
14.81
13.58
12.07
10.35
8.45
6.47
4.46
2.46
0.45
-1.67
-3.95
-6.39
-8.88
-11.26
-13.43
-15.42
-17.42
-19.66
-22.34
-25.54
-29.13
-32.85
-36.27
-38.91
-40.29
-39.97
-37.71
-33.53
-27.76
-20.95
-13.76
-6.84
-0.67
4.48
8.52
11.47
13.47
14.69
15.33
15.59
15.67
15.71
15.84
16.13
16.65
17.43
18.43
19.49
20.42
21.04
21.26
21.10
20.59
19.78
18.66
17.17
15.31
13.22
11.13
9.30
7.85
6.76
5.86
4.99
4.00
2.87
1.60
0.21
-1.28
-2.86
-4.50
-6.19
-8.02
-10.14
-12.73
-15.89
-19.49
-23.18
-26.42
-28.65
-29.47
-28.74
-26.52
-23.04
-18.54
-13.31
-7.65
-1.98
3.27
7.69
11.01
13.21
14.43
14.96
15.07
14.99
14.82
14.64
14.48
14.35
14.26
14.24
14.32
14.55
15.00
15.66
16.43
17.09
17.36
17.03
16.04
14.52
12.72
10.84
9.03
7.27
5.45
3.50
1.37
-0.87
-3.14
-5.34
-7.44
-9.43
-11.34
-13.17
-15.01
-16.94
-19.11
-21.55
-24.17
-26.69
-28.66
-29.59
-29.10
-27.02
-23.46
-18.73
-13.33
-7.77
-2.49
2.20
6.17
9.41
11.97
13.89
15.21
15.92
16.08
15.79
15.21
14.55
14.00
13.67
13.58
13.67
13.82
13.87
13.74
13.35
12.68
11.70
10.41
8.79
6.93
4.98
3.10
1.44
-0.02
-1.42
-2.97
-4.78
-6.83
-8.93
-10.88
-12.61
-14.24
-16.05
-18.33
-21.19
-24.48
-27.83
-30.69
-32.51
-32.82
-31.37
-28.20
-23.59
-18.00
-12.00
-6.07
-0.60
4.20
8.23
11.46
13.88
15.51
16.38
16.60
16.36
15.85
15.30
14.84
14.54
14.38
14.29
14.18
13.99
13.68
13.25
12.69
11.99
11.14
10.07
8.76
7.18
5.36
3.33
1.13
-1.22
-3.66
-6.10
-8.46
-10.64
-12.60
-14.39
-16.13
-17.98
-20.11
-22.61
-25.45
-28.46
-31.31
-33.52
-34.60
-34.16
-32.03
-28.32
-23.41
-17.80
-11.95
-6.22
-0.84
4.02
8.20
11.52
13.87
15.23
15.74
15.65
15.25
14.80
14.47
14.30
14.27
14.34
14.46
14.62
14.81
14.99
15.07
14.87
14.23
13.03
11.25
9.03
6.54
3.94
1.30
-1.43
-4.32
-7.45
-10.76
-14.12
-17.30
-20.06
-22.26
-23.87
-24.98
-25.77
-26.51
-27.50
-28.96
-31.00
-33.43
-35.83
-37.59
-38.06
-36.79
-33.63
-28.74
-22.53
-15.50
-8.13
-0.84
6.05
12.27
17.57
21.82
24.97
27.07
28.27
28.81
28.93
28.89
28.85
28.90
29.06
29.24
29.36
29.36
29.22
28.97
28.66
28.32
27.98
27.62
27.19
26.65
25.94
25.01
23.88
22.58
21.19
19.79
18.42
17.05
15.56
13.78
11.60
9.03
6.20
3.42
0.96
-0.96
-2.38
-3.48
-4.67
-6.36
-8.94
-12.61
-17.34
-22.78
-28.32
-33.16
-36.59
-38.13
-37.65
-35.42
-31.90
-27.60
-22.90
-18.06
-13.27
-8.69
-4.57
-1.10
1.60
3.61
5.17
6.54
7.96
9.53
11.17
12.81
14.35
15.80
17.22
18.65
20.06
21.36
22.42
23.13
23.38
23.13
22.29
20.84
18.80
16.29
13.55
10.86
8.49
6.52
4.92
3.48
1.99
0.31
-1.62
-3.69
-5.75
-7.61
-9.15
-10.35
-11.31
-12.24
-13.38
-14.95
-17.08
-19.75
-22.76
-25.73
-28.04
-28.95
-27.75
-24.00
-17.81
-9.88
-1.35
6.55
12.89
17.29
19.92
21.21
21.63
21.42
20.64
19.28
17.38
15.14
12.83
10.74
9.04
7.77
6.85
6.14
5.53
4.98
4.55
4.33
4.37
4.60
4.86
4.94
4.70
4.15
3.40
2.65
2.03
1.56
1.12
0.62
-0.03
-0.78
-1.57
-2.30
-3.00
-3.74
-4.64
-5.77
-7.12
-8.57
-10.01
-11.35
-12.57
-13.72
-14.86
-16.12
-17.60
-19.43
-21.66
-24.18
-26.68
-28.64
-29.50
-28.82
-26.39
-22.36
-17.15
-11.31
-5.42
0.06
4.78
8.56
11.32
13.11
14.00
14.09
13.52
12.46
11.11
9.73
8.57
7.78
7.46
7.56
7.95
8.46
8.91
9.15
9.08
8.70
8.09
7.38
6.67
5.98
5.23
4.30
3.04
1.39
-0.61
-2.83
-5.10
-7.32
-9.46
-11.61
-13.88
-16.33
-18.94
-21.60
-24.13
-26.35
-28.12
-29.28
-29.74
-29.50
-28.68
-27.51
-26.23
-24.95
-23.60
-21.87
-19.40
-15.87
-11.22
-5.62
0.50
6.62
12.27
17.09
20.87
23.59
25.33
26.20
26.36
25.94
25.09
24.01
22.95
22.15
21.75
21.71
21.89
22.07
22.03
21.69
21.02
20.04
18.79
17.25
15.43
13.36
11.09
8.76
6.53
4.54
2.84
1.36
-0.13
-1.89
-4.11
-6.79
-9.77
-12.74
-15.45
-17.82
-19.97
-22.13
-24.51
-27.23
-30.23
-33.28
-36.08
-38.24
-39.39
-39.16
-37.33
-33.84
-28.88
-22.81
-16.13
-9.34
-2.87
2.95
7.90
11.86
14.81
16.80
17.94
18.43
18.45
18.21
17.89
17.61
17.43
17.35
17.30
17.23
17.11
16.94
16.74
16.52
16.25
15.83
15.13
14.07
12.63
10.87
8.97
7.09
5.32
3.61
1.81
-0.25
-2.65
-5.33
-8.11
-10.77
-13.23
-15.56
-18.00
-20.79
-23.97
-27.29
-30.26
-32.26
-32.77
-31.51
-28.53
-24.09
-18.66
-12.76
-6.87
-1.39
3.40
7.32
10.31
12.41
13.70
14.30
14.31
13.89
13.21
12.42
11.64
10.94
10.32
9.76
9.20
8.60
7.92
7.14
6.26
5.31
4.38
3.55
2.90
2.43
2.07
1.71
1.21
0.53
-0.32
-1.30
-2.37
-3.48
-4.66
-5.92
-7.30
-8.86
-10.68
-12.82
-15.24
-17.71
-19.80
-20.98
-20.71
-18.70
-14.98
-9.93
-4.18
1.59
6.81
11.16
14.54
17.04
18.78
19.87
20.34
20.19
19.48
18.34
16.95
15.57
14.37
13.45
12.80
12.38
12.12
11.98
11.90
11.83
11.66
11.28
10.58
9.55
8.24
6.72
5.11
3.42
1.64
-0.29
-2.34
-4.47
-6.55
-8.51
-10.33
-12.10
-13.96
-16.07
-18.55
-21.37
-24.37
-27.19
-29.39
-30.46
-30.03
-27.89
-24.13
-19.01
-12.99
-6.59
-0.31
5.45
10.39
14.39
17.41
19.56
20.97
21.76
22.00
21.78
21.18
20.35
19.45
18.60
17.91
17.35
16.89
16.46
16.00
15.49
14.89
14.16
13.23
12.04
10.57
8.89
7.08
5.27
3.56
2.00
0.61
-0.66
-1.90
-3.22
-4.73
-6.46
-8.42
-10.56
-12.87
-15.39
-18.24
-21.53
-25.22
-29.00
-32.33
-34.52
-34.93
-33.23
-29.49
-24.14
-17.83
-11.23
-4.84
1.00
6.18
10.64
14.33
17.21
19.24
20.48
21.02
21.09
20.88
20.57
20.30
20.10
19.99
19.93
19.86
19.69
19.34
18.74
17.86
16.73
15.39
13.91
12.35
10.73
9.05
7.29
5.39
3.34
1.18
-1.00
-3.12
-5.12
-6.96
-8.68
-10.33
-11.99
-13.74
-15.60
-17.52
-19.34
-20.78
-21.49
-21.11
-19.38
-16.25
-11.92
-6.82
-1.48
3.58
7.93
11.39
13.90
15.57
16.54
16.94
16.90
16.54
16.03
15.51
15.15
15.01
15.06
15.19
15.21
15.01
14.50
13.69
12.63
11.40
10.07
8.67
7.19
5.59
3.84
1.91
-0.13
-2.20
-4.22
-6.10
-7.84
-9.49
-11.15
-12.92
-14.82
-16.85
-18.95
-21.09
-23.17
-25.04
-26.40
-26.88
-26.12
-23.92
-20.35
-15.74
-10.59
-5.38
-0.47
3.96
7.85
11.18
13.92
16.03
17.50
18.39
18.80
18.86
18.69
18.39
18.08
17.83
17.64
17.48
17.23
16.76
16.02
15.04
13.93
12.83
11.83
10.89
9.93
8.85
7.62
6.30
5.03
3.91
2.91
1.91
0.71
-0.84
-2.71
-4.76
-6.79
-8.66
-10.37
-12.02
-13.74
-15.57
-17.46
-19.31
-21.06
-22.63
-23.94
-24.77
-24.79
-23.64
-21.07
-17.14
-12.18
-6.81
-1.67
2.75
6.19
8.64
10.22
11.09
11.43
11.42
11.23
11.04
10.94
10.91
10.87
10.71
10.41
10.00
9.61
9.33
9.19
9.08
8.86
8.36
7.53
6.39
5.02
3.51
1.93
0.35
-1.15
-2.50
-3.63
-4.55
-5.33
-6.10
-6.94
-7.89
-8.86
-9.75
-10.50
-11.11
-11.65
-12.24
-13.00
-14.00
-15.28
-16.80
-18.41
-19.83
-20.67
-20.56
-19.25
-16.75
-13.33
-9.43
-5.50
-1.95
1.03
3.37
5.15
6.47
7.40
7.98
8.23
8.18
7.93
7.62
7.42
7.44
7.63
7.90
8.09
8.12
8.01
7.92
8.00
8.29
8.75
9.19
9.45
9.42
9.06
8.48
7.76
6.98
6.13
5.19
4.10
2.89
1.61
0.37
-0.79
-1.88
-3.03
-4.43
-6.23
-8.49
-11.15
-14.04
-16.89
-19.40
-21.22
-21.99
-21.47
-19.57
-16.50
-12.68
-8.67
-4.99
-1.93
0.41
2.11
3.28
3.97
4.20
4.04
3.61
3.13
2.84
2.90
3.33
3.99
4.69
5.21
5.47
5.49
5.39
5.31
5.27
5.12
4.64
3.62
2.04
0.12
-1.79
-3.39
-4.55
-5.43
-6.29
-7.41
-8.90
-10.67
-12.45
-13.99
-15.07
-15.60
-15.60
-15.19
-14.56
-13.93
-13.54
-13.55
-14.01
-14.81
-15.68
-16.25
-16.09
-14.88
-12.51
-9.17
-5.29
-1.42
1.97
4.64
6.58
7.99
9.04
9.82
10.28
10.33
9.94
9.21
8.37
7.63
7.15
6.94
6.92
6.94
6.94
6.88
6.79
6.72
6.66
6.59
6.45
6.20
5.80
5.23
4.47
3.55
2.56
1.61
0.82
0.26
-0.11
-0.41
-0.81
-1.47
-2.44
-3.70
-5.14
-6.62
-8.03
-9.33
-10.58
-11.87
-13.33
-15.03
-16.96
-18.99
-20.84
-22.19
-22.69
-22.12
-20.38
-17.60
-14.04
-10.07
-6.04
-2.24
1.15
4.02
6.32
8.03
9.14
9.70
9.78
9.52
9.06
8.53
8.05
7.72
7.61
7.77
8.19
8.78
9.39
9.84
9.97
9.71
9.13
8.39
7.68
7.12
6.68
6.19
5.42
4.21
2.57
0.64
-1.32
-3.09
-4.54
-5.68
-6.60
-7.41
-8.18
-8.90
-9.52
-9.98
-10.20
-10.19
-10.03
-9.88
-9.90
-10.27
-11.05
-12.24
-13.70
-15.21
-16.43
-17.03
-16.71
-15.31
-12.89
-9.66
-5.98
-2.20
1.40
4.63
7.39
9.63
11.30
12.35
12.75
12.53
11.76
10.57
9.15
7.64
6.18
4.84
3.68
2.68
1.84
1.16
0.62
0.23
-0.07
-0.34
-0.67
-1.15
-1.77
-2.42
-2.97
-3.26
-3.23
-2.94
-2.51
-2.07
-1.71
-1.44
-1.24
-1.10
-1.05
-1.14
-1.34
-1.59
-1.82
-2.01
-2.27
-2.73
-3.55
-4.80
-6.42
-8.27
-10.19
-12.00
-13.52
-14.51
-14.71
-13.90
-11.99
-9.09
-5.52
-1.71
1.95
5.11
7.62
9.44
10.59
11.16
11.23
10.89
10.24
9.45
8.67
8.05
7.69
7.58
7.64
7.77
7.87
7.92
7.95
8.01
8.11
8.18
8.10
7.78
7.22
6.47
5.66
4.88
4.15
3.43
2.62
1.63
0.43
-0.95
-2.50
-4.14
-5.78
-7.36
-8.83
-10.22
-11.64
-13.28
-15.33
-17.89
-20.88
-24.05
-26.99
-29.27
-30.53
-30.55
-29.29
-26.84
-23.43
-19.36
-14.92
-10.41
-6.00
-1.85
1.93
5.22
7.90
9.88
11.19
11.95
12.38
12.71
13.08
13.51
13.90
14.16
14.20
14.05
13.76
13.37
12.81
11.97
10.71
9.00
6.94
4.74
2.63
0.73
-0.91
-2.38
-3.75
-5.10
-6.42
-7.65
-8.72
-9.61
-10.35
-11.05
-11.87
-12.97
-14.42
-16.22
-18.22
-20.17
-21.74
-22.66
-22.69
-21.69
-19.66
-16.70
-13.03
-8.98
-4.89
-1.07
2.30
5.15
7.47
9.33
10.76
11.77
12.36
12.55
12.39
12.00
11.51
11.06
10.72
10.54
10.53
10.65
10.88
11.17
11.45
11.66
11.73
11.63
11.36
10.91
10.25
9.36
8.23
6.88
5.37
3.76
2.13
0.46
-1.23
-2.95
-4.68
-6.44
-8.30
-10.40
-12.89
-15.87
-19.26
-22.78
-25.99
-28.41
-29.60
-29.30
-27.41
-24.09
-19.65
-14.54
-9.25
-4.23
0.24
4.02
7.10
9.51
11.31
12.51
13.18
13.44
13.53
13.67
14.03
14.62
15.33
16.03
16.65
17.18
17.69
18.23
18.75
19.15
19.28
19.05
18.42
17.42
16.15
14.72
13.21
11.67
10.10
8.43
6.58
4.51
2.22
-0.19
-2.58
-4.80
-6.78
-8.53
-10.22
-12.06
-14.29
-17.02
-20.13
-23.20
-25.66
-26.91
-26.54
-24.49
-21.05
-16.70
-11.96
-7.25
-2.80
1.31
5.03
8.32
11.08
13.21
14.66
15.46
15.76
15.81
15.86
16.08
16.54
17.20
17.94
18.66
19.29
19.81
20.23
20.53
20.65
20.49
19.96
19.01
17.70
16.12
14.43
12.77
11.21
9.76
8.36
6.92
5.39
3.75
2.03
0.29
-1.43
-3.11
-4.76
-6.40
-8.11
-9.93
-11.97
-14.31
-16.98
-19.86
-22.65
-24.87
-25.99
-25.56
-23.40
-19.66
-14.87
-9.68
-4.78
-0.68
2.38
4.38
5.49
5.94
6.04
6.05
6.25
6.82
7.83
9.24
10.88
12.56
14.15
15.58
16.86
18.02
19.02
19.82
20.35
20.58
20.55
20.27
19.77
19.00
17.86
16.29
14.32
12.09
9.79
7.57
5.45
3.38
1.24
-0.98
-3.19
-5.17
-6.68
-7.64
-8.14
-8.41
-8.77
-9.45
-10.54
-11.99
-13.65
-15.30
-16.65
-17.35
-17.06
-15.52
-12.72
-8.93
-4.58
-0.17
3.92
7.53
10.65
13.35
15.64
17.46
18.75
19.50
19.80
19.82
19.74
19.66
19.65
19.71
19.84
19.99
20.08
19.95
19.48
18.59
17.29
15.69
13.91
12.06
10.17
8.23
6.17
3.98
1.69
-0.67
-3.00
-5.20
-7.13
-8.66
-9.66
-10.06
-9.87
-9.22
-8.32
-7.41
-6.65
-6.15
-5.88
-5.79
-5.86
-6.19
-6.91
-8.13
-9.82
-11.68
-13.30
-14.22
-14.12
-12.91
-10.74
-7.90
-4.73
-1.57
1.34
3.83
5.82
7.28
8.26
8.82
9.05
9.08
8.95
8.73
8.42
8.01
7.52
7.02
6.64
6.49
6.67
7.18
7.89
8.62
9.19
9.52
9.55
9.31
8.81
8.08
7.16
6.14
5.13
4.25
3.55
2.99
2.44
1.77
0.87
-0.28
-1.60
-2.95
-4.23
-5.35
-6.34
-7.29
-8.34
-9.60
-11.14
-12.94
-14.93
-16.96
-18.91
-20.60
-21.84
-22.38
-21.97
-20.42
-17.74
-14.14
-10.03
-5.88
-2.11
1.02
3.41
5.08
6.08
6.43
6.17
5.36
4.20
2.93
1.84
1.14
0.88
0.99
1.30
1.67
2.03
2.38
2.75
3.16
3.54
3.78
3.76
3.45
2.85
2.06
1.19
0.39
-0.22
-0.54
-0.57
-0.38
-0.17
-0.14
-0.46
-1.20
-2.30
-3.59
-4.89
-6.11
-7.21
-8.27
-9.36
-10.59
-12.00
-13.65
-15.48
-17.37
-19.01
-20.03
-20.05
-18.86
-16.50
-13.30
-9.80
-6.51
-3.81
-1.81
-0.40
0.66
1.64
2.72
3.95
5.32
6.77
8.25
9.76
11.24
12.64
13.83
14.72
15.23
15.38
15.22
14.87
14.38
13.83
13.25
12.71
12.26
11.91
11.57
11.07
10.24
9.03
7.52
5.95
4.58
3.57
2.99
2.77
2.79
2.94
3.11
3.21
3.16
2.90
2.44
1.89
1.34
0.90
0.56
0.29
0.09
0.06
0.42
1.44
3.37
6.35
10.29
14.84
19.35
22.95
24.69
23.81
20.03
13.67
5.61
-3.03
-11.24
-18.39
-24.30
-29.09
-32.98
-36.09
-38.41
-39.80
-40.11
-39.24
-37.17
-33.92
-29.63
-24.52
-18.94
-13.31
-8.09
-3.70
-0.40
1.73
2.84
3.22
3.24
3.19
3.21
3.26
3.21
2.88
2.21
1.23
0.05
-1.17
-2.36
-3.51
-4.68
-5.91
-7.20
-8.51
-9.80
-11.08
-12.37
-13.64
-14.76
-15.44
-15.38
-14.33
-12.31
-9.57
-6.56
-3.73
-1.39
0.41
1.85
3.14
4.41
5.60
6.46
6.73
6.28
5.15
3.57
1.92
0.63
0.17
0.99
3.46
7.67
13.30
19.60
25.54
30.09
32.57
32.78
31.04
27.89
23.96
19.76
15.68
11.99
8.83
6.21
3.97
1.82
-0.58
-3.41
-6.69
-10.20
-13.63
-16.72
-19.32
-21.51
-23.50
-25.55
-27.87
-30.48
-33.20
-35.63
-37.31
-37.77
-36.69
-34.05
-30.12
-25.35
-20.31
-15.45
-11.05
-7.14
-3.67
-0.56
2.16
4.40
6.05
7.08
7.66
8.06
8.52
9.18
9.97
10.70
11.14
11.15
10.78
10.18
9.53
8.97
8.50
8.04
7.46
6.66
5.60
4.32
2.90
1.43
0.01
-1.26
-2.32
-3.14
-3.73
-4.16
-4.54
-5.03
-5.73
-6.73
-8.00
-9.45
-10.97
-12.49
-14.04
-15.74
-17.68
-19.83
-21.96
-23.66
-24.50
-24.20
-22.71
-20.22
-17.03
-13.42
-9.59
-5.66
-1.84
1.65
4.50
6.51
7.67
8.20
8.44
8.72
9.23
9.98
10.86
11.72
12.46
13.07
13.54
13.91
14.19
14.38
14.49
14.50
14.37
14.04
13.46
12.60
11.50
10.24
8.86
7.37
5.71
3.81
1.64
-0.77
-3.32
-5.93
-8.52
-11.08
-13.68
-16.44
-19.47
-22.85
-26.56
-30.48
-34.37
-37.87
-40.55
-41.94
-41.69
-39.61
-35.83
-30.75
-25.00
-19.24
-14.00
-9.55
-5.91
-2.92
-0.42
1.72
3.48
4.88
5.96
6.88
7.85
9.01
10.40
11.90
13.34
14.58
15.65
16.63
17.63
18.69
19.68
20.46
20.92
21.06
20.99
20.83
20.61
20.22
19.45
18.14
16.22
13.80
11.03
8.10
5.08
2.02
-1.09
-4.17
-7.10
-9.79
-12.22
-14.47
-16.67
-18.81
-20.71
-21.98
-22.18
-21.00
-18.38
-14.58
-10.06
-5.34
-0.82
3.24
6.73
9.68
12.09
13.97
15.36
16.29
16.83
17.08
17.11
16.98
16.72
16.38
16.08
15.94
16.11
16.60
17.30
17.95
18.27
18.03
17.16
15.79
14.14
12.45
10.90
9.52
8.29
7.09
5.84
4.47
2.97
1.34
-0.36
-2.08
-3.80
-5.48
-7.19
-8.99
-11.00
-13.29
-15.84
-18.58
-21.24
-23.47
-24.82
-24.88
-23.35
-20.18
-15.64
-10.28
-4.75
0.34
4.62
7.99
10.57
12.50
13.89
14.78
15.21
15.27
15.11
14.92
14.85
14.93
15.12
15.39
15.68
15.97
16.16
16.11
15.70
14.84
13.62
12.18
10.73
9.34
8.03
6.72
5.33
3.87
2.40
1.01
-0.27
-1.47
-2.63
-3.82
-5.02
-6.19
-7.30
-8.33
-9.36
-10.54
-12.01
-13.84
-15.88
-17.77
-18.96
-18.92
-17.29
-14.04
-9.52
-4.30
0.99
5.86
9.97
13.18
15.42
16.71
17.11
16.74
15.84
14.69
13.51
12.45
11.57
10.84
10.25
9.86
9.72
9.89
10.31
10.81
11.19
11.29
11.06
10.58
10.01
9.47
8.97
8.39
7.55
6.31
4.64
2.63
0.40
-1.88
-4.08
-6.12
-7.96
-9.61
-11.20
-12.91
-14.93
-17.36
-20.04
-22.59
-24.49
-25.22
-24.50
-22.30
-18.86
-14.59
-9.91
-5.24
-0.89
2.87
5.90
8.10
9.50
10.20
10.37
10.26
10.09
10.11
10.41
11.02
11.81
12.64
13.34
13.82
14.09
14.21
14.22
14.16
13.97
13.56
12.84
11.73
10.19
8.24
5.92
3.35
0.69
-1.89
-4.21
-6.23
-7.99
-9.65
-11.45
-13.57
-16.06
-18.79
-21.46
-23.66
-25.01
-25.22
-24.18
-21.93
-18.67
-14.70
-10.36
-6.00
-1.91
1.70
4.72
7.09
8.79
9.86
10.32
10.32
10.05
9.73
9.57
9.67
10.03
10.61
11.35
12.17
13.01
13.78
14.37
14.66
14.61
14.22
13.52
12.53
11.24
9.63
7.71
5.54
3.27
1.03
-1.08
-3.03
-4.88
-6.79
-8.94
-11.50
-14.54
-17.97
-21.52
-24.73
-27.09
-28.14
-27.65
-25.59
-22.24
-17.99
-13.26
-8.40
-3.63
0.94
5.26
9.19
12.58
15.28
17.16
18.23
18.58
18.36
17.79
17.05
16.30
15.68
15.24
14.97
14.82
14.67
14.41
13.99
13.40
12.70
11.91
11.06
10.12
9.07
7.89
6.59
5.18
3.70
2.18
0.67
-0.80
-2.23
-3.65
-5.12
-6.76
-8.68
-10.98
-13.68
-16.74
-20.01
-23.24
-26.06
-28.04
-28.76
-27.89
-25.35
-21.32
-16.23
-10.68
-5.28
-0.50
3.41
6.39
8.52
9.95
10.86
11.37
11.63
11.72
11.74
11.75
11.84
12.06
12.42
12.93
13.49
14.00
14.39
14.63
14.73
14.79
14.83
14.80
14.56
13.95
12.86
11.31
9.45
7.47
5.55
3.74
1.99
0.18
-1.78
-3.87
-6.04
-8.16
-10.19
-12.12
-14.00
-15.90
-17.89
-20.01
-22.23
-24.47
-26.53
-28.10
-28.80
-28.28
-26.31
-22.87
-18.20
-12.72
-6.92
-1.30
3.80
8.14
11.65
14.31
16.18
17.34
17.93
18.11
18.07
17.94
17.78
17.60
17.35
17.00
16.57
16.12
15.72
15.37
15.01
14.54
13.79
12.70
11.29
9.72
8.23
7.03
6.22
5.71
5.27
4.64
3.61
2.11
0.23
-1.88
-4.02
-6.04
-7.82
-9.34
-10.63
-11.79
-13.01
-14.44
-16.26
-18.48
-20.98
-23.41
-25.28
-26.05
-25.30
-22.86
-18.93
-14.01
-8.79
-3.92
0.21
3.51
6.13
8.30
10.17
11.73
12.91
13.66
14.05
14.29
14.60
15.11
15.78
16.49
17.06
17.41
17.53
17.52
17.44
17.31
17.10
16.71
16.05
15.09
13.86
12.51
11.23
10.19
9.41
8.73
7.87
6.58
4.73
2.47
0.07
-2.17
-4.05
-5.58
-6.88
-8.08
-9.30
-10.57
-11.90
-13.34
-14.98
-16.89
-19.12
-21.54
-23.87
-25.74
-26.74
-26.56
-25.07
-22.35
-18.67
-14.39
-9.87
-5.46
-1.43
2.05
4.88
7.04
8.57
9.56
10.18
10.56
10.84
11.07
11.27
11.44
11.56
11.66
11.80
11.99
12.19
12.30
12.23
11.90
11.32
10.57
9.73
8.80
7.76
6.53
5.05
3.34
1.51
-0.30
-1.98
-3.45
-4.70
-5.78
-6.78
-7.79
-8.91
-10.18
-11.59
-13.08
-14.56
-15.95
-17.23
-18.47
-19.84
-21.54
-23.65
-26.06
-28.44
-30.33
-31.24
-30.88
-29.14
-26.19
-22.29
-17.76
-12.90
-7.96
-3.16
1.30
5.29
8.75
11.72
14.25
16.40
18.19
19.59
20.63
21.38
21.96
22.53
23.12
23.72
24.25
24.58
24.66
24.46
24.01
23.27
22.17
20.65
18.70
16.41
13.98
11.64
9.53
7.66
5.89
4.03
2.00
-0.15
-2.22
-3.98
-5.34
-6.39
-7.33
-8.34
-9.50
-10.73
-11.97
-13.19
-14.52
-16.08
-17.96
-20.03
-22.05
-23.71
-24.73
-24.92
-24.15
-22.34
-19.50
-15.80
-11.54
-7.17
-3.11
0.32
2.96
4.82
5.98
6.53
6.56
6.17
5.51
4.79
4.25
4.01
4.11
4.48
5.00
5.56
6.12
6.64
7.10
7.45
7.63
7.58
7.31
6.88
6.36
5.77
5.10
4.30
3.33
2.23
1.06
-0.11
-1.25
-2.36
-3.48
-4.62
-5.81
-7.03
-8.26
-9.46
-10.60
-11.66
-12.72
-13.94
-15.53
-17.61
-20.12
-22.70
-24.80
-25.84
-25.43
-23.50
-20.30
-16.26
-11.83
-7.35
-3.07
0.87
4.31
7.07
8.99
10.00
10.15
9.68
8.90
8.15
7.62
7.40
7.43
7.62
7.93
8.38
9.04
9.92
10.99
12.12
13.15
13.93
14.34
14.31
13.80
12.82
11.44
9.81
8.10
6.46
4.99
3.66
2.34
0.87
-0.87
-2.94
-5.27
-7.73
-10.15
-12.42
-14.49
-16.36
-18.08
-19.71
-21.28
-22.76
-24.08
-25.13
-25.72
-25.61
-24.55
-22.38
-19.08
-14.87
-10.08
-5.16
-0.46
3.77
7.45
10.58
13.17
15.16
16.46
17.02
16.86
16.18
15.23
14.27
13.47
12.83
12.21
11.49
10.59
9.54
8.48
7.54
6.79
6.21
5.66
5.06
4.35
3.57
2.78
1.99
1.21
0.39
-0.44
-1.24
-1.88
-2.30
-2.56
-2.80
-3.25
-4.03
-5.14
-6.40
-7.61
-8.62
-9.45
-10.31
-11.42
-12.95
-14.87
-16.90
-18.64
-19.69
-19.78
-18.84
-16.93
-14.23
-10.92
-7.20
-3.26
0.64
4.22
7.21
9.40
10.72
11.31
11.39
11.21
10.99
10.86
10.82
10.85
10.91
10.99
11.11
11.27
11.50
11.76
11.96
12.04
11.92
11.55
10.92
10.03
8.89
7.56
6.15
4.81
3.66
2.76
2.02
1.27
0.28
-1.09
-2.80
-4.64
-6.37
-7.80
-8.96
-10.03
-11.24
-12.70
-14.39
-16.13
-17.73
-19.01
-19.81
-19.97
-19.32
-17.65
-14.87
-11.07
-6.61
-2.04
2.06
5.26
7.43
8.69
9.36
9.75
10.08
10.45
10.81
11.11
11.30
11.43
11.52
11.59
11.59
11.42
11.01
10.38
9.59
8.75
7.95
7.18
6.40
5.53
4.51
3.34
2.04
0.65
-0.79
-2.24
-3.64
-4.93
-6.04
-6.93
-7.63
-8.27
-8.99
-9.95
-11.29
-13.02
-15.06
-17.14
-18.85
-19.73
-19.43
-17.79
-14.93
-11.20
-7.04
-2.90
0.86
4.01
6.46
8.22
9.43
10.26
10.84
11.19
11.23
10.82
9.90
8.56
7.05
5.69
4.68
4.09
3.83
3.80
3.91
4.12
4.41
4.69
4.85
4.76
4.38
3.80
3.18
2.69
2.35
2.10
1.75
1.16
0.24
-0.99
-2.47
-4.09
-5.78
-7.46
-9.04
-10.50
-11.86
-13.22
-14.70
-16.34
-18.06
-19.54
-20.38
-20.20
-18.80
-16.19
-12.66
-8.59
-4.42
-0.53
2.84
5.57
7.66
9.19
10.32
11.13
11.69
12.00
12.05
11.88
11.62
11.43
11.48
11.85
12.51
13.34
14.18
14.94
15.63
16.27
16.89
17.45
17.82
17.89
17.59
17.01
16.30
15.62
15.01
14.39
13.55
12.29
10.54
8.38
5.97
3.47
0.96
-1.62
-4.38
-7.37
-10.56
-13.86
-17.15
-20.31
-23.23
-25.75
-27.65
-28.69
-28.70
-27.65
-25.64
-22.94
-19.84
-16.65
-13.62
-10.93
-8.73
-7.07
-5.96
-5.37
-5.21
-5.37
-5.78
-6.34
-6.96
-7.61
-8.21
-8.71
-9.05
-9.12
-8.78
-7.92
-6.48
-4.48
-2.06
0.59
3.29
5.90
8.32
10.57
12.62
14.46
16.03
17.22
17.89
17.94
17.31
16.03
14.24
12.14
9.93
7.72
5.51
3.20
0.67
-2.17
-5.28
-8.57
-11.85
-14.90
-17.46
-19.29
-20.14
-19.87
-18.46
-16.05
-12.93
-9.49
-6.12
-3.14
-0.75
0.98
2.06
2.57
2.62
2.30
1.76
1.19
0.84
0.92
1.56
2.76
4.41
6.32
8.35
10.38
12.38
14.32
16.11
17.63
18.75
19.32
19.27
18.58
17.25
15.36
13.02
10.40
7.72
5.14
2.79
0.73
-1.05
-2.59
-3.92
-5.05
-5.94
-6.54
-6.82
-6.83
-6.73
-6.74
-7.09
-7.91
-9.11
-10.44
-11.52
-12.00
-11.66
-10.47
-8.58
-6.24
-3.68
-1.13
1.26
3.34
5.03
6.26
7.06
7.52
7.82
8.13
8.56
9.14
9.87
10.68
11.56
12.49
13.46
14.42
15.29
16.01
16.56
16.93
17.12
17.04
16.52
15.35
13.42
10.80
7.77
4.71
1.93
-0.40
-2.33
-4.04
-5.72
-7.47
-9.28
-11.09
-12.84
-14.50
-16.10
-17.66
-19.28
-21.07
-23.11
-25.42
-27.84
-30.01
-31.43
-31.62
-30.28
-27.45
-23.50
-19.06
-14.86
-11.66
-10.02
-10.28
-12.33
-15.64
-19.28
-22.20
-23.57
-23.07
-20.83
-17.39
-13.31
-9.00
-4.64
-0.34
3.80
7.61
10.92
13.70
16.13
18.50
21.05
23.83
26.66
29.20
31.12
32.19
32.37
31.77
30.52
28.77
26.55
23.85
20.62
16.89
12.72
8.33
3.95
-0.15
-3.83
-7.06
-9.93
-12.51
-14.81
-16.66
-17.77
-17.84
-16.63
-14.13
-10.51
-6.07
-1.19
3.81
8.57
12.78
16.11
18.30
19.22
18.88
17.45
15.15
12.29
9.09
5.75
2.44
-0.72
-3.64
-6.24
-8.44
-10.19
-11.46
-12.21
-12.46
-12.26
-11.71
-10.93
-10.10
-9.36
-8.78
-8.34
-7.93
-7.43
-6.72
-5.83
-4.83
-3.88
-3.05
-2.35
-1.70
-1.04
-0.41
0.05
0.12
-0.41
-1.70
-3.79
-6.60
-9.96
-13.61
-17.15
-20.06
-21.77
-21.76
-19.65
-15.36
-9.12
-1.46
6.92
15.25
22.84
29.12
33.76
36.66
37.94
37.88
36.89
35.43
33.91
32.65
31.74
31.11
30.52
29.71
28.48
26.81
24.81
22.64
20.46
18.28
16.05
13.63
10.92
7.90
4.59
1.07
-2.53
-6.08
-9.37
-12.24
-14.52
-16.19
-17.35
-18.20
-18.99
-19.91
-21.02
-22.21
-23.29
-23.97
-24.00
-23.20
-21.46
-18.80
-15.36
-11.36
-7.07
-2.78
1.28
4.90
7.91
10.20
11.72
12.53
12.76
12.63
12.33
