1568061681.00
64.000000
-0.00
-0.00
-0.00
-0.00
-0.00
-0.00
-0.00
-0.00
-0.00
-0.00
0.00
0.01
0.01
-0.00
-0.03
-0.05
-0.05
0.00
0.13
0.36
0.66
1.01
1.37
1.72
2.06
2.40
2.79
3.24
3.80
4.42
5.06
5.66
6.20
6.68
7.15
7.68
8.31
9.14
10.09
11.04
11.88
12.56
13.14
13.76
14.65
15.96
17.91
20.32
22.90
25.38
27.58
29.57
31.68
34.32
37.81
42.54
48.15
54.10
59.83
64.97
69.58
74.14
79.34
85.71
93.76
103.00
112.62
121.73
129.77
136.75
143.30
150.75
157.77
166.64
177.95
191.79
206.97
220.57
228.25
225.36
208.53
176.87
132.76
80.05
23.07
-34.94
-92.44
-149.16
-205.23
-260.37
-313.74
-363.87
-409.83
-450.91
-486.50
-515.74
-537.23
-549.22
-549.96
-538.37
-514.21
-478.67
-433.88
-382.45
-327.02
-269.84
-212.63
-156.66
-102.95
-52.37
-5.90
35.58
71.43
101.35
125.50
144.38
158.69
169.15
176.37
180.75
182.57
182.07
179.51
175.23
169.65
163.18
156.15
148.81
141.30
133.69
126.02
118.33
110.69
103.16
95.80
88.68
81.83
75.25
68.95
62.95
57.25
51.86
46.78
42.03
37.59
33.45
29.61
26.07
22.81
19.83
17.11
14.67
12.48
10.54
8.83
7.35
6.07
4.97
4.05
3.27
2.62
2.09
1.65
1.30
1.01
0.79
0.61
0.48
0.37
0.29
0.24
0.20
0.18
0.17
0.17
0.18
0.20
0.23
0.26
0.30
0.35
0.39
0.44
0.48
0.54
0.59
0.64
0.69
0.75
0.81
0.88
0.95
1.02
1.11
1.20
1.31
1.43
1.56
1.71
1.88
2.08
2.29
2.53
2.79
3.08
3.39
3.74
4.13
4.55
5.00
5.49
6.01
6.58
7.19
7.84
8.54
9.27
10.05
10.88
11.75
12.67
13.62
14.64
15.71
16.84
18.04
19.29
20.58
21.86
23.02
23.93
24.43
24.38
23.69
22.29
20.20
17.43
14.03
10.00
5.41
0.37
-4.94
-10.31
-15.41
-19.94
-23.66
-26.44
-28.30
-29.37
-29.80
-29.75
-29.25
-28.24
-26.61
-24.29
-21.41
-18.29
-15.44
-13.28
-12.07
-11.70
-11.72
-11.47
-10.44
-8.55
-6.23
-4.28
-3.50
-4.31
-6.50
-9.18
-11.16
-11.54
-10.18
-7.94
-6.33
-6.78
-10.08
-15.91
-22.82
-28.97
-32.88
-34.13
-33.67
-33.22
-34.59
-39.39
-48.64
-62.30
-78.75
-94.47
-104.24
-102.49
-85.54
-53.44
-11.25
32.44
68.79
92.14
101.88
101.91
98.21
94.33
92.66
93.11
93.85
92.95
89.52
83.86
76.80
68.81
59.70
48.90
35.74
20.09
2.64
-15.20
-31.75
-45.65
-56.27
-63.83
-68.97
-72.66
-75.62
-78.07
-79.82
-80.85
-81.58
-83.00
-86.14
-91.24
-97.42
-102.67
-104.44
-100.53
-89.98
-73.21
-51.95
-28.50
-5.21
15.84
33.23
46.42
55.80
62.43
67.44
71.33
73.57
72.84
67.77
57.93
44.23
28.79
13.88
1.04
-9.56
-18.86
-28.21
-38.57
-50.16
-62.47
-74.75
-86.30
-96.57
-105.18
-111.94
-116.90
-120.56
-124.04
-128.77
-135.96
-145.91
-157.57
-168.55
-175.83
-176.76
-170.04
-156.10
-136.78
-114.23
-89.96
-64.27
-36.66
-6.77
24.66
55.53
83.01
104.81
120.23
130.64
138.86
147.86
159.39
173.22
187.50
200.03
209.62
216.87
223.70
231.98
241.95
251.51
256.92
254.64
243.11
223.55
199.28
174.07
150.67
130.12
112.26
96.55
82.65
70.44
59.49
48.85
37.19
23.51
7.82
-8.68
-23.77
-35.00
-40.38
-38.95
-30.96
-17.78
-1.57
15.29
30.69
43.15
51.86
56.63
57.87
56.46
53.71
51.01
49.26
48.28
46.76
42.83
35.17
24.01
11.33
-0.01
-7.68
-11.08
-11.56
-11.54
-13.12
-17.12
-23.00
-29.76
-36.74
-44.12
-52.48
-62.10
-72.47
-82.40
-90.82
-97.46
-103.06
-108.68
-114.71
-120.05
-122.31
-118.89
-108.43
-91.84
-72.01
-52.59
-36.41
-24.42
-15.74
-8.64
-1.62
5.86
13.43
20.41
26.35
31.23
35.30
38.62
41.00
41.99
41.27
38.95
35.60
32.15
29.52
28.29
28.51
29.66
30.85
31.17
29.96
26.93
22.04
15.37
7.01
-2.77
-13.38
-23.86
-33.06
-39.97
-43.96
-44.77
-42.36
-36.80
-28.29
-17.43
-5.40
6.19
15.78
22.44
26.33
28.46
30.10
32.02
34.00
35.03
33.80
29.48
22.12
12.74
2.98
-5.42
-10.99
-12.97
-11.33
-6.68
-0.16
6.84
12.73
15.96
15.15
9.36
-1.58
-16.88
-34.87
-53.47
-70.67
-85.01
-95.78
-102.84
-106.38
-106.64
-103.86
-98.37
-90.70
-81.54
-71.59
-61.40
-51.24
-41.19
-31.17
-21.06
-10.77
-0.25
10.33
20.37
28.88
34.52
36.15
33.32
26.65
17.77
8.79
1.49
-3.19
-5.33
-5.68
-5.25
-4.93
-5.38
-7.03
-10.09
-14.37
-19.08
-22.96
-24.70
-23.54
-19.85
-15.09
-11.37
-10.60
-13.78
-20.64
-29.82
-39.30
-46.84
-50.52
-49.06
-42.19
-30.69
-16.27
-1.05
13.12
25.16
34.95
43.10
50.36
57.19
63.56
69.07
73.31
76.10
77.63
78.27
78.41
78.35
78.21
77.98
77.47
76.27
73.85
69.59
63.00
54.03
43.18
31.33
19.46
8.16
-2.52
-13.05
-23.96
-35.45
-47.08
-57.84
-66.49
-71.90
-73.52
-71.40
-66.08
-58.42
-49.33
-39.61
-29.94
-20.94
-13.08
-6.75
-2.14
0.78
2.31
2.90
3.05
3.18
3.52
4.17
5.07
6.04
6.85
7.22
6.85
5.53
3.14
-0.27
-4.48
-9.12
-13.74
-17.93
-21.47
-24.40
-27.07
-30.09
-34.13
-39.80
-47.41
-56.88
-67.53
-78.16
-87.19
-93.03
-94.61
-91.69
-85.03
-76.08
-66.51
-57.73
-50.61
-45.53
-42.50
-41.40
-42.03
-44.03
-46.90
-49.99
-52.62
-54.22
-54.36
-52.71
-49.00
-42.94
-34.39
-23.35
-10.09
4.80
20.52
36.13
50.71
63.36
73.43
80.49
84.39
85.23
83.28
78.81
72.09
63.28
52.69
40.91
29.03
18.55
11.05
7.76
9.13
14.65
23.00
32.52
41.61
49.12
54.52
57.79
59.22
59.22
58.25
56.67
54.80
52.82
50.83
48.79
46.64
44.24
41.54
38.56
35.45
32.42
29.60
26.99
24.40
21.59
18.42
14.93
11.40
8.11
5.25
2.64
-0.14
-3.78
-8.93
-16.06
-25.15
-35.59
-46.21
-55.36
-61.31
-62.66
-58.81
-50.16
-38.08
-24.57
-11.64
-0.84
7.09
12.17
14.96
16.15
16.31
15.83
14.92
13.81
12.74
11.87
11.19
10.44
9.23
7.24
4.37
0.80
-3.06
-6.82
-10.24
-13.33
-16.30
-19.49
-23.29
-27.97
-33.69
-40.41
-47.82
-55.43
-62.68
-69.25
-75.28
-81.42
-88.58
-97.40
-107.68
-118.18
-126.82
-131.35
-129.95
-121.63
-106.14
-83.85
-55.71
-23.36
10.74
43.68
72.83
96.76
115.69
131.00
144.10
155.07
162.15
162.40
153.26
134.03
106.61
74.95
43.70
16.70
-3.74
-16.83
-22.89
-22.69
-17.32
-8.27
2.44
12.51
20.01
24.00
24.74
23.34
20.99
18.26
14.90
10.23
3.61
-5.17
-15.91
-28.24
-41.73
-55.74
-69.13
-80.18
-86.99
-88.27
-83.99
-75.55
-65.22
-55.15
-46.49
-39.29
-32.82
-26.29
-19.44
-12.68
-6.76
-2.20
1.08
3.80
6.84
10.83
15.76
21.06
26.03
30.31
34.06
37.79
41.93
46.44
51.05
55.68
60.90
67.93
78.03
91.51
107.05
121.77
132.04
134.68
127.92
111.72
87.54
57.75
25.19
-7.13
-36.18
-59.29
-74.71
-82.17
-83.14
-80.44
-77.42
-76.91
-80.44
-87.93
-98.04
-108.65
-117.54
-122.88
-123.73
-119.97
-112.14
-100.76
-85.78
-66.63
-42.49
-12.87
22.38
63.23
109.58
160.81
214.61
266.17
308.40
333.70
336.62
316.06
275.35
220.59
158.19
93.33
30.16
-27.19
-74.00
-106.00
-121.49
-122.93
-116.69
-110.56
-110.56
-118.50
-131.85
-145.23
-152.89
-150.79
-137.52
-114.24
-83.93
-50.54
-18.00
10.52
33.22
49.72
60.75
67.51
71.24
72.89
73.24
72.94
72.56
72.30
71.73
69.92
65.79
58.69
48.80
37.11
25.10
14.12
4.97
-2.25
-7.97
-12.69
-16.75
-20.22
-22.97
-24.89
-25.98
-26.46
-26.71
-27.13
-28.11
-29.89
-32.51
-35.89
-39.84
-44.24
-49.13
-54.67
-61.04
-68.15
-75.38
-81.61
-85.39
-85.41
-80.87
-71.85
-59.23
-44.54
-29.44
-15.40
-3.33
6.40
13.90
19.58
23.86
27.09
29.45
31.06
31.96
32.24
31.98
31.32
30.39
29.34
28.28
27.36
26.70
26.41
26.45
26.64
26.62
25.97
24.25
21.17
16.66
10.84
4.08
-3.19
-10.52
-17.56
-24.22
-30.61
-37.06
-43.95
-51.55
-59.77
-68.05
-75.29
-80.14
-81.30
-77.93
-69.93
-58.04
-43.69
-28.57
-14.29
-1.96
7.90
15.38
20.88
24.93
27.98
30.22
31.69
32.34
32.19
31.41
30.28
29.07
27.98
27.02
26.03
24.84
23.32
21.40
19.15
16.65
13.99
11.17
8.16
4.83
1.12
-3.03
-7.49
-12.01
-16.30
-20.19
-23.72
-27.18
-30.99
-35.62
-41.41
-48.44
-56.42
-64.59
-71.64
-75.96
-76.00
-70.85
-60.65
-46.62
-30.70
-14.91
-0.71
11.24
20.96
28.85
35.25
40.40
44.43
47.50
49.81
51.48
52.54
52.88
52.39
51.09
49.24
47.26
45.56
44.39
43.73
43.33
42.81
41.81
40.09
37.60
34.45
30.83
26.98
23.01
18.93
14.62
10.00
5.01
-0.27
-5.69
-11.13
-16.54
-22.00
-27.62
-33.60
-40.15
-47.48
-55.59
-64.10
-72.05
-77.92
-79.99
-76.91
-68.30
-54.97
-38.71
-21.69
-5.80
7.80
18.75
27.21
33.55
38.09
41.06
42.68
43.22
43.02
42.46
41.78
41.09
40.32
39.35
38.00
36.19
33.96
31.51
29.16
27.23
25.87
25.02
24.29
23.11
20.96
17.52
12.83
7.24
1.30
-4.48
-9.81
-14.72
-19.48
-24.48
-30.13
-36.70
-44.23
-52.39
-60.37
-66.94
-70.64
-70.14
-64.75
-54.69
-41.11
-25.79
-10.59
3.07
14.45
23.51
30.59
36.05
40.04
42.50
43.35
42.68
40.94
38.81
36.97
35.85
35.46
35.43
35.28
34.68
33.53
31.99
30.29
28.53
26.61
24.29
21.28
17.43
12.73
7.37
1.64
-4.17
-9.87
-15.38
-20.76
-26.15
-31.78
-37.93
-44.93
-52.98
-61.93
-71.07
-79.08
-84.23
-84.84
-79.93
-69.59
-55.02
-38.19
-21.18
-5.68
7.39
17.77
25.65
31.41
35.49
38.34
40.46
42.27
44.06
45.81
47.20
47.83
47.46
46.13
44.21
42.21
40.51
39.23
38.16
36.98
35.42
33.37
30.93
28.21
25.27
22.01
18.24
13.77
8.53
2.60
-3.79
-10.33
-16.79
-23.04
-29.11
-35.16
-41.45
-48.27
-55.89
-64.41
-73.51
-82.28
-89.24
-92.58
-90.73
-82.94
-69.67
-52.49
-33.64
-15.34
0.76
13.84
23.81
31.02
36.02
39.38
41.64
43.31
44.80
46.36
47.98
49.44
50.40
50.61
49.99
48.74
47.16
45.61
44.36
43.45
42.72
41.87
40.58
38.64
36.03
32.86
29.30
25.41
21.13
16.29
10.76
4.60
-1.88
-8.28
-14.26
-19.75
-24.97
-30.30
-36.19
-42.92
-50.48
-58.51
-66.29
-72.70
-76.41
-76.14
-71.08
-61.18
-47.34
-31.22
-14.80
0.16
12.57
22.06
28.92
33.68
36.88
38.91
40.00
40.33
40.08
39.45
38.60
37.53
36.18
34.47
32.40
30.10
27.78
25.70
24.00
22.76
21.86
21.08
20.08
18.43
15.72
11.66
6.23
-0.25
-7.23
-14.06
-20.33
-25.99
-31.40
-37.16
-43.96
-52.23
-61.98
-72.66
-83.16
-91.93
-97.28
-97.84
-93.01
-83.23
-69.95
-55.18
-40.93
-28.59
-18.81
-11.54
-6.45
-3.18
-1.58
-1.63
-3.28
-6.24
-10.06
-14.19
-18.21
-21.93
-25.45
-29.06
-33.07
-37.72
-43.06
-48.75
-54.00
-57.53
-57.80
-53.61
-44.79
-32.59
-19.56
-8.60
-1.88
0.17
-1.09
-3.16
-3.67
-1.43
3.21
8.70
13.15
14.95
13.08
7.19
-2.28
-13.91
-25.17
-32.72
-33.31
-24.85
-7.30
17.20
45.00
72.14
95.44
113.09
124.54
130.08
130.27
125.66
116.87
104.85
91.14
77.70
66.32
57.96
52.20
47.48
42.02
34.93
26.89
19.92
16.27
17.12
21.93
28.71
35.18
39.78
42.20
43.08
43.28
43.28
43.05
42.33
40.94
39.05
36.88
34.36
30.89
25.32
16.50
3.85
-12.17
-29.94
-46.77
-59.82
-66.91
-67.22
-61.39
-51.09
-38.44
-25.49
-13.82
-4.17
3.28
8.71
12.48
15.26
17.95
21.51
26.60
33.40
42.35
53.52
66.13
78.48
88.22
93.26
92.38
85.52
73.75
59.80
46.27
34.51
24.46
15.53
7.77
1.86
-1.51
-2.19
0.74
8.01
19.81
35.75
54.80
75.84
97.23
116.82
124.43
113.67
86.47
53.11
24.56
5.44
-5.61
-12.60
-19.12
-26.72
-33.60
-37.18
-36.74
-33.84
-32.08
-34.74
-43.80
-59.68
-81.21
-104.91
-126.94
-145.09
-154.56
-154.45
-146.02
-132.19
-116.75
-103.12
-92.76
-85.61
-80.72
-77.12
-74.91
-74.21
-75.17
-77.83
-82.13
-87.46
-92.84
-97.11
-99.18
-98.99
-97.13
-94.84
-93.39
-93.25
-93.37
-91.39
-84.64
-71.45
-52.35
-29.63
-6.46
14.41
31.66
45.70
58.00
70.13
82.92
95.94
107.96
117.32
122.58
122.81
117.78
108.10
95.07
80.55
66.57
54.93
46.84
42.72
42.12
43.94
46.65
48.61
48.42
45.28
39.31
31.70
24.51
19.82
18.88
21.37
25.44
28.38
27.86
22.92
14.34
4.33
-4.53
-10.21
-11.72
-9.09
-3.10
4.75
12.20
16.27
14.01
3.87
-12.86
-31.65
-46.16
-50.98
-44.38
-29.33
-12.02
1.44
8.33
10.53
12.84
19.50
31.14
44.13
52.65
52.07
41.53
24.12
4.93
-11.86
-24.96
-35.85
-47.05
-59.82
-73.03
-83.40
-87.31
-82.81
-70.76
-54.73
-39.51
-29.30
-26.12
-29.40
-36.54
-44.49
-51.02
-55.47
-58.49
-61.18
-64.39
-68.22
-71.97
-74.22
-72.97
-65.88
-50.92
-27.44
2.94
36.08
66.32
88.19
98.25
96.09
83.88
65.25
43.85
22.71
4.07
-10.24
-18.73
-20.49
-15.69
-5.79
6.89
19.78
30.94
39.45
45.39
49.47
52.43
54.68
56.08
55.93
53.28
47.49
38.65
27.64
15.45
2.38
-12.53
-31.15
-54.95
-83.58
-114.19
-141.93
-161.69
-169.95
-165.88
-151.10
-128.50
-100.86
-70.03
-36.99
-2.44
32.49
66.10
96.63
123.10
145.87
166.52
186.79
207.03
225.24
237.56
240.04
230.82
211.15
184.45
154.16
121.95
87.72
51.27
14.41
-18.52
-42.35
-54.05
-54.83
-49.86
-45.67
-46.74
-53.60
-63.46
-72.60
-78.97
-83.17
-87.46
-93.81
-102.28
-110.95
-117.15
-119.20
-117.44
-114.04
-111.63
-111.68
-113.42
-114.16
-110.58
-100.52
-84.11
-63.82
-43.30
-25.82
-13.03
-4.68
0.69
4.71
8.36
11.74
14.44
16.19
17.14
17.88
19.05
20.95
23.42
25.99
28.19
29.76
30.74
31.38
31.88
32.32
32.40
31.60
29.21
24.77
18.20
10.09
1.49
-6.43
-12.79
-17.43
-20.95
-24.57
-29.66
-37.10
-46.87
-57.89
-68.26
-75.84
-78.97
-76.95
-70.15
-59.87
-47.80
-35.65
-24.66
-15.60
-8.54
-3.01
2.04
7.91
15.80
26.32
39.15
53.07
66.25
76.81
83.35
85.27
82.80
76.92
69.01
60.58
52.95
47.03
43.14
41.07
40.17
39.48
38.05
35.09
30.21
23.52
15.57
7.25
-0.58
-7.36
-12.99
-17.86
-22.66
-28.06
-34.36
-41.28
-47.97
-53.13
-55.34
-53.49
-47.16
-36.76
-23.54
-9.22
4.48
16.22
25.36
31.86
36.15
38.81
40.38
41.30
41.87
42.25
42.52
42.57
42.22
41.23
39.49
37.04
34.14
31.11
28.26
25.77
23.70
21.99
20.51
19.09
17.51
15.57
13.15
10.21
6.74
2.74
-1.92
-7.33
-13.52
-20.30
-27.29
-34.02
-40.23
-45.97
-51.68
-57.84
-64.68
-71.71
-77.70
-80.95
-79.96
-74.06
-63.83
-50.94
-37.61
-25.73
-16.32
-9.41
-4.40
-0.71
1.84
3.01
2.31
-0.53
-5.51
-12.37
-20.80
-30.43
-40.61
-50.06
-56.83
-58.65
-53.75
-41.62
-23.33
-1.26
21.77
43.30
61.72
76.17
86.21
91.61
92.44
89.39
83.96
78.21
74.02
72.26
72.22
71.91
68.82
61.25
49.23
34.90
21.72
13.26
11.59
16.50
25.69
35.82
43.90
48.40
49.21
47.12
43.13
38.04
32.89
29.23
28.88
32.63
39.08
44.61
44.85
37.00
21.46
1.79
-17.04
-30.87
-37.91
-38.74
-35.44
-30.39
-25.51
-22.14
-21.10
-22.69
-26.59
-31.92
-37.53
-42.57
-46.73
-50.23
-53.39
-56.37
-59.37
-62.87
-67.48
-73.36
-79.70
-84.52
-85.20
-79.63
-67.21
-49.35
-28.98
-9.61
5.87
16.00
21.01
22.42
22.20
21.91
22.29
23.14
23.78
23.58
22.31
20.32
18.36
17.17
17.08
17.87
18.89
19.42
19.06
17.89
16.36
14.93
13.74
12.48
10.51
7.23
2.48
-3.38
-9.58
-15.29
-19.94
-23.40
-25.95
-28.18
-30.80
-34.64
-40.43
-48.53
-58.59
-69.18
-78.03
-82.57
-80.89
-72.65
-59.23
-43.23
-27.39
-13.57
-2.37
6.59
13.95
20.02
24.64
27.45
28.34
27.55
25.40
21.87
16.63
9.81
2.62
-2.43
-2.34
4.82
18.66
36.14
52.76
64.35
68.62
65.54
56.54
43.27
26.92
8.53
-10.10
-25.93
-35.36
-35.75
-27.06
-12.23
3.83
16.42
22.78
22.94
18.89
13.07
7.18
1.93
-2.32
-4.85
-4.56
-0.72
6.18
14.26
21.03
24.75
25.36
24.34
23.60
24.12
25.24
25.16
22.11
15.50
6.33
-3.36
-11.53
-17.00
-19.76
-20.70
-20.97
-21.49
-22.68
-24.46
-26.49
-28.38
-29.84
-30.67
-30.73
-29.83
-27.62
-23.79
-18.16
-11.03
-3.32
3.58
8.12
9.23
6.77
1.72
-4.17
-8.89
-10.87
-9.39
-4.54
2.97
12.09
21.75
30.88
38.53
43.92
46.61
46.72
44.81
41.78
38.46
35.38
32.60
29.85
26.79
23.26
19.36
15.36
11.41
7.51
3.50
-0.73
-5.03
-9.04
-12.28
-14.46
-15.69
-16.44
-17.31
-18.70
-20.64
-22.81
-24.82
-26.46
-27.88
-29.49
-31.66
-34.63
-38.36
-42.74
-47.68
-53.04
-58.57
-63.62
-67.21
-68.26
-66.08
-60.71
-52.94
-44.00
-35.03
-26.62
-18.76
-11.07
-3.25
4.67
12.33
19.26
25.16
29.98
33.83
36.82
38.82
39.64
39.09
37.29
34.66
31.82
29.38
27.73
26.88
26.49
26.09
25.16
23.38
20.69
17.36
13.92
10.95
8.95
8.15
8.53
9.97
12.36
15.77
20.34
26.21
33.31
41.44
50.21
59.15
67.84
75.92
83.22
89.75
95.86
102.10
109.04
116.98
125.60
133.96
140.66
144.37
144.37
140.98
135.58
130.23
126.96
126.87
129.42
132.26
131.64
123.38
104.15
72.57
29.92
-19.90
-71.14
-117.44
-153.46
-176.06
-184.90
-182.13
-171.45
-156.89
-141.83
-128.62
-118.51
-112.01
-109.10
-109.29
-111.69
-115.16
-118.52
-121.03
-122.59
-123.72
-125.32
-128.27
-132.78
-138.17
-142.81
-144.45
-141.02
-131.38
-115.85
-96.24
-75.09
-54.86
-37.05
-22.00
-9.09
2.54
13.42
23.47
32.14
38.85
43.37
45.98
47.35
48.18
48.83
49.23
48.98
47.69
45.35
42.39
39.51
37.35
36.06
35.29
34.38
32.78
30.35
27.47
24.72
22.46
20.57
18.44
15.26
10.47
4.09
-3.33
-10.89
-17.79
-23.64
-28.64
-33.49
-39.08
-46.21
-55.25
-65.96
-77.47
-88.29
-96.58
-100.43
-98.28
-89.45
-74.36
-54.61
-32.66
-11.12
7.83
23.02
34.28
42.20
47.65
51.38
53.88
55.47
56.40
56.96
57.46
58.06
58.64
58.86
58.33
56.85
54.54
51.92
49.63
48.22
47.82
48.11
48.39
47.95
46.30
43.40
39.57
35.31
31.01
26.77
22.46
17.75
12.36
6.21
-0.53
-7.43
-14.04
-19.99
-25.19
-29.84
-34.40
-39.45
-45.41
-52.40
-60.06
-67.54
-73.64
-77.02
-76.47
-71.22
-61.10
-46.70
-29.31
-10.73
7.07
22.43
34.33
42.57
47.64
50.40
51.65
51.90
51.34
50.01
48.01
45.60
43.12
40.90
39.10
37.71
36.61
35.68
34.78
33.88
33.00
32.18
31.38
30.40
28.83
26.21
22.22
16.90
10.69
4.25
-1.90
-7.59
-13.09
-18.93
-25.57
-33.27
-42.02
-51.63
-61.65
-71.31
-79.31
-83.93
-83.46
-76.83
-64.18
-47.02
-27.71
-8.78
7.94
21.56
32.06
39.81
45.19
48.47
49.90
49.86
48.89
47.56
46.27
45.10
43.93
42.60
41.08
39.43
37.82
36.30
34.85
33.42
31.98
30.49
28.91
27.05
24.57
21.15
16.56
10.82
4.17
-3.05
-10.45
-17.76
-24.87
-31.79
-38.70
-45.89
-53.70
-62.37
-71.88
-81.60
-90.31
-96.30
-97.82
-93.69
-83.73
-68.98
-51.33
-32.94
-15.64
-0.48
12.24
22.71
31.28
38.17
43.57
47.63
50.64
52.93
54.77
56.26
57.32
57.73
57.27
55.82
53.42
50.25
46.64
42.95
39.46
36.29
33.35
30.37
26.98
22.85
17.75
11.64
4.60
-3.10
-11.08
-18.85
-25.97
-32.26
-37.97
-43.77
-50.45
-58.49
-67.61
-76.62
-83.66
-86.76
-84.53
-76.58
-63.64
-47.25
-29.21
-11.25
5.38
19.85
31.74
40.88
47.31
51.23
53.04
53.29
52.59
51.47
50.20
48.71
46.69
43.82
40.01
35.57
31.15
27.43
24.84
23.31
22.33
21.22
19.36
16.36
12.10
6.59
-0.06
-7.65
-15.87
-24.34
-32.77
-41.13
-49.71
-58.99
-69.32
-80.42
-91.17
-99.71
-103.90
-101.97
-93.24
-78.39
-59.29
-38.51
-18.51
-1.07
13.02
23.89
32.17
38.58
43.65
47.64
50.62
52.68
53.98
54.77
55.25
55.46
55.15
53.99
51.73
48.41
44.53
40.79
37.82
35.88
34.62
33.26
30.94
27.09
21.71
15.29
8.53
2.02
-4.01
-9.68
-15.40
-21.60
-28.65
-36.79
-46.17
-56.73
-68.04
-79.11
-88.33
-93.67
-93.26
-86.13
-72.71
-54.82
-35.11
-16.16
0.28
13.61
24.12
32.41
38.93
43.87
47.41
49.91
52.03
54.35
57.10
59.92
62.10
62.93
62.19
60.17
57.49
54.78
52.38
50.25
48.16
45.89
43.35
40.58
37.63
34.52
31.08
27.08
22.34
16.72
10.29
3.30
-3.90
-10.97
-17.67
-24.00
-30.09
-36.25
-42.84
-50.26
-58.88
-68.83
-79.78
-90.61
-99.44
-103.96
-102.14
-93.04
-77.28
-56.91
-34.76
-13.55
4.80
19.46
30.52
38.48
43.99
47.58
49.71
50.76
51.08
50.83
50.05
48.73
46.88
44.60
42.12
39.63
37.26
35.11
33.24
31.74
30.74
30.22
29.93
29.36
27.88
24.96
20.43
14.54
7.88
1.15
-5.16
-10.85
-16.08
-21.28
-27.02
-33.93
-42.58
-53.28
-65.77
-78.92
-90.70
-98.40
-99.48
-92.44
-77.47
-56.56
-32.94
-10.11
9.22
23.68
33.32
39.09
42.35
44.24
45.53
46.52
47.31
47.87
48.18
48.20
47.87
47.08
45.72
43.81
41.46
38.97
36.60
34.55
32.78
31.14
29.39
27.30
24.64
21.24
16.93
11.62
5.37
-1.61
-8.95
-16.22
-23.01
-29.09
-34.43
-39.31
-44.25
-49.94
-57.06
-66.03
-76.59
-87.58
-97.05
-102.58
-102.12
-94.65
-80.64
-61.89
-41.04
-20.74
-2.94
11.34
22.09
29.90
35.65
40.20
44.23
48.20
52.26
56.29
59.95
62.87
64.70
65.28
64.57
62.67
59.87
56.60
53.34
50.60
48.64
47.34
46.24
44.62
41.80
37.44
31.73
25.33
19.09
13.70
9.40
5.87
2.44
-1.57
-6.56
-12.54
-19.17
-25.96
-32.52
-38.70
-44.59
-50.46
-56.71
-63.79
-72.07
-81.56
-91.71
-101.19
-108.06
-110.21
-106.06
-95.11
-78.25
-57.60
-35.81
-15.36
2.04
15.67
25.69
32.75
37.60
40.82
42.78
43.72
43.83
43.38
42.62
41.77
40.96
40.15
39.29
38.28
37.10
35.76
34.33
32.92
31.59
30.34
29.02
27.37
25.11
22.01
17.96
13.01
7.32
1.10
-5.44
-12.08
-18.58
-24.73
-30.48
-35.99
-41.76
-48.41
-56.42
-65.76
-75.62
-84.41
-90.05
-90.56
-84.71
-72.55
-55.45
-35.76
-16.06
1.53
15.80
26.56
34.23
39.40
42.53
43.84
43.45
41.58
38.67
35.32
32.11
29.47
27.56
26.30
25.42
24.54
23.40
21.85
19.99
18.06
16.34
14.95
13.79
12.45
10.39
7.11
2.39
-3.61
-10.38
-17.27
-23.72
-29.52
-34.84
-40.17
-46.13
-53.29
-61.94
-71.83
-82.02
-90.85
-96.31
-96.44
-90.15
-77.51
-59.97
-39.84
-19.65
-1.43
13.60
25.12
33.39
38.98
42.53
44.74
46.16
47.25
48.19
48.93
49.23
48.83
47.59
45.57
43.01
40.24
37.53
35.07
32.90
30.96
29.17
27.37
25.35
22.90
19.83
16.00
11.44
6.30
0.78
-4.92
-10.72
-16.67
-22.84
-29.32
-36.12
-43.29
-50.97
-59.39
-68.68
-78.52
-87.84
-94.85
-97.46
-94.02
-83.96
-68.23
-48.87
-28.46
-9.29
7.19
20.44
30.56
37.98
43.21
46.69
48.87
50.16
50.90
51.31
51.50
51.37
50.84
49.75
48.00
45.59
42.66
39.51
36.61
34.41
33.14
32.69
32.46
31.61
29.35
25.22
19.28
12.05
4.27
-3.33
-10.33
-16.59
-22.23
-27.52
-32.87
-38.79
-45.86
-54.50
-64.67
-75.52
-85.35
-91.88
-92.89
-87.10
-74.59
-56.95
-36.69
-16.52
1.43
16.03
27.11
35.07
40.50
43.85
45.41
45.44
44.34
42.64
40.82
39.22
37.79
36.21
34.16
31.51
28.50
25.70
23.66
22.70
22.69
23.10
23.15
22.07
19.33
14.78
8.63
1.44
-6.08
-13.31
-19.94
-26.03
-32.07
-38.77
-46.82
-56.60
-67.77
-79.14
-88.65
-93.86
-92.70
-84.29
-69.37
-50.19
-29.71
-10.64
5.35
17.86
27.38
34.73
40.53
45.02
48.11
49.62
49.51
47.90
45.16
41.83
38.53
35.85
34.21
33.77
34.33
35.46
36.54
37.01
36.46
34.82
32.26
29.12
25.73
22.21
18.46
14.23
9.29
3.58
-2.83
-9.76
-17.11
-24.87
-33.15
-42.15
-52.01
-62.76
-73.99
-84.71
-93.33
-97.97
-96.95
-89.52
-76.20
-58.70
-39.36
-20.40
-3.32
11.29
23.53
33.76
42.32
49.33
54.83
58.83
61.51
63.13
64.00
64.35
64.28
63.78
62.78
61.34
59.59
57.83
56.38
55.43
54.96
54.69
54.19
53.01
50.84
47.50
43.01
37.56
31.48
25.18
19.06
13.33
7.95
2.63
-3.07
-9.44
-16.51
-23.95
-31.25
-37.93
-43.73
-48.77
-53.46
-58.50
-64.59
-72.27
-81.63
-92.05
-102.01
-109.35
-111.72
-107.34
-95.73
-77.94
-56.28
-33.62
-12.47
5.56
19.93
30.88
39.00
44.86
48.90
51.53
53.15
54.23
55.18
56.14
56.93
57.21
56.63
55.07
52.80
50.40
48.46
47.39
47.19
47.44
47.51
46.75
44.77
41.52
37.32
32.72
28.30
24.48
21.28
18.32
14.94
10.43
4.36
-3.24
-11.84
-20.63
-28.83
-35.95
-41.98
-47.32
-52.65
-58.71
-66.08
-74.88
-84.54
-93.68
-100.26
-102.11
-97.56
-86.18
-68.99
-48.25
-26.70
-6.81
9.89
22.87
32.41
39.13
43.63
46.38
47.75
48.04
47.58
46.63
45.37
43.88
42.17
40.24
38.19
36.24
34.63
33.57
33.06
32.89
32.65
31.93
30.45
28.20
25.38
22.16
18.54
14.29
9.10
2.78
-4.53
-12.35
-20.07
-27.17
-33.48
-39.14
-44.58
-50.36
-57.03
-64.99
-74.26
-84.26
-93.62
-100.37
-102.32
-97.82
-86.49
-69.41
-48.95
-27.93
-8.80
7.03
19.25
28.39
35.21
40.38
44.34
47.32
49.53
51.14
52.31
53.08
53.34
52.93
51.80
50.11
48.23
46.56
45.35
44.53
43.77
42.57
40.55
37.55
33.76
29.51
25.14
20.79
16.40
11.82
6.85
1.40
-4.58
-11.03
-17.88
-24.91
-31.81
-38.27
-44.13
-49.58
-55.20
-61.76
-69.87
-79.50
-89.68
-98.52
-103.64
-102.92
-95.22
-80.86
-61.59
-40.06
-19.01
-0.56
14.23
25.27
33.13
38.55
42.18
44.49
45.88
46.72
47.33
47.84
48.06
47.66
46.27
43.79
40.54
37.17
34.40
32.73
32.19
32.40
32.64
32.25
30.88
28.56
25.59
22.30
18.84
15.07
10.68
5.43
-0.61
-7.07
-13.42
-19.28
-24.58
-29.61
-34.82
-40.63
-47.38
-55.25
-64.21
-73.87
-83.26
-90.71
-94.18
-91.81
-82.73
-67.50
-48.12
-27.36
-7.96
8.22
20.46
29.05
34.79
38.52
40.83
42.04
42.31
41.78
40.66
39.22
37.69
36.16
34.60
32.96
31.18
29.37
27.69
26.37
25.51
25.06
24.70
24.01
22.45
19.61
15.25
9.47
2.65
-4.59
-11.57
-17.85
-23.28
-28.19
-33.19
-38.96
-46.09
-54.78
-64.70
-74.82
-83.46
-88.60
-88.37
-81.77
-69.12
-52.10
-33.29
-15.29
0.06
12.07
21.04
27.76
32.94
36.92
39.77
41.45
42.11
42.05
41.55
40.80
39.85
38.72
37.52
36.42
35.66
35.29
35.21
35.15
34.83
34.04
32.61
30.34
26.91
22.02
15.54
7.69
-0.86
-9.28
-16.82
-23.20
-28.58
-33.51
-38.64
-44.52
-51.54
-59.89
-69.40
-79.37
-88.42
-94.61
-95.88
-90.82
-79.23
-62.35
-42.49
-22.27
-3.86
11.46
23.31
31.98
38.10
42.38
45.51
48.11
50.63
53.16
55.50
57.22
57.91
57.41
55.91
53.83
51.62
49.60
47.81
46.10
44.20
41.92
39.16
35.99
32.58
29.13
25.73
22.32
18.64
14.32
8.98
2.46
-5.18
-13.59
-22.27
-30.73
-38.59
-45.69
-52.17
-58.44
-65.16
-72.95
-82.04
-91.86
-100.87
-106.79
-107.32
-101.02
-87.88
-69.43
-48.30
-27.29
-8.61
6.61
18.27
27.01
33.62
38.80
43.00
46.47
49.42
52.03
54.39
56.41
57.80
58.20
57.37
55.45
53.00
50.80
49.52
49.41
50.15
51.01
51.14
50.01
47.50
43.88
39.61
35.04
30.40
25.61
20.50
14.85
8.52
1.55
-5.83
-13.25
-20.32
-26.80
-32.69
-38.32
-44.27
-51.14
-59.33
-68.72
-78.51
-87.13
-92.60
-92.98
-86.98
-74.53
-56.94
-36.61
-16.32
1.58
15.77
26.14
33.43
38.65
42.65
45.81
48.15
49.58
50.07
49.70
48.63
47.06
45.14
43.02
40.90
39.01
37.49
36.35
35.51
34.82
34.11
33.21
31.85
29.68
26.30
21.47
15.23
8.02
0.44
-6.92
-13.75
-20.04
-26.00
-31.93
-38.08
-44.78
-52.34
-60.97
-70.45
-79.82
-87.34
-90.86
-88.61
-79.88
-65.43
-47.28
-28.01
-9.92
5.51
17.83
27.29
34.44
39.78
43.66
46.29
47.91
48.80
49.26
49.47
49.45
49.07
48.07
46.24
43.61
40.50
37.39
34.81
33.08
32.15
31.57
30.64
28.67
25.20
20.22
14.09
7.41
0.74
-5.57
-11.47
-17.14
-22.88
-29.03
-35.90
-43.87
-53.13
-63.52
-74.15
-83.41
-89.18
-89.45
-83.14
-70.53
-53.25
-33.75
-14.52
2.58
16.60
27.39
35.29
40.74
44.17
45.95
46.53
46.38
45.93
45.47
45.02
44.34
43.12
41.12
38.33
35.06
31.73
28.83
26.62
25.05
23.77
22.20
19.74
16.03
10.99
4.90
-1.76
-8.59
-15.39
-22.24
-29.51
-37.64
-46.98
-57.49
-68.47
-78.53
-85.72
-88.04
-84.14
-73.88
-58.48
-40.21
-21.61
-4.71
9.36
20.38
28.71
34.82
39.19
42.19
44.18
45.51
46.41
46.85
46.60
45.35
42.94
39.47
35.41
31.34
27.82
25.07
22.99
21.19
19.10
16.27
12.41
7.56
1.97
-4.00
-10.00
-15.86
-21.61
-27.58
-34.28
-42.22
-51.63
-62.06
-72.26
-80.29
-83.99
-81.69
-72.88
-58.46
-40.50
-21.54
-3.83
11.19
23.08
32.11
38.86
43.90
47.58
50.09
51.56
52.14
51.99
51.23
49.94
48.04
45.46
42.17
38.30
34.20
30.35
27.17
24.83
23.13
21.53
19.33
16.02
11.46
5.90
-0.15
-6.11
-11.63
-16.69
-21.61
-26.98
-33.50
-41.66
-51.46
-62.15
-72.15
-79.37
-81.74
-77.88
-67.63
-52.16
-33.65
-14.59
2.82
17.15
27.91
35.29
39.91
42.49
43.66
43.91
43.61
43.03
42.32
41.50
40.47
38.95
36.75
33.79
30.29
26.72
23.63
21.45
20.17
19.39
18.37
16.37
12.91
8.02
2.08
-4.27
-10.46
-16.17
-21.41
-26.48
-31.89
-38.21
-45.91
-55.07
-65.07
-74.45
-81.13
-82.96
-78.47
-67.50
-51.34
-32.30
-12.97
4.55
19.04
30.18
38.16
43.48
46.60
47.98
48.02
47.11
45.58
43.71
41.72
39.79
37.99
36.26
34.45
32.34
29.81
26.98
24.20
21.90
20.33
19.38
18.48
16.85
13.76
8.89
2.43
-4.99
-12.56
-19.61
-25.86
-31.42
-36.69
-42.16
-48.34
-55.67
-64.44
-74.50
-85.01
-94.28
-99.99
-99.87
-92.65
-78.56
-59.52
-38.40
-18.07
-0.56
13.33
23.85
31.74
37.72
42.22
45.46
47.63
49.02
49.97
50.76
51.43
51.81
51.51
50.21
47.79
44.55
41.12
38.22
36.38
35.60
35.37
34.81
33.17
30.08
25.79
21.00
16.47
12.69
9.62
6.81
3.57
-0.65
-6.14
-12.81
-20.28
-28.01
-35.45
-42.21
-48.13
-53.30
-58.12
-63.22
-69.31
-76.84
-85.57
-94.30
-100.91
-102.88
-98.17
-86.04
-67.48
-44.97
-21.68
-0.48
16.85
29.80
38.88
45.00
49.06
51.63
53.10
53.72
53.76
53.42
52.83
51.89
50.40
48.19
45.27
42.00
38.90
36.51
35.11
34.59
34.48
34.15
33.09
31.03
28.08
24.60
20.98
17.40
13.79
9.84
5.17
-0.43
-6.85
-13.68
-20.36
-26.40
-31.60
-36.14
-40.50
-45.36
-51.39
-58.94
-67.65
-76.35
-83.03
-85.41
-81.67
-71.16
-54.78
-34.71
-13.67
5.85
22.19
34.65
43.25
48.37
50.52
50.25
48.24
45.17
41.67
38.18
34.88
31.77
28.74
25.79
23.01
20.49
18.33
16.58
15.24
14.34
13.88
13.68
13.39
12.45
10.31
6.63
1.47
-4.76
-11.46
-18.14
-24.52
-30.55
-36.31
-42.00
-47.82
-54.14
-61.38
-69.82
-79.19
-88.42
-95.67
-98.75
-95.89
-86.31
-70.66
-50.79
-29.24
-8.52
9.48
23.73
34.06
40.87
44.84
46.71
47.12
46.62
45.59
44.31
42.93
41.46
39.86
38.08
36.13
34.10
32.12
30.38
28.97
27.93
27.19
26.61
26.00
25.11
23.62
21.24
17.69
12.88
6.95
0.24
-6.80
-13.76
-20.42
-26.75
-32.89
-38.99
-45.22
-51.84
-59.23
-67.76
-77.51
-87.82
-97.05
-102.87
-102.96
-95.88
-81.78
-62.42
-40.59
-19.15
-0.30
14.84
26.11
33.94
39.05
42.24
44.34
46.12
48.13
50.51
52.95
54.88
55.73
55.27
53.69
51.51
49.26
47.33
45.81
44.62
43.56
42.45
41.12
39.44
37.23
34.38
30.80
26.46
21.39
15.56
9.02
1.89
-5.55
-12.91
-19.82
-26.11
-31.96
-37.88
-44.57
-52.66
-62.46
-73.69
-85.33
-95.62
-102.29
-103.21
-96.99
-83.62
-64.61
-42.50
-20.18
-0.03
16.59
29.34
38.54
44.77
48.54
50.31
50.45
49.35
47.44
45.09
42.57
40.06
37.66
35.33
33.03
30.63
28.12
25.66
23.55
22.12
21.44
21.15
20.50
18.60
14.82
9.00
1.61
-6.57
-14.61
-21.76
-27.51
-31.65
-34.29
-35.95
-37.58
-40.27
-44.91
-51.49
-58.87
-64.90
-67.10
-63.60
-53.83
-38.78
-20.57
-1.67
15.79
30.52
42.05
50.47
56.11
59.33
60.41
59.69
57.56
54.55
51.24
48.17
45.66
43.72
42.06
40.22
37.81
34.76
31.34
28.04
25.29
23.18
21.37
19.22
16.10
11.59
5.65
-1.46
-9.25
-17.24
-25.03
-32.39
-39.26
-45.81
-52.45
-59.71
-68.17
-78.11
-89.27
-100.58
-110.13
-115.61
-114.89
-106.84
-91.76
-71.43
-48.57
-25.96
-5.68
11.23
24.69
35.13
43.07
48.98
53.17
56.02
57.93
59.27
60.22
60.72
60.57
59.61
57.86
55.54
52.98
50.46
48.06
45.72
43.29
40.70
37.92
34.98
31.84
28.36
24.37
19.75
14.51
8.77
2.66
-3.79
-10.65
-18.01
-25.87
-34.15
-42.76
-51.75
-61.35
-71.85
-83.17
-94.57
-104.43
-110.58
-110.90
-104.05
-90.09
-70.48
-47.70
-24.52
-3.31
14.52
28.54
39.12
46.98
52.88
57.36
60.74
63.16
64.65
65.26
65.02
64.05
62.48
60.54
58.49
56.60
55.05
53.88
52.99
52.12
50.96
49.19
46.64
43.20
38.95
34.00
28.53
22.65
16.35
9.61
2.37
-5.28
-13.15
-20.94
-28.42
-35.56
-42.65
-50.25
-58.96
-69.07
-80.13
-90.73
-98.61
-101.28
-96.87
-84.89
-66.55
-44.35
-21.35
-0.19
17.52
31.27
41.31
48.23
52.57
54.78
55.30
54.67
53.48
52.27
51.33
50.66
49.97
48.86
47.04
44.42
41.28
38.05
35.25
33.21
31.97
31.28
30.59
29.27
26.73
22.59
16.84
9.84
2.20
-5.36
-12.39
-18.75
-24.71
-30.83
-37.79
-46.13
-56.17
-67.72
-79.88
-91.01
-98.84
-101.12
-96.30
-84.23
-66.28
-44.96
-23.17
-3.30
13.23
26.02
35.39
41.94
46.30
48.99
50.52
51.32
51.73
51.88
51.65
50.84
49.28
47.02
44.36
41.73
39.54
37.96
36.92
36.10
35.16
33.84
32.03
29.72
26.96
23.70
19.80
15.09
9.44
2.90
-4.29
-11.71
-18.97
-25.82
-32.26
-38.54
-45.17
-52.72
-61.70
-72.29
-84.01
-95.51
-104.62
-108.87
-106.19
-95.81
-78.68
-57.21
-34.64
-13.87
3.28
16.35
25.87
32.82
38.04
42.08
45.26
47.79
49.87
51.62
52.99
53.75
53.64
52.51
50.54
48.19
46.00
44.39
43.43
42.84
42.14
40.85
38.72
35.73
32.15
28.26
24.31
20.38
16.34
11.94
6.92
1.18
-5.22
-11.99
-18.78
-25.27
-31.38
-37.27
-43.34
-50.12
-58.16
-67.70
-78.39
-89.07
-97.80
-102.28
-100.56
-91.80
-76.68
-57.30
-36.53
-17.02
-0.55
12.27
21.80
28.76
33.84
37.52
40.08
41.84
43.13
44.25
45.28
46.06
46.32
45.80
44.52
42.74
40.91
39.36
38.27
37.57
37.04
36.43
35.46
33.94
31.65
28.44
24.21
18.96
12.76
5.85
-1.49
-8.87
-15.94
-22.53
-28.70
-34.84
-41.62
-49.74
-59.56
-70.70
-81.92
-91.20
-96.32
-95.41
-87.68
-73.68
-55.14
-34.51
-14.24
3.81
18.65
30.02
38.28
43.95
47.62
49.81
50.97
51.44
51.44
51.09
50.37
49.27
47.80
46.14
44.54
43.28
42.51
42.22
42.15
41.94
41.20
39.64
37.12
33.68
29.46
24.69
19.54
14.11
8.35
2.16
-4.58
-11.82
-19.35
-26.78
-33.72
-39.97
-45.73
-51.53
-58.19
-66.44
-76.52
-87.88
-99.02
-107.75
-111.73
-109.21
-99.65
-83.91
-64.01
-42.50
-21.74
-3.36
11.88
23.94
33.23
40.29
45.64
49.69
52.77
55.14
57.00
58.45
59.49
60.00
59.81
58.83
57.10
54.87
52.59
50.66
49.37
48.67
48.19
47.44
45.94
43.45
39.99
35.74
30.99
25.95
20.78
15.54
10.23
4.77
-0.93
-6.93
-13.17
-19.43
-25.36
-30.64
-35.18
-39.22
-43.26
-48.00
-54.06
-61.91
-71.57
-82.57
-93.65
-102.93
-108.13
-107.21
-99.09
-84.09
-63.96
-41.38
-19.19
0.47
16.36
28.28
36.64
42.21
45.78
48.10
49.72
50.95
51.82
52.17
51.81
50.65
48.90
46.93
45.21
44.07
43.58
43.58
43.70
43.57
42.89
41.47
39.29
36.39
32.89
28.88
24.45
19.62
14.38
8.69
2.47
-4.25
-11.36
-18.58
-25.55
-31.89
-37.45
-42.34
-47.06
-52.35
-58.99
-67.35
-77.07
-86.80
-94.46
-97.71
-94.70
-84.79
-68.80
-48.85
-27.59
-7.49
9.82
23.65
34.00
41.27
45.92
48.41
49.24
49.02
48.36
47.65
47.01
46.22
44.95
43.02
40.56
38.01
35.87
34.47
33.77
33.40
32.83
31.65
29.74
27.27
24.52
21.67
18.66
15.22
11.00
5.81
-0.31
-7.05
-14.01
-20.80
-27.27
-33.36
-39.16
-44.79
-50.47
-56.57
-63.64
-72.05
-81.68
-91.48
-99.50
-103.31
-100.81
-91.08
-74.83
-54.25
-32.23
-11.46
6.26
20.22
30.57
37.90
42.92
46.23
48.39
49.86
51.02
52.10
53.17
54.14
54.86
55.13
54.78
53.77
52.17
50.16
48.04
46.16
44.77
43.90
43.36
42.73
41.55
39.44
36.25
32.05
27.09
21.69
16.15
10.65
5.21
-0.20
-5.72
-11.45
-17.45
-23.70
-30.10
-36.48
-42.66
-48.53
-54.14
-59.81
-66.06
-73.47
-82.31
-92.21
-101.92
-109.39
-112.25
-108.58
-97.63
-80.17
-58.35
-35.07
-13.09
5.59
20.08
30.52
37.63
42.33
45.46
47.66
49.32
50.66
51.75
52.52
52.83
52.48
51.31
49.31
46.62
43.67
41.01
39.19
38.55
39.02
40.11
41.06
41.13
39.84
37.14
33.35
28.92
24.31
19.75
15.30
10.87
6.31
1.48
-3.75
-9.45
-15.59
-21.98
-28.28
-34.08
-39.14
-43.47
-47.52
-52.00
-57.71
-65.13
-74.05
-83.37
-91.22
-95.38
-93.96
-85.94
-71.61
-52.47
-30.86
-9.32
10.01
25.70
37.19
44.62
48.65
50.10
49.83
48.51
46.61
44.43
42.11
39.73
37.30
34.85
32.40
30.06
27.98
26.34
25.26
24.70
24.47
24.28
23.84
22.88
21.26
18.81
15.40
10.94
5.48
-0.81
-7.58
-14.47
-21.18
-27.53
-33.51
-39.19
-44.79
-50.68
-57.32
-65.11
-74.16
-83.82
-92.59
-98.34
-98.87
-92.69
-79.69
-61.27
-39.95
-18.56
0.62
16.31
28.27
36.94
42.94
46.80
48.91
49.63
49.39
48.64
47.74
46.75
45.52
43.78
41.42
38.61
35.84
33.66
32.45
32.19
32.42
32.42
31.51
29.34
25.95
21.74
17.19
12.62
8.00
3.09
-2.36
-8.42
-14.84
-21.20
-27.17
-32.66
-37.97
-43.61
-50.14
-58.00
-67.31
-77.71
-88.21
-97.12
-102.35
-101.88
-94.48
-80.30
-60.91
-38.93
-17.16
2.22
18.07
30.19
38.93
44.81
48.27
49.83
50.09
49.83
49.74
50.13
50.87
51.44
51.18
49.76
47.30
44.38
41.77
40.02
39.28
39.15
38.95
37.99
35.80
32.35
28.00
23.31
18.83
14.83
11.23
7.56
3.25
-2.16
-8.84
-16.48
-24.50
-32.18
-39.09
-45.17
-50.81
-56.65
-63.42
-71.63
-81.33
-92.00
-102.31
-110.28
-113.63
-110.45
-99.86
-82.52
-60.49
-36.70
-14.06
5.41
20.81
32.28
40.51
46.27
50.11
52.51
53.94
54.92
55.92
57.17
58.52
59.46
59.44
58.10
55.54
52.32
49.19
46.85
45.62
45.40
45.70
45.90
45.40
43.79
40.96
37.06
32.46
27.61
22.90
18.51
14.37
10.14
5.37
-0.30
-6.93
-14.23
-21.67
-28.63
-34.75
-40.07
-45.12
-50.76
-57.99
-67.62
-79.81
-93.85
-107.88
-119.26
-125.06
-122.99
-112.12
-93.31
-69.02
-42.55
-17.16
4.78
22.13
34.79
43.36
48.62
51.33
52.18
51.75
50.60
49.18
47.79
46.56
45.40
44.16
42.76
41.22
39.74
38.56
37.84
37.53
37.41
37.11
36.30
34.81
32.62
29.75
26.20
21.87
16.63
10.45
3.46
-4.05
-11.68
-19.09
-26.14
-32.86
-39.50
-46.46
-54.18
-62.94
-72.62
-82.40
-90.74
-95.57
-94.90
-87.47
-73.32
-53.92
-31.78
-9.72
9.89
25.67
37.34
45.39
50.65
53.83
55.34
55.37
54.06
51.72
48.81
45.89
43.38
41.47
39.99
38.65
37.17
35.49
33.76
32.26
31.21
30.55
29.92
28.77
26.51
22.76
17.46
10.92
3.65
-3.82
-11.09
-18.07
-24.93
-32.01
-39.71
-48.38
-58.30
-69.51
-81.59
-93.46
-103.31
-108.93
-108.30
-100.32
-85.31
-65.03
-42.17
-19.55
0.64
17.24
30.07
39.58
46.46
51.39
54.93
57.56
59.67
61.54
63.26
64.64
65.35
65.05
63.65
61.40
58.87
56.66
55.14
54.25
53.46
52.16
49.82
46.31
41.81
36.70
31.34
25.90
20.40
14.69
8.61
1.98
-5.24
-13.02
-21.18
-29.46
-37.57
-45.30
-52.67
-59.98
-67.83
-76.81
-87.08
-98.00
-107.94
-114.60
-115.61
-109.49
-96.19
-77.23
-55.20
-32.95
-12.75
4.20
17.78
28.52
37.11
44.07
49.66
54.02
57.35
59.95
62.12
63.99
65.39
65.92
65.17
63.08
59.99
56.64
53.86
52.20
51.72
51.98
52.24
51.73
49.95
46.80
42.56
37.78
32.97
28.41
24.02
19.45
14.21
7.99
0.80
-7.01
-14.87
-22.28
-28.98
-35.05
-40.88
-47.00
-53.96
-62.15
-71.67
-82.10
-92.34
-100.67
-105.02
-103.59
-95.42
-80.86
-61.50
-39.74
-18.07
1.48
17.73
30.23
39.13
44.91
48.21
49.78
50.36
50.60
50.78
50.89
50.61
49.61
47.76
45.25
42.61
40.46
39.30
39.27
40.09
41.12
41.59
40.87
38.63
34.99
30.37
25.32
20.24
15.26
10.17
4.61
-1.68
-8.69
-16.07
-23.33
-30.06
-36.16
-41.88
-47.74
-54.40
-62.39
-71.86
-82.34
-92.60
-100.79
-104.74
-102.60
-93.47
-77.83
-57.51
-35.14
-13.45
5.54
20.79
32.25
40.48
46.23
50.19
52.92
54.84
56.41
57.97
59.72
61.62
63.31
64.33
64.29
63.12
61.12
58.89
57.06
56.07
55.97
56.41
56.73
56.28
54.51
51.20
46.40
40.39
33.53
26.21
18.79
11.54
4.63
-1.97
-8.49
-15.26
-22.57
-30.48
-38.71
-46.68
-53.77
-59.56
-64.13
-68.10
-72.44
-78.08
-85.47
-94.15
-102.68
-108.87
-110.42
-105.62
-93.97
-76.40
-54.98
-32.38
-11.03
7.29
21.70
32.16
39.16
43.44
45.82
47.04
47.75
48.45
49.40
50.61
51.87
52.79
52.96
52.13
50.32
47.88
45.35
43.28
42.01
41.57
41.70
41.97
41.92
41.21
39.61
36.98
33.34
28.83
23.75
18.46
13.28
8.32
3.48
-1.53
-6.98
-12.94
-19.16
-25.21
-30.65
-35.25
-39.12
-42.69
-46.53
-51.18
-57.08
-64.43
-73.05
-82.21
-90.48
-95.86
-96.22
-89.99
-76.84
-57.97
-35.85
-13.49
6.45
22.24
33.34
40.09
43.37
44.18
43.48
42.10
40.60
39.21
37.87
36.26
34.16
31.58
28.89
26.66
25.36
25.13
25.68
26.54
27.22
27.43
27.02
25.91
24.03
21.35
17.92
13.88
9.45
4.73
-0.24
-5.54
-11.20
-17.13
-23.15
-29.10
-34.95
-40.88
-47.20
-54.21
-62.03
-70.55
-79.12
-86.66
-91.61
-92.27
-87.33
-76.38
-60.20
-40.74
-20.51
-1.94
13.25
24.39
31.74
36.13
38.50
39.61
39.85
39.37
38.22
36.51
34.42
32.21
30.08
28.12
26.39
24.89
23.73
23.07
22.97
23.34
23.82
23.89
23.15
21.45
18.97
16.09
13.14
10.14
6.75
2.51
-2.96
-9.66
-17.21
-24.96
-32.31
-38.95
-44.98
-50.77
-56.86
-63.75
-71.63
-80.17
-88.31
-94.30
-96.04
-91.75
-80.75
-63.82
-43.16
-21.69
-2.14
13.68
25.19
32.84
37.52
40.12
41.33
41.67
41.60
41.52
41.72
42.18
42.65
42.67
41.88
40.16
37.77
35.16
32.81
31.00
29.76
28.85
27.89
26.55
24.56
21.86
18.55
14.77
10.71
6.43
1.85
-3.25
-8.98
-15.36
-22.10
-28.78
-34.97
-40.53
-45.74
-51.27
-57.90
-66.01
-75.27
-84.41
-91.45
-94.20
-91.04
-81.41
-66.15
-47.27
-27.30
-8.61
7.22
19.57
28.60
34.85
38.90
41.16
41.92
41.41
39.98
38.01
35.94
34.05
32.46
31.10
29.73
28.10
26.06
23.68
21.20
19.01
17.40
16.43
15.78
14.87
13.06
9.93
5.54
0.38
-4.83
-9.52
-13.54
-17.24
-21.33
-26.55
-33.44
-42.13
-52.32
-63.20
-73.48
-81.43
-85.17
-83.17
-74.77
-60.60
-42.44
-22.78
-4.06
11.88
24.18
32.92
38.71
42.45
44.92
46.68
47.99
48.84
49.07
48.56
47.33
45.54
43.49
41.48
39.73
38.34
37.36
36.73
36.37
36.11
35.70
34.83
33.19
30.56
26.81
21.98
16.22
9.79
2.96
-4.05
-11.15
-18.33
-25.59
-32.82
-39.81
-46.41
-52.77
-59.38
-67.03
-76.27
-86.89
-97.56
-105.99
-109.64
-106.57
-96.21
-79.58
-58.87
-36.68
-15.31
3.68
19.53
32.08
41.51
48.30
53.09
56.62
59.59
62.46
65.35
68.07
70.22
71.43
71.51
70.45
68.45
65.86
63.16
60.81
59.15
58.25
57.90
57.54
56.52
54.29
50.60
45.65
39.96
34.20
28.87
24.09
19.60
14.88
9.44
3.05
-4.16
-11.78
-19.39
-26.65
-33.48
-39.96
-46.33
-52.87
-60.00
-68.17
-77.60
-87.90
-97.73
-104.83
-106.63
-101.25
-88.35
-69.41
-47.33
-25.35
-5.94
9.74
21.80
31.04
38.23
43.81
47.84
50.37
51.64
52.13
52.35
52.59
52.74
52.48
51.49
49.70
47.40
45.14
43.45
42.57
42.41
42.59
42.65
42.28
41.40
40.09
38.51
36.82
35.09
33.28
31.13
28.27
24.25
18.76
11.74
3.55
-5.18
-13.69
-21.44
-28.25
-34.35
-40.39
-47.17
-55.38
-65.28
-76.34
-87.10
-95.34
-98.66
-95.17
-84.28
-66.96
-45.54
-22.97
-2.00
15.53
28.85
38.11
44.03
47.50
49.35
50.25
50.70
50.99
51.23
51.36
51.19
50.59
49.45
47.87
46.09
44.47
43.35
42.94
43.23
44.00
44.85
45.30
44.92
43.41
40.70
36.93
32.41
27.54
22.65
17.95
13.35
8.67
3.68
-1.79
-7.70
-13.94
-20.32
-26.69
-32.92
-38.88
-44.44
-49.51
-54.17
-58.85
-64.25
-71.15
-79.98
-90.33
-100.72
-108.82
-112.08
-108.55
-97.70
-80.58
-59.54
-37.44
-16.84
0.62
14.28
24.28
31.21
35.83
38.97
41.42
43.85
46.63
49.71
52.70
55.02
56.23
56.18
55.12
53.57
52.11
51.22
51.09
51.59
52.37
52.90
52.69
51.47
49.20
46.16
42.72
39.22
35.80
32.36
28.64
24.33
19.26
13.44
7.17
0.95
-4.71
-9.44
-13.20
-16.33
-19.39
-22.90
-27.14
-32.09
-37.41
-42.70
-47.65
-52.19
-56.46
-60.89
-65.99
-72.33
-80.15
-89.04
-97.69
-104.04
-105.74
-101.02
-89.37
-71.84
-50.73
-28.87
-8.78
7.93
20.68
29.72
35.70
39.32
41.22
41.97
42.14
42.26
42.67
43.47
44.44
45.11
45.00
43.86
41.78
39.15
36.57
34.54
33.37
33.09
33.53
34.32
35.04
35.25
34.62
32.93
30.14
26.39
21.97
17.16
12.25
7.44
2.88
-1.37
-5.32
-8.97
-12.43
-15.82
-19.29
-23.04
-27.16
-31.64
-36.31
-40.95
-45.35
-49.53
-53.78
-58.61
-64.47
-71.34
-78.44
-84.21
-86.62
-83.86
-75.05
-60.56
-42.04
-21.90
-2.56
14.06
26.94
35.91
41.38
44.09
44.81
44.28
43.02
41.33
39.30
36.90
34.15
31.19
28.30
25.83
24.01
22.86
22.24
21.86
21.50
21.04
20.48
19.80
18.88
17.47
15.29
12.16
8.18
3.68
-0.98
-5.60
-10.28
-15.30
-20.92
-27.11
-33.52
-39.62
-45.04
-49.76
-54.21
-59.04
-64.91
-72.16
-80.59
-89.33
-96.87
-101.31
-100.82
-94.18
-81.28
-63.28
-42.38
-21.20
-2.09
13.48
25.02
32.87
37.83
40.74
42.33
43.10
43.42
43.56
43.65
43.70
43.54
42.86
41.44
39.26
36.60
33.94
31.80
30.50
30.00
29.92
29.71
28.78
26.82
23.78
19.98
15.93
12.11
8.76
5.78
2.71
-1.08
-6.13
-12.65
-20.38
-28.70
-36.83
-44.08
-50.10
-55.06
-59.57
-64.56
-71.01
-79.52
-89.90
-100.99
-110.70
-116.45
-116.03
-108.23
-93.37
-73.19
-50.30
-27.45
-6.89
10.07
22.98
32.07
38.00
41.58
43.70
45.14
46.49
48.02
49.71
51.24
52.21
52.24
51.17
49.12
46.54
44.13
42.58
42.30
43.24
44.81
46.04
46.00
44.07
40.30
35.20
29.58
24.10
19.03
14.15
8.98
3.06
-3.76
-11.24
-18.86
-26.07
-32.59
-38.53
-44.43
-51.09
-59.25
-69.35
-81.08
-93.25
-103.81
-110.25
-110.32
-102.74
-87.75
-67.13
-43.62
-20.15
0.99
18.52
32.18
42.33
49.54
54.33
57.10
58.27
58.27
57.52
56.33
54.80
52.94
50.74
48.33
45.99
44.02
42.56
41.50
40.54
39.35
37.76
35.72
33.33
30.58
27.35
23.34
18.26
11.96
4.58
-3.50
-11.78
-19.78
-27.27
-34.26
-41.08
-48.22
-56.27
-65.76
-76.90
-89.37
-102.08
-113.14
-120.19
-120.91
-113.80
-98.78
-77.31
-52.02
-25.95
-1.77
18.87
35.31
47.72
56.69
62.84
66.81
69.22
70.67
71.73
72.73
73.66
74.23
74.00
72.72
70.49
67.77
65.21
63.35
62.37
62.00
61.62
60.53
58.23
54.68
50.15
45.09
39.81
34.34
28.39
21.54
13.53
4.42
-5.39
-15.33
-24.86
-33.68
-41.79
-49.51
-57.43
-66.29
-76.81
-89.24
-102.93
-116.11
-126.07
-129.89
-125.37
-111.89
-90.67
-64.41
-36.48
-9.96
13.03
31.44
45.19
54.78
61.00
64.76
66.96
68.41
69.76
71.28
72.88
74.21
74.80
74.26
72.48
69.74
66.60
63.75
61.76
60.84
60.69
60.61
59.77
57.51
53.64
48.52
42.84
37.30
32.28
27.65
22.92
17.44
10.78
2.93
-5.72
-14.54
-22.98
-30.69
-37.72
-44.45
-51.47
-59.48
-69.08
-80.41
-92.87
-104.89
-114.04
-117.65
-113.71
-101.67
-82.80
-59.83
-36.00
-14.05
4.40
19.00
30.26
39.06
46.23
52.41
58.04
63.26
67.95
71.67
73.85
74.00
71.98
68.15
63.27
58.27
54.01
51.02
49.40
48.83
48.69
48.27
46.99
44.57
41.06
36.69
31.69
26.19
20.17
13.60
6.46
-1.14
-9.02
-16.94
-24.63
-31.94
-38.85
-45.62
-52.81
-61.17
-71.18
-82.64
-94.29
-103.85
-108.64
-106.47
-96.45
-79.34
-57.34
-33.34
-10.13
10.25
26.68
38.93
47.28
52.36
54.95
55.86
55.88
55.57
55.20
54.70
53.79
52.21
49.90
47.11
44.36
42.29
41.32
41.50
42.40
43.25
43.18
41.58
38.25
33.44
27.80
22.01
16.62
11.77
7.22
2.46
-3.05
-9.60
-17.13
-25.20
-33.24
-40.73
-47.49
-53.71
-60.05
-67.31
-76.18
-86.76
-98.25
-108.89
-116.27
-117.94
-112.26
-98.96
-79.39
-56.09
-32.07
-9.99
8.47
22.71
33.01
40.10
44.82
47.91
49.99
51.56
52.99
54.47
55.91
57.00
57.32
56.54
54.71
52.16
49.49
47.27
45.84
45.15
44.85
44.40
43.28
41.15
37.98
34.00
29.60
25.12
20.71
16.25
11.35
5.60
-1.21
-8.89
-16.92
-24.62
-31.46
-37.32
-42.51
-47.69
-53.63
-61.05
-70.35
-81.41
-93.40
-104.69
-112.94
-115.72
-111.24
-99.01
-80.24
-57.45
-33.76
-11.94
6.23
20.14
30.07
36.74
40.98
43.52
45.02
46.04
46.97
47.94
48.79
49.18
48.73
47.30
45.02
42.35
39.90
38.20
37.56
37.91
38.77
39.43
39.19
37.60
34.64
30.65
26.16
21.55
16.87
11.85
6.10
-0.59
-8.04
-15.67
-22.80
-28.93
-34.04
-38.58
-43.34
-49.14
-56.58
-65.81
-76.34
-86.93
-95.67
-100.32
-98.86
-90.29
-74.99
-54.84
-32.65
-11.30
7.02
21.28
31.46
38.18
42.27
44.46
45.28
45.09
44.19
42.77
41.00
39.03
37.00
35.09
33.43
32.04
30.88
29.78
28.61
27.29
25.85
24.37
22.87
21.30
19.46
17.04
13.76
9.38
3.88
-2.58
-9.63
-16.84
-23.82
-30.40
-36.61
-42.66
-48.93
-55.84
-63.81
-73.02
-83.08
-92.87
-100.49
-103.73
-100.71
-90.67
-74.35
-53.85
-31.98
-11.38
6.15
19.92
30.11
37.40
42.52
46.03
48.25
49.39
49.60
49.04
47.84
46.13
44.01
41.67
39.38
37.56
36.66
36.94
38.33
40.38
42.31
43.33
42.87
40.79
37.34
32.99
28.20
23.22
18.01
12.37
6.06
-1.00
-8.67
-16.61
-24.35
-31.47
-37.82
-43.52
-48.97
-54.83
-61.81
-70.55
-81.26
-93.43
-105.60
-115.44
-120.29
-117.98
-107.63
-90.07
-67.66
-43.52
-20.56
-0.79
14.96
26.75
35.18
41.01
45.02
48.02
50.73
53.65
56.87
60.07
62.68
64.16
64.29
63.22
61.36
59.24
57.25
55.69
54.73
54.44
54.69
55.04
54.85
53.49
50.60
46.31
41.17
35.82
30.64
25.53
20.05
13.62
5.95
-2.87
-12.39
-22.01
-31.22
-39.73
-47.51
-54.80
-61.98
-69.57
-78.15
-88.01
-98.77
-109.19
-117.15
-120.19
-116.25
-104.56
-85.94
-62.70
-37.92
-14.48
5.55
21.27
32.71
40.52
45.52
48.55
50.36
51.55
52.50
53.28
53.71
53.50
52.48
50.71
48.55
46.53
45.10
44.46
44.52
44.92
45.17
44.79
43.45
41.06
37.75
33.78
29.44
24.91
20.12
14.86
8.85
1.97
-5.63
-13.55
-21.26
-28.35
-34.67
-40.48
-46.41
-53.29
-61.81
-72.15
-83.64
-94.59
-102.55
-105.03
-100.26
-87.93
-69.36
-47.11
-24.17
-3.07
14.65
28.48
38.62
45.56
49.84
52.02
52.73
52.69
52.63
52.99
53.76
54.54
54.73
53.93
52.09
49.67
47.37
45.82
45.28
45.54
46.02
45.98
44.86
42.38
38.69
34.18
29.29
24.33
19.26
13.85
7.71
0.59
-7.46
-16.07
-24.63
-32.54
-39.46
-45.44
-50.89
-56.56
-63.30
-71.83
-82.41
-94.46
-106.40
-115.73
-119.70
-116.16
-104.42
-85.55
-62.19
-37.59
-14.64
4.79
20.14
31.71
40.23
46.41
50.80
53.86
56.06
57.82
59.45
61.01
62.27
62.85
62.39
60.78
58.25
55.32
52.70
50.92
50.21
50.37
50.87
51.02
50.24
48.20
44.87
40.56
35.67
30.63
25.67
20.83
15.87
10.39
4.07
-3.30
-11.51
-20.11
-28.50
-36.19
-42.97
-49.03
-54.87
-61.14
-68.59
-77.73
-88.57
-100.31
-111.22
-118.86
-120.66
-114.78
-100.83
-80.15
-55.48
-30.11
-6.87
12.46
27.30
38.02
45.32
49.96
52.58
53.79
54.25
54.60
55.25
56.19
57.02
57.07
55.83
53.22
49.68
46.06
43.24
41.77
41.71
42.61
43.65
44.01
43.08
40.62
36.88
32.38
27.79
23.60
19.91
16.41
12.49
7.57
1.33
-6.07
-14.08
-22.00
-29.27
-35.71
-41.53
-47.20
-53.29
-60.32
-68.57
-77.87
-87.39
-95.52
-100.11
-99.04
-90.97
-75.99
-55.70
-32.81
-10.28
9.50
25.24
36.70
44.39
49.07
51.50
52.31
52.02
51.03
49.61
47.88
45.82
43.38
40.52
37.40
34.33
31.82
30.25
29.79
30.19
30.85
31.04
30.16
28.03
24.85
21.09
17.21
13.38
9.46
5.08
-0.14
-6.37
-13.48
-21.10
-28.66
-35.70
-41.95
-47.53
-52.88
-58.71
-65.78
-74.56
-84.85
-95.49
-104.43
-109.11
-107.26
-97.69
-80.87
-58.84
-34.65
-11.38
8.66
24.32
35.52
42.85
47.12
49.07
49.42
48.84
47.92
47.05
46.35
45.64
44.62
43.05
40.90
38.49
36.31
34.87
34.43
34.88
35.74
36.32
35.97
34.28
31.21
27.08
22.40
17.65
13.11
8.68
4.03
-1.27
-7.55
-14.81
-22.72
-30.66
-38.01
-44.41
-49.92
-55.06
-60.64
-67.55
-76.38
-87.04
-98.54
-108.92
-115.64
-116.23
-109.18
-94.48
-73.78
-49.91
-25.94
-4.39
13.31
26.80
36.43
42.90
46.95
49.32
50.73
51.80
52.95
54.25
55.45
56.12
55.85
54.47
52.11
49.24
46.49
44.47
43.56
43.73
44.54
45.23
45.04
43.44
40.36
36.11
31.32
26.57
22.26
18.39
14.63
10.48
5.45
-0.73
-8.02
-16.04
-24.26
-32.17
-39.46
-46.11
-52.42
-58.89
-66.18
-74.87
-85.09
-96.20
-106.62
-114.00
-115.86
-110.42
-97.36
-78.01
-54.93
-31.11
-9.11
9.46
23.93
34.38
41.24
45.14
46.87
47.32
47.35
47.57
48.13
48.79
49.05
48.45
46.87
44.55
41.96
39.61
37.80
36.60
35.83
35.25
34.64
33.82
32.62
30.77
27.91
23.63
17.65
10.00
1.19
-7.83
-15.90
-22.00
-25.63
-26.92
-26.65
-25.97
-26.17
-28.39
-33.44
-41.57
-52.14
-63.45
-72.96
-77.82
-75.82
-66.22
-50.11
-30.09
-9.33
9.44
24.64
35.92
43.78
48.93
51.95
53.21
53.02
51.80
50.11
48.38
46.84
45.42
43.89
42.08
40.04
38.00
36.28
35.08
34.31
33.71
32.86
31.41
29.20
26.25
22.68
18.59
13.96
8.73
2.80
-3.76
-10.76
-17.93
-25.03
-31.92
-38.59
-45.09
-51.55
-58.16
-65.36
-73.69
-83.49
-94.44
-105.15
-113.24
-115.95
-111.12
-98.13
-78.20
-54.06
-29.02
-5.96
13.30
28.13
38.77
45.94
50.44
53.09
54.63
55.72
56.78
57.95
59.05
59.66
59.30
57.71
54.97
51.58
48.34
46.01
45.09
45.57
46.89
48.14
48.39
47.06
44.00
39.58
34.39
29.01
23.74
18.57
13.22
7.30
0.53
-7.10
-15.33
-23.71
-31.74
-39.12
-45.85
-52.26
-58.97
-66.68
-75.95
-86.79
-98.38
-108.96
-116.03
-117.07
-110.33
-95.60
-74.36
-49.42
-24.06
-1.07
17.80
31.99
41.86
48.18
51.93
54.03
55.30
56.45
57.91
59.77
61.71
63.18
63.57
62.52
60.09
56.75
53.23
50.25
48.22
47.16
46.62
45.99
44.68
42.35
39.08
35.17
31.01
26.77
22.38
17.53
11.90
5.35
-1.99
-9.72
-17.37
-24.63
-31.40
-37.82
-44.22
-51.04
-58.74
-67.58
-77.39
-87.28
-95.52
-99.97
-98.59
-90.27
-75.27
-55.30
-32.91
-10.81
8.80
24.63
36.28
43.98
48.39
50.40
50.88
50.63
50.11
49.44
48.48
47.00
44.88
42.23
39.42
36.90
35.08
34.12
33.87
33.94
33.81
33.01
31.32
28.75
25.46
21.63
17.28
12.29
6.50
-0.12
-7.39
-14.93
-22.32
-29.29
-35.73
-41.72
-47.45
-53.22
-59.40
-66.35
-74.13
-82.19
-89.16
-92.99
-91.60
-83.69
-69.40
-50.42
-29.43
-9.26
8.02
21.45
31.11
37.70
42.08
45.04
47.16
48.88
50.42
51.88
53.15
54.03
54.28
53.71
52.31
50.21
47.67
45.04
42.62
40.57
38.89
37.36
35.70
33.70
31.30
28.63
25.90
23.26
20.69
17.94
14.62
10.30
4.72
-2.06
-9.67
-17.49
-24.90
-31.50
-37.28
-42.65
-48.33
-55.13
-63.72
-74.26
-86.16
-97.95
-107.37
-111.93
-109.57
-99.49
-82.45
-60.76
-37.54
-15.76
2.57
16.79
27.35
35.23
41.28
45.96
49.36
51.52
52.68
53.24
53.61
53.97
54.14
53.71
52.34
49.97
46.96
43.92
41.48
40.06
39.67
39.98
40.34
40.05
38.52
35.50
31.22
26.24
21.26
16.75
12.77
8.94
4.70
-0.46
-6.68
-13.74
-21.12
-28.25
-34.76
-40.54
-45.84
-51.10
-56.94
-63.95
-72.48
-82.33
-92.49
-101.12
-105.84
-104.45
-95.71
-79.83
-58.64
-35.00
-12.07
7.65
22.81
33.25
39.69
43.22
44.89
45.50
45.57
45.42
45.23
45.01
44.66
43.98
42.69
40.63
37.81
34.54
31.33
28.77
27.27
26.86
27.20
27.63
27.54
26.59
24.81
22.52
20.03
17.35
14.14
9.90
4.25
-2.74
-10.51
-18.27
-25.33
-31.32
-36.36
-40.90
-45.62
-51.24
-58.27
-66.79
-76.14
-84.74
-90.33
-90.60
-83.98
-70.37
-51.29
-29.44
-7.86
11.03
25.92
36.58
43.51
47.47
49.15
49.16
48.04
46.28
44.30
42.34
40.40
38.35
36.07
33.62
31.23
29.22
27.89
27.34
27.43
27.78
27.91
27.30
25.62
22.81
19.13
15.06
10.97
6.94
2.74
-1.98
-7.50
-13.72
-20.23
-26.57
-32.36
-37.64
-42.76
-48.27
-54.75
-62.66
-72.17
-82.99
-94.07
-103.57
-109.10
-108.42
-100.21
-84.64
-63.51
-39.66
-16.14
4.61
21.22
33.40
41.64
46.76
49.65
51.06
51.56
51.53
51.18
50.65
50.00
49.28
48.47
47.46
46.11
44.35
42.29
40.28
38.74
37.94
37.78
37.74
37.03
34.94
31.16
25.95
20.03
14.24
9.19
4.97
1.17
-2.97
-8.07
-14.44
-21.82
-29.65
-37.28
-44.20
-50.26
-55.67
-60.84
-66.38
-72.95
-81.07
-90.83
-101.56
-111.54
-118.31
-119.28
-112.62
-98.12
-77.38
-53.32
-29.25
-7.77
9.74
23.17
33.16
40.55
45.99
49.93
52.67
54.57
55.96
57.03
57.72
57.79
56.97
55.18
52.58
49.56
46.65
44.34
42.96
42.62
43.15
44.09
44.73
44.39
42.62
39.43
35.25
30.71
26.30
22.12
17.81
12.79
6.60
-0.84
-9.15
-17.64
-25.62
-32.63
-38.59
-43.82
-48.87
-54.47
-61.36
-70.03
-80.47
-91.82
-102.19
-109.06
-109.87
-102.97
-88.29
-67.46
-43.31
-18.96
3.06
21.30
35.34
45.43
52.12
56.03
57.77
58.01
57.39
56.38
55.15
53.56
51.39
48.52
45.10
41.58
38.43
36.02
34.42
33.43
32.73
32.04
31.16
29.95
28.34
26.12
23.15
19.32
14.69
9.37
3.49
-2.94
-9.89
-17.27
-24.86
-32.37
-39.62
-46.78
-54.46
-63.43
-74.18
-86.38
-98.62
-108.54
-113.49
-111.29
-101.05
-83.45
-60.61
-35.45
-10.95
10.61
27.92
40.67
49.27
54.51
57.25
58.32
58.39
57.99
57.41
56.70
55.70
54.17
51.96
49.17
46.14
43.39
41.39
40.31
40.02
39.97
39.54
38.23
35.86
32.62
28.88
24.98
21.04
16.87
12.04
6.15
-0.97
-9.16
-17.96
-26.83
-35.29
-43.08
-50.25
-57.15
-64.38
-72.69
-82.66
-94.42
-107.19
-119.23
-127.99
-130.78
-125.61
-111.90
-90.81
-64.99
-37.75
-12.23
9.43
26.29
38.57
47.09
52.92
56.98
59.96
62.41
64.62
66.74
68.67
70.08
70.52
69.62
67.33
64.04
60.44
57.30
55.09
53.85
53.17
52.39
50.91
48.38
44.83
40.57
35.99
31.34
26.62
21.56
15.78
9.02
1.21
-7.44
-16.52
-25.61
-34.37
-42.66
-50.55
-58.40
-66.78
-76.33
-87.37
-99.35
-110.62
-118.59
-120.38
-113.97
-98.99
-77.06
-51.31
-25.33
-2.11
16.63
30.54
40.22
46.67
50.81
53.35
54.76
55.44
55.69
55.70
55.50
54.94
53.82
51.97
49.43
46.47
43.53
41.03
39.30
38.41
38.22
38.34
38.29
37.49
35.48
32.00
27.11
21.15
14.65
8.08
1.71
-4.45
-10.58
-16.92
-23.69
-31.10
-39.36
-48.75
-59.35
-70.82
-82.07
-91.30
-96.39
-95.52
-87.85
-73.89
-55.38
-34.71
-14.23
4.29
19.90
32.38
41.92
48.91
53.80
56.99
58.84
59.61
59.38
58.16
55.95
52.91
49.42
46.10
43.51
42.00
41.50
41.62
41.75
41.38
40.23
38.34
35.86
32.93
29.54
25.50
20.57
14.62
7.70
0.08
-7.90
-15.91
-23.67
-31.06
-38.11
-45.07
-52.39
-60.68
-70.46
-81.74
-93.75
-104.74
-112.33
-114.18
-108.80
-96.10
-77.51
-55.43
-32.58
-11.26
7.12
21.96
33.31
41.59
47.35
51.29
54.13
56.55
58.98
61.45
63.64
64.99
65.06
63.75
61.40
58.64
56.11
54.22
53.02
52.23
51.46
50.37
48.72
46.41
43.42
39.76
35.45
30.48
24.83
18.48
11.41
3.67
-4.57
-12.99
-21.26
-29.07
-36.33
-43.16
-49.94
-57.21
-65.54
-75.29
-86.34
-97.76
-107.82
-114.20
-114.65
-107.75
-93.49
-73.36
-50.02
-26.43
-5.10
12.49
25.92
35.59
42.29
46.92
50.27
53.02
55.68
58.51
61.43
64.01
65.59
65.61
63.89
60.82
57.20
53.96
51.73
50.59
50.09
49.48
48.08
45.53
41.97
37.79
33.43
29.14
24.83
20.20
14.84
8.51
1.23
-6.64
-14.59
-22.05
-28.68
-34.41
-39.49
-44.47
-50.06
-56.98
-65.55
-75.38
-85.22
-93.01
-96.44
-93.70
-84.14
-68.56
-48.98
-28.06
-8.27
8.64
21.88
31.46
37.89
41.85
44.06
45.10
45.44
45.41
45.13
44.58
43.69
42.36
40.62
38.64
36.70
35.02
33.73
32.80
32.03
31.19
30.11
28.73
27.03
24.92
22.21
18.66
14.05
8.33
1.73
-5.38
-12.55
-19.44
-25.88
-31.90
-37.72
-43.76
-50.56
-58.68
-68.27
-78.78
-88.70
-95.81
-97.82
-93.15
-81.64
-64.64
-44.56
-24.04
-5.18
10.80
23.48
32.98
39.60
43.72
45.86
46.69
46.89
47.03
47.33
47.66
47.68
47.05
45.66
43.68
41.51
39.57
38.19
37.46
37.21
37.05
36.51
35.19
32.95
29.83
26.06
21.90
17.49
12.87
7.96
2.69
-3.03
-9.20
-15.76
-22.57
-29.41
-36.01
-42.17
-47.93
-53.64
-59.99
-67.68
-77.04
-87.60
-97.85
-105.56
-108.29
-104.30
-93.07
-75.66
-54.36
-32.02
-11.22
6.30
19.86
29.66
36.38
40.81
43.65
45.42
46.56
47.41
48.18
48.95
49.58
49.74
49.11
47.53
45.15
42.43
39.95
38.28
37.61
37.75
38.15
38.10
37.06
34.78
31.42
27.38
23.11
18.86
14.58
9.97
4.70
-1.37
-8.10
-15.03
-21.74
-27.87
-33.34
-38.30
-43.04
-47.92
-53.40
-59.98
-68.05
-77.59
-87.76
-96.81
-102.31
-101.91
-94.23
-79.46
-59.46
-37.10
-15.43
3.26
17.81
28.17
34.97
39.12
41.46
42.68
43.24
43.51
43.64
43.58
43.16
42.13
40.39
38.06
35.53
33.34
31.92
31.42
31.61
32.01
32.03
31.25
29.58
27.22
24.53
21.77
18.91
15.65
11.60
6.51
0.45
-6.18
-12.82
-19.01
-24.54
-29.53
-34.36
-39.48
-45.37
-52.38
-60.60
-69.68
-78.63
-85.78
-89.10
-86.80
-78.01
-63.21
-44.24
-23.74
-4.30
12.23
25.04
34.23
40.34
44.03
45.83
46.23
45.75
44.86
43.97
43.15
42.24
40.87
38.85
36.25
33.51
31.22
29.85
29.55
30.00
30.58
30.60
29.57
27.35
24.14
20.31
16.20
11.89
7.24
2.01
-3.93
-10.51
-17.45
-24.36
-30.92
-36.95
-42.52
-47.89
-53.49
-59.85
-67.42
-76.31
-85.94
-94.91
-101.07
-102.15
-96.53
-83.94
-65.70
-44.32
-22.66
-3.00
13.43
26.41
36.32
43.58
48.53
51.40
52.55
52.55
52.03
51.44
50.96
50.50
49.78
48.62
46.92
44.76
42.38
40.13
38.36
37.38
37.22
37.58
37.88
37.46
35.85
33.02
29.30
25.20
21.09
17.02
12.72
7.81
2.01
-4.63
-11.75
-18.86
-25.55
-31.59
-36.99
-41.94
-46.76
-51.80
-57.47
-64.29
-72.62
-82.39
-92.74
-101.85
-107.25
-106.49
-98.15
-82.39
-61.07
-37.22
-14.05
5.94
21.52
32.66
40.07
44.71
47.42
48.82
49.41
49.64
49.86
50.24
50.67
50.84
50.35
48.96
46.70
43.93
41.16
38.91
37.54
37.09
37.28
37.58
37.38
36.21
33.91
30.67
26.91
23.05
19.20
15.14
10.38
4.48
-2.64
-10.57
-18.54
-25.78
-31.87
-36.95
-41.64
-46.78
-53.17
-61.22
-70.78
-80.97
-90.22
-96.43
-97.53
-92.00
-79.50
-61.10
-39.03
-16.17
4.80
22.05
34.83
43.37
48.55
51.33
52.50
52.53
51.62
49.87
47.43
44.46
41.22
37.90
34.63
31.57
28.95
27.04
26.06
26.00
26.50
26.99
26.83
25.60
23.23
20.01
16.18
11.97
7.34
2.14
-3.74
-10.20
-17.03
-23.88
-30.44
-36.56
-42.25
-47.70
-53.27
-59.46
-66.77
-75.37
-84.78
-93.59
-99.62
-100.49
-94.46
-81.16
-61.85
-39.07
-15.87
5.15
22.38
35.31
44.26
49.92
53.01
54.16
53.94
52.90
51.58
50.41
49.57
48.98
48.29
47.09
45.12
42.45
39.48
36.85
35.17
34.73
35.27
36.07
36.20
34.94
32.05
27.82
22.87
17.81
12.86
7.87
2.44
-3.81
-10.96
-18.76
-26.69
-34.23
-40.99
-46.91
-52.19
-57.35
-63.11
-70.23
-79.29
-90.17
-101.80
-112.09
-118.32
-117.97
-109.65
-93.60
-71.70
-46.88
-22.08
0.39
19.32
34.34
45.61
53.44
58.24
60.61
61.35
61.37
61.43
61.89
62.62
63.16
62.96
61.61
59.07
55.66
52.02
48.88
46.83
46.11
46.54
47.48
48.14
47.82
46.10
42.95
38.66
33.69
28.50
23.44
18.61
13.82
8.62
2.52
-4.79
-13.20
-22.14
-30.81
-38.52
-45.08
-50.78
-56.30
-62.37
-69.52
-78.02
-87.80
-98.32
-108.44
-116.29
-119.58
-116.21
-105.06
-86.61
-62.95
-37.17
-12.35
9.24
26.53
39.54
48.81
54.99
58.63
60.18
60.19
59.30
58.10
56.87
55.55
53.77
51.19
47.85
44.17
40.91
38.73
37.95
38.32
39.17
39.72
39.36
37.87
35.34
32.10
28.43
24.45
20.11
15.29
9.80
3.60
-3.23
-10.50
-17.93
-25.27
-32.29
-38.90
-45.28
-51.87
-59.36
-68.39
-79.12
-90.77
-101.43
-108.46
-109.17
-101.87
-86.53
-64.86
-39.80
-14.57
8.16
26.81
40.88
50.62
56.67
59.80
60.78
60.39
59.28
57.91
56.49
54.93
52.96
50.34
47.01
43.27
39.67
36.89
35.46
35.45
36.43
37.55
37.87
36.71
33.88
29.70
24.81
19.79
14.91
10.08
4.90
-1.01
-7.90
-15.61
-23.76
-31.80
-39.25
-45.93
-52.03
-58.05
-64.73
-72.82
-82.76
-94.39
-106.65
-117.58
-124.64
-125.34
-118.05
-102.66
-80.67
-54.82
-28.31
-3.90
16.66
32.71
44.40
52.31
57.08
59.45
60.23
60.24
60.18
60.39
60.73
60.70
59.75
57.58
54.40
50.83
47.64
45.43
44.35
44.06
43.88
43.09
41.12
37.87
33.65
29.04
24.62
20.60
16.73
12.34
6.78
-0.34
-8.80
-17.94
-26.90
-35.06
-42.25
-48.84
-55.50
-62.97
-71.80
-82.15
-93.57
-104.93
-114.35
-119.57
-118.45
-109.77
-93.72
-72.05
-47.59
-23.42
-1.96
15.48
28.74
38.39
45.16
49.65
52.26
53.28
53.06
52.01
50.56
48.90
47.07
44.92
42.39
39.59
36.82
34.44
32.73
31.73
31.28
31.03
30.60
29.59
27.67
24.53
19.98
14.02
6.81
-1.27
-9.72
-18.07
-25.97
-33.33
-40.39
-47.70
-55.99
-65.86
-77.29
-89.35
-100.07
-106.91
-107.53
-100.65
-86.53
-66.97
-44.67
-22.35
-2.09
14.97
28.54
38.80
46.19
51.18
54.28
56.02
56.89
57.19
57.07
56.58
55.74
54.64
53.46
52.31
51.20
50.05
48.74
47.26
45.74
44.31
43.01
41.56
39.47
36.14
31.20
24.62
16.76
8.20
-0.59
-9.30
-17.82
-26.08
-34.02
-41.63
-49.11
-57.01
-66.13
-77.04
-89.54
-102.29
-112.95
-118.84
-117.88
-109.32
-93.97
-73.80
-51.30
-28.75
-7.83
10.44
25.58
37.58
46.77
53.83
59.55
64.63
69.38
73.59
76.69
78.08
77.48
75.14
71.84
68.55
66.08
64.85
64.77
65.37
65.97
65.94
64.84
62.48
58.94
54.47
49.39
43.94
38.17
31.89
24.78
16.62
7.46
-2.25
-11.86
-20.72
-28.56
-35.58
-42.39
-49.78
-58.43
-68.65
-80.24
-92.33
-103.37
-111.35
-114.15
-110.21
-99.02
-81.53
-59.84
-36.67
-14.56
4.69
20.31
32.37
41.47
48.34
53.71
58.13
62.00
65.43
68.30
70.23
70.79
69.77
67.33
64.08
60.84
58.39
57.12
56.98
57.49
57.96
57.72
56.37
53.78
50.18
45.88
41.20
36.24
30.86
24.78
17.83
10.09
2.00
-5.89
-13.06
-19.35
-24.98
-30.48
-36.47
-43.54
-52.08
-62.11
-73.10
-83.80
-92.35
-96.63
-94.93
-86.56
-72.21
-53.75
-33.61
-14.11
3.17
17.46
28.67
37.09
43.15
47.27
49.88
51.38
52.08
52.18
51.73
50.75
49.27
47.42
45.44
43.66
42.42
41.89
42.06
42.62
43.08
42.89
41.64
39.22
35.80
31.79
27.49
23.01
18.17
12.69
6.34
-0.83
-8.49
-16.15
-23.38
-29.98
-36.06
-41.94
-48.11
-55.10
-63.29
-72.72
-82.82
-92.28
-99.15
-101.35
-97.34
-86.76
-70.67
-51.24
-31.11
-12.55
3.04
15.27
24.54
31.54
37.03
41.58
45.55
49.11
52.20
54.62
56.11
56.50
55.77
54.12
51.95
49.70
47.75
46.38
45.66
45.53
45.78
46.12
46.13
45.36
43.43
40.08
35.43
29.85
23.96
18.33
13.23
8.55
3.83
-1.46
-7.63
-14.58
-21.89
-29.02
-35.58
-41.48
-46.85
-51.99
-57.24
-62.95
-69.52
-77.24
-86.03
-95.16
-103.15
-107.95
-107.61
-100.92
-87.97
-70.15
-49.69
-28.95
-9.84
6.46
19.53
29.38
36.35
40.96
43.86
45.74
47.17
48.54
49.98
51.42
52.71
53.63
53.97
53.52
52.21
50.12
47.59
45.15
43.25
42.06
41.34
40.53
39.04
36.54
32.99
28.69
24.01
19.25
14.49
9.69
4.73
-0.49
-5.99
-11.73
-17.56
-23.31
-28.79
-33.81
-38.25
-42.16
-45.80
-49.64
-54.28
-60.17
-67.36
-75.18
-82.19
-86.48
-86.22
-80.26
-68.64
-52.64
-34.38
-16.18
0.05
13.22
23.04
29.79
34.04
36.36
37.24
37.13
36.42
35.46
34.49
33.60
32.73
31.71
30.45
28.95
27.44
26.24
25.70
25.92
26.72
27.62
27.97
27.28
25.35
22.37
18.77
14.99
11.28
7.54
3.43
-1.38
-7.06
-13.47
-20.26
-26.93
-33.07
-38.40
-42.89
-46.74
-50.35
-54.31
-59.28
-65.64
-73.25
-81.13
-87.56
-90.49
-88.16
-79.83
-66.04
-48.52
-29.65
-11.74
3.52
15.35
23.83
29.54
33.21
35.52
37.01
38.02
38.79
39.44
40.02
40.48
40.70
40.50
39.75
38.40
36.61
34.69
33.03
31.96
31.59
31.79
32.18
32.29
31.68
30.09
27.47
23.97
19.86
15.49
11.17
7.07
3.24
-0.49
-4.42
-8.82
-13.87
-19.48
-25.38
-31.15
-36.43
-41.00
-44.89
-48.33
-51.79
-55.88
-61.20
-68.23
-76.89
-86.32
-94.80
-100.08
-100.02
-93.31
-79.98
-61.46
-40.20
-18.95
-0.04
15.07
25.91
32.80
36.59
38.31
38.93
39.16
39.39
39.71
39.94
39.91
39.44
38.52
37.22
35.65
33.96
32.33
30.95
30.07
29.87
30.32
31.14
31.80
31.70
30.36
27.68
23.91
19.62
15.40
11.60
8.23
4.96
1.33
-2.96
-7.96
-13.44
-19.03
-24.44
-29.50
-34.22
-38.68
-43.03
-47.54
-52.57
-58.55
-65.75
-73.96
-82.14
-88.49
-90.85
-87.40
-77.38
-61.54
-41.91
-21.22
-2.04
13.87
25.77
33.85
38.72
41.16
41.84
41.35
40.26
39.04
38.02
37.17
36.25
34.86
32.80
30.18
27.44
25.17
23.82
23.52
24.05
24.95
25.65
25.70
24.79
22.86
19.99
16.36
12.20
7.65
2.80
-2.44
-8.16
-14.41
-21.12
-28.01
-34.73
-40.97
-46.66
-51.98
-57.48
-63.80
-71.48
-80.54
-90.23
-98.99
-104.69
-105.23
-99.17
-86.28
-67.73
-45.74
-23.04
-2.14
15.25
28.36
37.30
42.80
45.85
47.39
48.17
48.64
49.06
49.47
49.82
49.91
49.49
48.28
46.14
43.23
40.06
37.37
35.85
35.76
36.76
37.98
38.34
37.06
33.94
29.41
24.25
19.21
14.64
10.43
6.07
1.03
-5.03
-12.03
-19.60
-27.24
-34.56
-41.40
-47.88
-54.31
-61.10
-68.75
-77.66
-88.01
-99.34
-110.32
-118.86
-122.47
-119.13
-108.01
-89.94
-67.08
-42.32
-18.38
2.79
20.16
33.57
43.33
50.01
54.28
56.91
58.62
59.99
61.30
62.52
63.43
63.68
63.04
61.39
58.87
55.85
52.88
50.57
49.35
49.21
49.71
50.02
49.34
47.20
43.66
39.22
34.52
29.95
25.50
20.77
15.23
8.55
0.75
-7.77
-16.40
-24.58
-32.00
-38.63
-44.82
-51.13
-58.25
-66.77
-76.96
-88.52
-100.28
-110.30
-116.15
-115.56
-107.15
-91.01
-68.81
-43.34
-17.69
5.48
24.59
39.13
49.41
56.12
60.01
61.75
61.90
61.02
59.55
57.77
55.74
53.43
50.79
47.90
45.05
42.53
40.64
39.47
38.93
38.82
38.86
38.77
38.29
37.14
34.99
31.59
26.75
20.47
12.90
4.42
-4.47
-13.21
-21.34
-28.70
-35.47
-42.24
-49.85
-59.10
-70.41
-83.35
-96.48
-107.38
-113.28
-111.80
-101.84
-84.04
-60.65
-34.86
-9.84
12.02
29.52
42.48
51.41
57.07
60.25
61.66
61.93
61.54
60.79
59.73
58.28
56.31
53.80
50.83
47.62
44.44
41.58
39.24
37.53
36.39
35.59
34.79
33.57
31.62
28.70
24.72
19.66
13.58
6.59
-1.07
-9.13
-17.28
-25.28
-33.06
-40.74
-48.55
-56.82
-65.88
-76.01
-87.26
-99.13
-110.34
-118.86
-122.34
-118.84
-107.67
-89.74
-67.44
-43.75
-21.33
-1.84
14.21
27.08
37.30
45.26
51.21
55.38
58.18
60.12
61.65
62.93
63.83
64.06
63.37
61.82
59.76
57.63
55.78
54.27
52.91
51.31
49.18
46.43
43.17
39.60
35.76
31.52
26.51
20.39
13.00
4.52
-4.58
-13.72
-22.41
-30.48
-38.07
-45.59
-53.68
-62.93
-73.69
-85.73
-97.95
-108.39
-114.56
-114.14
-105.83
-89.96
-68.47
-44.37
-20.81
-0.18
16.39
28.89
38.06
44.85
50.03
54.12
57.36
59.89
61.70
62.74
62.93
62.22
60.66
58.44
55.85
53.22
50.79
48.71
47.01
45.66
44.56
43.48
42.07
39.91
36.61
31.96
26.04
19.14
11.63
3.87
-3.95
-11.81
-19.79
-28.06
-36.84
-46.44
-57.04
-68.50
-79.95
-89.82
-95.97
-96.39
-89.89
-76.69
-58.38
-37.49
-16.61
2.22
17.97
30.44
39.99
47.14
52.33
55.89
58.09
59.16
59.35
58.87
57.89
56.54
54.89
53.03
51.10
49.24
47.61
46.32
45.32
44.47
43.42
41.84
39.39
35.85
31.11
25.22
18.31
10.63
2.48
-5.78
-13.86
-21.59
-28.94
-36.07
-43.30
-51.09
-59.95
-70.18
-81.53
-92.88
-102.25
-107.27
-105.97
-97.59
-82.88
-63.92
-43.35
-23.49
-5.85
8.98
21.05
30.73
38.41
44.52
49.54
53.88
57.83
61.39
64.32
66.22
66.80
65.94
63.85
61.00
57.98
55.45
53.83
53.24
53.35
53.55
53.08
51.37
48.21
43.76
38.45
32.74
26.88
20.91
14.66
7.90
0.56
-7.21
-15.07
-22.66
-29.74
-36.39
-42.89
-49.73
-57.40
-66.28
-76.35
-87.07
-97.17
-104.79
-107.84
-104.72
-94.86
-79.12
-59.55
-38.79
-19.21
-2.36
11.17
21.57
29.44
35.44
40.18
44.15
47.72
51.07
54.16
56.76
58.51
59.11
58.46
56.73
54.38
51.98
50.10
49.06
48.82
49.00
48.93
47.96
45.66
41.99
37.28
32.04
26.77
21.68
16.70
11.51
5.81
-0.57
-7.51
-14.64
-21.51
-27.78
-33.37
-38.51
-43.76
-49.74
-57.00
-65.62
-74.99
-83.71
-89.79
-91.22
-86.65
-75.91
-60.18
-41.66
-22.80
-5.67
8.53
19.48
27.51
33.19
37.08
39.64
41.21
42.09
42.47
42.45
41.99
41.02
39.50
37.61
35.69
34.18
33.48
33.72
34.71
35.96
36.84
36.72
35.28
32.48
28.54
23.87
18.80
13.55
8.17
2.60
-3.26
-9.42
-15.80
-22.21
-28.42
-34.26
-39.61
-44.63
-49.63
-55.23
-61.99
-70.15
-79.21
-87.76
-93.71
-94.87
-89.77
-78.26
-61.69
-42.42
-23.10
-5.88
8.03
18.42
25.75
30.73
34.04
36.27
37.82
39.07
40.27
41.59
42.99
44.26
45.03
44.93
43.76
41.67
39.12
36.81
35.38
35.13
35.84
36.86
37.30
36.42
33.92
29.97
25.08
19.86
14.70
9.75
4.89
-0.08
-5.31
-10.86
-16.66
-22.57
-28.38
-33.84
-38.73
-42.97
-46.83
-50.91
-56.04
-62.95
-71.77
-81.68
-90.93
-97.21
-98.36
-93.11
-81.58
-65.20
-46.28
-27.27
-10.11
4.06
14.96
22.86
28.30
31.90
34.25
35.91
37.41
39.10
41.11
43.27
45.22
46.50
46.78
46.00
44.38
42.36
40.38
38.81
37.75
37.08
36.50
35.61
34.17
32.04
29.31
26.15
22.79
19.40
15.98
12.50
8.80
4.72
0.13
-5.04
-10.73
-16.75
-22.80
-28.49
-33.46
-37.56
-40.91
-43.98
-47.49
-52.26
-58.87
-67.31
-76.75
-85.47
-91.22
-91.83
-85.96
-73.65
-56.33
-36.40
-16.51
1.20
15.50
26.05
33.15
37.37
39.35
39.67
38.97
37.87
36.91
36.43
36.40
36.46
36.11
34.91
32.78
30.04
27.34
25.38
24.65
25.12
26.33
27.51
27.91
27.05
24.89
21.79
18.24
14.61
10.92
6.88
2.02
-3.95
-10.88
-18.18
-25.08
-30.99
-35.77
-39.81
-43.78
-48.45
-54.44
-61.99
-70.87
-80.20
-88.46
-93.60
-93.63
-87.25
-74.47
-56.79
-36.74
-17.10
-0.02
13.44
23.28
30.13
34.76
37.76
39.52
40.35
40.64
40.73
40.91
41.23
41.49
41.34
40.53
38.98
36.91
34.71
32.80
31.47
30.76
30.52
30.36
29.78
28.34
25.75
22.01
17.40
12.41
7.51
2.98
-1.14
-5.13
-9.34
-14.09
-19.47
-25.37
-31.46
-37.42
-42.98
-48.08
-52.89
-57.81
-63.45
-70.46
-79.19
-89.28
-99.44
-107.48
-110.83
-107.42
-96.45
-78.83
-56.92
-33.77
-12.15
6.07
20.23
30.59
37.80
42.61
45.66
47.49
48.59
49.43
50.30
51.27
52.11
52.41
51.80
50.10
47.49
44.45
41.67
39.74
39.01
39.34
40.19
40.76
40.24
38.16
34.56
29.92
24.96
20.28
16.12
12.27
8.24
3.52
-2.25
-9.02
-16.48
-24.19
-31.72
-38.85
-45.60
-52.20
-59.00
-66.37
-74.65
-83.87
-93.61
-102.68
-109.24
-111.16
-106.65
-95.06
-77.19
-55.25
-32.12
-10.54
7.62
21.63
31.68
38.44
42.67
45.03
46.05
46.24
45.99
45.57
45.01
44.22
43.02
41.33
39.24
37.04
35.15
33.91
33.51
33.82
34.46
34.83
34.38
32.81
30.10
26.50
22.33
17.78
12.73
6.89
0.06
-7.72
-16.04
-24.31
-31.99
-38.87
-45.18
-51.52
-58.70
-67.41
-77.90
-89.58
-100.92
-109.61
-113.14
-109.61
-98.41
-80.55
-58.33
-34.67
-12.22
7.23
22.95
34.97
43.79
50.02
54.21
56.87
58.46
59.40
59.93
60.17
60.02
59.26
57.72
55.45
52.81
50.36
48.73
48.22
48.69
49.52
49.88
49.00
46.54
42.68
37.98
33.08
28.38
23.88
19.19
13.70
6.94
-1.24
-10.56
-20.39
-29.98
-38.76
-46.56
-53.64
-60.67
-68.54
-78.01
-89.37
-101.99
-114.25
-123.66
-127.44
-123.42
-110.83
-90.58
-65.12
-37.62
-11.14
12.06
30.76
44.75
54.45
60.69
64.49
66.89
68.79
70.71
72.74
74.56
75.66
75.57
74.12
71.50
68.15
64.66
61.55
59.15
57.58
56.70
56.14
55.40
53.98
51.49
47.83
43.12
37.66
31.75
25.56
19.00
11.91
4.14
-4.27
-13.00
-21.57
-29.55
-36.72
-43.30
-49.90
-57.45
-66.81
-78.32
-91.26
-103.76
-113.05
-116.24
-111.34
-97.92
-77.38
-52.44
-26.32
-1.86
19.01
35.36
47.09
54.69
59.01
61.06
61.85
62.11
62.18
61.97
61.25
59.88
57.90
55.61
53.36
51.41
49.85
48.60
47.56
46.61
45.67
44.64
43.35
41.57
39.04
35.52
30.82
24.89
17.79
9.78
1.21
-7.46
-15.82
-23.64
-30.90
-37.78
-44.64
-52.00
-60.43
-70.33
-81.58
-93.19
-103.18
-108.98
-108.17
-99.35
-82.84
-60.67
-35.98
-12.02
8.75
25.09
36.95
44.99
50.16
53.30
55.06
55.92
56.22
56.22
56.00
55.57
54.78
53.49
51.61
49.31
46.92
44.93
43.70
43.31
43.45
43.49
42.79
40.91
37.79
33.73
29.11
24.21
19.05
13.40
6.97
-0.42
-8.62
-17.29
-25.87
-33.90
-41.06
-47.36
-53.17
-59.17
-66.26
-75.18
-86.05
-98.00
-109.05
-116.54
-117.92
-111.61
-97.66
-77.62
-54.10
-29.92
-7.46
11.76
27.01
38.24
45.84
50.59
53.42
55.28
56.90
58.61
60.35
61.78
62.55
62.43
61.39
59.59
57.24
54.65
52.17
50.12
48.69
47.83
47.18
46.16
44.21
41.02
36.72
31.78
26.73
21.86
17.10
12.07
6.35
-0.23
-7.55
-15.19
-22.72
-29.84
-36.45
-42.69
-48.84
-55.35
-62.71
-71.30
-81.14
-91.55
-100.99
-107.29
-108.18
-102.12
-88.84
-69.65
-47.04
-23.96
-3.00
14.13
26.88
35.60
41.17
44.60
46.75
48.17
49.16
49.82
50.17
50.17
49.80
49.00
47.73
46.00
43.94
41.84
40.06
38.83
38.13
37.64
36.91
35.55
33.47
30.82
27.84
24.67
21.14
16.92
11.67
5.31
-1.90
-9.43
-16.71
-23.41
-29.53
-35.37
-41.37
-48.07
-55.80
-64.63
-74.04
-82.88
-89.43
-91.76
-88.32
-78.50
-62.96
-43.47
-22.53
-2.57
14.48
27.64
36.81
42.51
45.58
46.86
46.99
46.40
45.35
44.03
42.57
41.12
39.68
38.18
36.51
34.70
32.94
31.62
31.02
31.16
31.66
31.90
31.22
29.25
25.99
21.77
16.95
11.82
6.46
0.86
-4.98
-10.99
-17.04
-22.99
-28.78
-34.48
-40.25
-46.31
-52.89
-60.25
-68.57
-77.68
-86.91
-94.94
-99.92
-100.03
-94.03
-81.79
-64.43
-44.07
-23.23
-4.08
11.94
24.29
33.19
39.18
42.99
45.29
46.68
47.62
48.39
49.11
49.68
49.90
49.52
48.38
46.51
44.12
41.60
39.38
37.82
37.09
37.06
37.35
37.38
36.62
34.71
31.62
27.66
23.23
18.69
14.13
9.41
4.27
-1.51
-7.91
-14.69
-21.47
-27.88
-33.71
-38.95
-43.85
-48.87
-54.59
-61.55
-69.92
-79.29
-88.51
-95.75
-99.00
-96.62
-87.87
-73.25
-54.36
-33.47
-12.95
5.28
19.99
30.75
37.78
41.73
43.45
43.86
43.74
43.66
43.82
44.12
44.18
43.64
42.27
40.18
37.73
35.42
33.71
32.85
32.77
33.12
33.40
33.08
31.79
29.44
26.23
22.54
18.71
14.92
11.08
6.92
2.16
-3.28
-9.27
-15.51
-21.65
-27.40
-32.66
-37.48
-42.16
-47.19
-53.12
-60.32
-68.57
-76.77
-83.00
-84.98
-80.89
-70.09
-53.52
-33.48
-12.83
5.83
20.89
31.87
39.17
43.59
45.88
46.62
46.19
44.92
43.11
41.05
38.91
36.73
34.38
31.81
29.10
26.58
24.69
23.80
23.97
24.84
25.71
25.83
24.69
22.16
18.47
14.04
9.28
4.43
-0.46
-5.47
-10.68
-16.15
-21.84
-27.69
-33.59
-39.41
-45.11
-50.73
-56.54
-62.95
-70.29
-78.46
-86.58
-92.98
-95.50
-92.24
-82.24
-66.10
-45.87
-24.41
-4.50
11.95
24.26
32.81
38.42
41.96
44.00
44.88
44.89
44.35
43.61
42.92
42.24
41.29
39.74
37.45
34.59
31.63
29.20
27.73
27.35
27.75
28.38
28.60
27.96
26.23
23.48
19.88
15.65
10.90
5.70
0.05
-6.05
-12.55
-19.30
-26.04
-32.46
-38.27
-43.33
-47.84
-52.29
-57.39
-63.79
-71.82
-81.19
-90.88
-99.19
-104.08
-103.63
-96.60
-82.93
-63.83
-41.55
-18.83
1.85
18.81
31.42
39.92
45.02
47.64
48.61
48.68
48.44
48.35
48.56
48.93
49.06
48.49
46.93
44.44
41.41
38.45
36.10
34.65
33.96
33.60
33.00
31.74
29.70
27.05
24.08
20.95
17.56
13.58
8.68
2.78
-3.89
-10.83
-17.54
-23.74
-29.48
-34.96
-40.45
-46.26
-52.71
-60.19
-68.99
-78.78
-88.36
-95.65
-98.15
-93.90
-82.32
-64.54
-43.06
-20.90
-0.67
16.01
28.64
37.49
43.19
46.35
47.49
47.05
45.44
43.17
40.67
38.31
36.24
34.48
32.91
31.44
30.06
28.79
27.69
26.77
25.99
25.22
24.35
23.20
21.57
19.16
15.65
10.80
4.64
-2.50
-10.07
-17.45
-24.24
-30.39
-36.18
-42.19
-49.06
-57.38
-67.38
-78.68
-90.23
-100.24
-106.51
-107.00
-100.47
-86.92
-67.69
-45.12
-21.90
-0.45
17.55
31.26
40.69
46.41
49.44
50.85
51.55
52.14
52.74
53.20
53.19
52.50
51.10
49.20
47.07
44.99
43.14
41.55
40.15
38.77
37.20
35.24
32.77
29.71
26.11
21.97
17.25
11.87
5.73
-1.15
-8.58
-16.25
-23.79
-30.92
-37.58
-44.03
-50.74
-58.39
-67.57
-78.51
-90.72
-102.81
-112.57
-117.50
-115.51
-105.69
-88.72
-66.71
-42.57
-19.12
1.60
18.67
32.14
42.55
50.53
56.54
60.89
63.85
65.74
66.97
67.82
68.39
68.52
67.99
66.68
64.86
63.03
61.74
61.23
61.18
60.79
59.14
55.67
50.46
44.24
38.06
32.74
28.44
24.62
20.31
14.62
7.22
-1.58
-10.99
-20.19
-28.65
-36.38
-43.77
-51.41
-59.85
-69.43
-80.06
-91.03
-100.91
-107.64
-108.96
-103.17
-89.79
-69.96
-46.21
-21.65
0.96
19.87
34.53
45.26
52.78
57.82
60.96
62.73
63.60
64.01
64.17
64.03
63.32
61.76
59.27
56.11
52.78
49.80
47.52
45.95
44.91
44.11
43.23
42.04
40.27
37.67
33.93
28.84
22.38
14.81
6.60
-1.70
-9.60
-16.89
-23.64
-30.23
-37.18
-45.10
-54.43
-65.22
-76.83
-87.78
-95.91
-98.88
-94.92
-83.51
-65.72
-43.86
-20.85
0.63
18.86
33.14
43.67
51.11
56.15
59.40
61.31
62.22
62.33
61.74
60.49
58.60
56.23
53.65
51.20
49.17
47.71
46.75
46.04
45.23
43.96
41.96
39.10
35.40
30.93
25.82
20.13
13.88
7.12
-0.07
-7.48
-14.81
-21.83
-28.45
-34.77
-41.11
-47.86
-55.44
-64.18
-74.18
-85.08
-95.82
-104.67
-109.41
-108.01
-99.35
-83.74
-63.04
-40.05
-17.63
2.05
18.00
30.19
39.18
45.64
50.11
53.03
54.85
56.03
57.03
58.08
59.15
59.92
59.97
59.05
57.20
54.75
52.24
50.21
48.93
48.36
48.07
47.40
45.73
42.70
38.39
33.29
28.04
23.14
18.66
14.33
9.61
4.07
-2.40
-9.54
-16.93
-24.20
-31.23
-38.15
-45.21
-52.69
-60.75
-69.46
-78.64
-87.74
-95.70
-100.92
-101.66
-96.57
-85.28
-68.69
-48.82
-28.21
-9.20
6.60
18.56
26.89
32.35
35.89
38.44
40.64
42.84
45.06
47.04
48.41
48.80
48.04
46.20
43.59
40.68
37.91
35.66
34.07
33.15
32.66
32.34
31.88
31.04
29.65
27.60
24.82
21.22
16.75
11.44
5.41
-1.08
-7.73
-14.18
-20.14
-25.46
-30.16
-34.45
-38.78
-43.73
-49.92
-57.58
-66.33
-74.93
-81.46
-83.83
-80.50
-71.05
-56.37
-38.40
-19.53
-1.88
13.04
24.53
32.53
37.35
39.52
39.63
38.41
36.60
34.84
33.53
32.75
32.34
31.94
31.26
30.19
28.79
27.22
25.71
24.40
23.39
22.66
22.10
21.51
20.58
19.02
16.54
13.05
8.60
3.37
-2.36
-8.43
-14.67
-21.01
-27.32
-33.41
-39.11
-44.39
-49.50
-54.90
-61.16
-68.47
-76.33
-83.39
-87.68
-87.23
-80.83
-68.51
-51.65
-32.56
-13.69
2.98
16.42
26.42
33.35
37.82
40.44
41.68
41.96
41.66
41.08
40.40
39.61
38.57
37.07
35.04
32.64
30.26
28.41
27.47
27.52
28.23
28.98
29.08
28.00
25.58
22.03
17.82
13.44
9.23
5.32
1.58
-2.31
-6.60
-11.50
-16.96
-22.70
-28.37
-33.60
-38.27
-42.47
-46.64
-51.35
-57.24
-64.68
-73.51
-82.75
-90.67
-95.06
-93.92
-86.20
-72.25
-53.76
-33.29
-13.41
3.89
17.60
27.47
33.88
37.42
38.83
38.92
38.55
38.42
38.94
40.04
41.23
41.85
41.34
39.58
36.89
33.96
31.52
30.06
29.69
30.09
30.71
30.94
30.32
28.66
26.06
22.84
19.42
16.21
13.35
10.71
7.88
4.32
-0.37
-6.25
-12.99
-19.94
-26.43
-32.08
-36.90
-41.33
-46.06
-51.76
-58.79
-66.98
-75.55
-83.01
-87.50
-87.20
-80.89
-68.49
-51.17
-31.15
-11.07
6.77
20.98
31.22
37.96
42.03
44.19
44.97
44.75
43.80
42.42
40.79
38.97
36.85
34.33
31.44
28.55
26.16
24.77
24.55
25.19
25.99
26.18
25.29
23.20
20.20
16.71
13.06
9.37
5.51
1.24
-3.63
-9.14
-15.22
-21.58
-27.88
-33.82
-39.15
-43.90
-48.40
-53.29
-59.30
-67.01
-76.40
-86.59
-95.82
-101.75
-102.15
-95.63
-82.18
-63.25
-41.33
-19.17
0.89
17.41
29.91
38.65
44.24
47.41
48.89
49.30
49.17
48.85
48.42
47.77
46.66
44.94
42.65
40.11
37.79
36.21
35.64
36.05
37.01
37.80
37.64
35.95
32.55
27.70
22.09
16.53
11.66
7.78
4.70
1.86
-1.51
-6.08
-12.18
-19.68
-28.00
-36.36
-44.02
-50.62
-56.28
-61.58
-67.38
-74.53
-83.47
-93.91
-104.59
-113.43
-117.94
-115.97
-106.50
-89.98
-68.37
-44.44
-21.05
-0.36
16.49
29.30
38.51
44.75
48.67
50.91
52.08
52.87
53.83
55.28
57.13
58.92
59.93
59.56
57.63
54.46
50.86
47.75
45.79
45.17
45.51
46.15
46.33
45.48
43.30
39.82
35.31
30.16
24.75
19.29
13.80
8.02
1.65
-5.49
-13.27
-21.28
-28.99
-35.99
-42.23
-48.08
-54.23
-61.42
-70.19
-80.59
-91.93
-102.78
-111.03
-114.42
-111.13
-100.42
-82.98
-60.75
-36.38
-12.56
8.63
26.00
39.12
48.17
53.66
56.31
57.01
56.69
56.16
55.85
55.75
55.46
54.45
52.44
49.58
46.44
43.77
42.11
41.54
41.67
41.84
41.48
40.30
38.30
35.69
32.58
28.96
24.64
19.38
13.07
5.76
-2.31
-10.79
-19.25
-27.39
-35.03
-42.28
-49.52
-57.33
-66.28
-76.65
-88.11
-99.46
-108.75
-113.57
-111.72
-101.99
-84.61
-61.43
-35.35
-9.58
13.21
31.48
44.95
54.13
59.95
63.28
64.77
64.92
64.19
63.04
61.85
60.80
59.78
58.49
56.64
54.17
51.45
49.09
47.73
47.66
48.54
49.52
49.54
47.84
44.24
39.21
33.54
27.99
22.88
17.99
12.76
6.55
-0.96
-9.72
-19.21
-28.78
-37.82
-45.96
-53.19
-59.91
-66.79
-74.73
-84.48
-96.21
-109.13
-121.24
-129.60
-131.19
-123.96
-107.70
-84.27
-57.01
-29.62
-5.04
15.13
30.58
41.84
49.71
55.00
58.47
60.77
62.48
63.95
65.23
66.16
66.44
65.89
64.53
62.48
60.02
57.45
55.10
53.29
52.21
51.78
51.58
50.99
49.39
46.45
42.29
37.37
32.28
27.39
22.72
17.95
12.63
6.42
-0.74
-8.62
-16.77
-24.75
-32.16
-38.83
-44.87
-50.70
-57.00
-64.55
-73.91
-84.93
-96.44
-106.36
-112.12
-111.54
-103.51
-88.43
-68.02
-44.79
-21.31
0.30
18.67
33.15
43.69
50.70
54.93
57.29
58.64
59.63
60.50
61.15
61.25
60.54
58.88
56.44
53.55
50.61
48.00
45.94
44.45
43.43
42.70
42.05
41.23
39.97
38.03
35.14
31.13
25.97
19.77
12.78
5.31
-2.26
-9.57
-16.35
-22.49
-28.12
-33.65
-39.74
-47.14
-56.43
-67.57
-79.65
-90.82
-98.63
-100.68
-95.36
-82.49
-63.43
-40.81
-17.64
3.38
20.61
33.54
42.59
48.56
52.29
54.41
55.33
55.42
55.01
54.39
53.68
52.76
51.40
49.44
47.04
44.62
42.81
42.04
42.34
43.29
44.13
44.13
42.79
40.03
36.11
31.53
26.67
21.78
16.81
11.55
5.69
-0.99
-8.50
-16.61
-24.93
-32.95
-40.29
-46.88
-53.01
-59.39
-66.89
-76.11
-86.87
-97.92
-107.00
-111.51
-109.33
-99.63
-83.28
-62.50
-40.12
-18.73
-0.00
15.39
27.50
36.69
43.37
47.91
50.76
52.54
53.95
55.50
57.36
59.23
60.56
60.83
59.77
57.54
54.64
51.71
49.34
47.88
47.36
47.49
47.71
47.30
45.73
42.74
38.55
33.68
28.75
24.10
19.70
15.18
10.06
4.05
-2.81
-10.19
-17.61
-24.62
-31.01
-36.77
-42.11
-47.41
-53.19
-60.04
-68.44
-78.47
-89.42
-99.59
-106.56
-107.80
-101.62
-87.90
-68.31
-45.78
-23.51
-4.04
11.39
22.74
30.67
36.03
39.47
41.47
42.45
42.93
43.36
44.00
44.76
45.25
44.97
43.70
41.55
39.03
36.82
35.49
35.24
35.86
36.76
37.29
36.95
35.58
33.37
30.68
27.84
24.90
21.62
17.60
12.53
6.38
-0.52
-7.59
-14.27
-20.21
-25.45
-30.33
-35.41
-41.25
-48.29
-56.65
-65.92
-75.06
-82.46
-86.19
-84.58
-76.77
-63.13
-45.22
-25.39
-6.12
10.65
23.82
33.12
38.91
41.88
42.78
42.35
41.19
39.76
38.30
36.83
35.24
33.42
31.35
29.15
27.11
25.58
24.78
24.74
25.25
25.87
26.13
25.60
24.03
21.40
17.84
13.60
8.89
3.84
-1.50
-7.12
-12.98
-18.97
-24.93
-30.66
-36.01
-40.91
-45.45
-49.93
-54.86
-60.87
-68.45
-77.53
-87.16
-95.44
-99.97
-98.58
-90.18
-75.27
-55.79
-34.55
-14.28
3.06
16.59
26.35
32.94
37.06
39.37
40.43
40.77
40.80
40.87
41.10
41.40
41.50
41.06
39.87
38.00
35.76
33.64
32.06
31.23
31.02
30.96
30.49
29.10
26.59
23.04
18.88
14.58
10.54
6.86
3.35
-0.41
-4.89
-10.34
-16.71
-23.60
-30.44
-36.77
-42.41
-47.53
-52.53
-57.99
-64.47
-72.32
-81.46
-91.06
-99.48
-104.48
-103.87
-96.30
-81.94
-62.57
-41.05
-20.42
-2.92
10.48
19.99
26.58
31.30
34.98
38.11
40.86
43.36
45.60
47.46
48.73
49.14
48.46
46.72
44.23
41.57
39.34
37.99
37.52
37.56
37.46
36.57
34.55
31.52
27.93
24.36
21.16
18.24
15.13
11.20
5.98
-0.58
-8.08
-15.85
-23.23
-29.78
-35.44
-40.45
-45.39
-50.91
-57.60
-65.59
-74.29
-82.23
-87.30
-87.39
-81.16
-68.58
-51.04
-30.93
-10.82
7.14
21.68
32.35
39.31
43.07
44.35
43.97
42.80
41.56
40.68
40.20
39.86
39.29
38.24
36.70
34.92
33.28
32.08
31.47
31.35
31.43
31.36
30.85
29.74
27.96
25.50
22.27
18.17
13.09
7.07
0.34
-6.67
-13.53
-19.93
-25.76
-31.16
-36.42
-41.94
-48.23
-55.79
-65.00
-75.75
-87.05
-96.97
-102.98
-102.67
-94.71
-79.50
-59.07
-36.48
-14.79
3.83
18.45
29.15
36.60
41.49
44.44
46.00
46.76
47.31
48.15
49.44
50.90
52.01
52.25
51.38
49.64
47.54
45.72
44.63
44.39
44.77
45.31
45.41
44.55
42.42
38.94
34.32
29.03
23.60
18.43
13.62
8.90
3.82
-1.95
-8.45
-15.33
-22.05
-28.21
-33.69
-38.76
-43.95
-49.90
-57.16
-66.06
-76.37
-87.17
-96.75
-102.85
-103.31
-96.74
-83.21
-64.29
-42.59
-20.96
-1.63
14.20
26.31
35.20
41.54
46.02
49.20
51.52
53.42
55.15
56.84
58.38
59.54
60.03
59.65
58.36
56.33
53.90
51.50
49.57
48.36
47.85
47.68
47.31
46.07
43.56
39.64
34.61
28.97
23.29
17.95
13.05
8.37
3.53
-1.81
-7.74
-14.02
-20.21
-25.84
-30.66
-34.84
-38.91
-43.53
-49.37
-56.80
-65.79
-75.73
-85.32
-92.67
-95.61
-92.36
-82.16
-65.77
-45.33
-23.74
-3.72
12.86
25.36
34.07
39.74
43.12
44.77
45.14
44.67
43.86
43.12
42.67
42.38
41.90
40.86
39.11
36.85
34.56
32.78
31.89
31.93
32.55
33.16
33.17
32.16
29.98
26.76
22.80
18.43
13.85
9.15
4.27
-0.91
-6.41
-12.15
-17.88
-23.23
-27.91
-31.82
-35.25
-38.84
-43.50
-49.97
-58.46
-68.18
-77.29
-83.34
-83.99
-77.91
-65.26
-47.71
-27.83
-8.19
9.27
23.53
34.36
41.93
46.54
48.52
48.34
46.70
44.42
42.23
40.58
39.57
38.92
38.25
37.25
35.82
34.12
32.47
31.19
30.55
30.54
30.92
31.21
30.86
29.42
26.70
22.87
18.33
13.56
8.96
4.60
0.28
-4.31
-9.40
-14.99
-20.81
-26.47
-31.68
-36.38
-40.80
-45.31
-50.32
-56.18
-63.09
-71.04
-79.62
-87.92
-94.42
-97.26
-94.72
-85.87
-70.96
-51.56
-30.12
-9.28
8.81
22.88
32.64
38.58
41.62
42.79
43.04
43.05
43.18
43.48
43.77
43.80
43.39
42.49
41.16
39.55
37.84
36.18
34.74
33.67
33.05
32.82
32.76
32.50
31.64
29.88
27.13
23.52
19.36
14.96
10.61
6.44
2.38
-1.71
-6.07
-10.93
-16.34
-22.16
-28.16
-33.98
-39.35
-44.12
-48.30
-52.11
-55.98
-60.46
-66.17
-73.50
-82.26
-91.33
-98.68
-101.85
-98.69
-88.26
-71.28
-49.96
-27.34
-6.29
11.23
24.46
33.64
39.56
43.05
44.76
45.15
44.61
43.55
42.39
41.43
40.82
40.42
39.89
38.94
37.46
35.63
33.81
32.43
31.75
31.77
32.19
32.58
32.44
31.45
29.41
26.33
22.43
18.10
13.79
9.84
6.36
3.08
-0.47
-4.82
-10.19
-16.36
-22.81
-28.85
-33.98
-38.07
-41.37
-44.43
-47.92
-52.53
-58.80
-66.87
-76.15
-85.13
-91.52
-92.87
-87.43
-74.89
-56.62
-35.22
-13.64
5.69
21.39
33.09
41.03
45.71
47.63
47.33
45.49
42.89
40.25
38.04
36.29
34.82
33.26
31.43
29.41
27.48
26.05
25.36
25.46
26.14
26.95
27.38
26.93
25.32
22.59
19.05
15.17
11.33
7.60
3.69
-0.89
-6.57
-13.37
-20.94
-28.58
-35.59
-41.51
-46.37
-50.57
-54.89
-60.16
-67.09
-75.98
-86.31
-96.71
-104.96
-108.63
-105.74
-95.56
-78.85
-57.69
-34.87
-13.03
5.87
20.84
31.76
39.06
43.44
45.67
46.51
46.62
46.47
46.31
46.14
45.78
45.00
43.59
41.49
38.88
36.14
33.82
32.40
32.16
32.95
34.23
35.23
35.20
33.71
30.80
26.86
22.43
17.89
13.37
8.67
3.51
-2.36
-9.01
-16.35
-24.11
-31.95
-39.52
-46.56
-53.00
-58.99
-65.01
-71.73
-79.88
-89.83
-101.19
-112.55
-121.63
-125.76
-122.75
-111.63
-93.08
-69.32
-43.40
-18.38
3.42
20.73
33.37
41.90
47.25
50.50
52.59
54.23
55.89
57.77
59.78
61.72
63.25
64.02
63.78
62.52
60.52
58.27
56.33
55.10
54.65
54.67
54.58
53.78
51.84
48.64
44.39
39.45
34.26
29.09
24.00
18.82
13.27
7.09
0.12
-7.54
-15.70
-24.07
-32.40
-40.49
-48.28
-55.84
-63.47
-71.68
-81.09
-92.03
-104.16
-116.15
-125.71
-130.18
-127.32
-116.18
-97.50
-73.50
-47.24
-21.68
1.04
19.84
34.55
45.58
53.50
58.89
62.27
64.20
65.18
65.67
65.87
65.76
65.16
63.86
61.85
59.47
57.26
55.76
55.29
55.73
56.56
57.10
56.72
55.12
52.39
48.83
44.83
40.62
36.16
31.23
25.50
18.75
11.03
2.63
-5.98
-14.31
-22.00
-28.97
-35.47
-42.10
-49.68
-58.98
-70.29
-82.91
-94.97
-103.68
-106.17
-100.42
-86.19
-65.11
-40.23
-15.01
7.65
25.94
39.25
47.90
52.76
54.99
55.79
56.19
56.84
57.87
58.93
59.46
58.98
57.31
54.70
51.66
48.84
46.78
45.77
45.81
46.56
47.42
47.71
46.88
44.64
41.08
36.55
31.44
25.98
20.15
13.72
6.48
-1.62
-10.32
-19.12
-27.48
-35.02
-41.73
-48.02
-54.60
-62.31
-71.79
-83.13
-95.63
-107.62
-116.71
-120.30
-116.35
-104.21
-84.82
-60.58
-34.61
-9.84
11.62
28.82
41.72
50.88
57.07
61.11
63.76
65.69
67.39
69.08
70.67
71.81
72.06
71.12
69.00
66.04
62.85
60.05
58.10
57.16
56.96
56.97
56.53
55.09
52.32
48.22
43.07
37.32
31.41
25.64
20.00
14.23
7.95
0.90
-6.90
-15.13
-23.22
-30.66
-37.24
-43.07
-48.63
-54.56
-61.57
-70.25
-80.82
-92.87
-105.08
-115.29
-120.80
-119.21
-109.31
-91.56
-68.16
-42.36
-17.42
4.19
21.31
33.93
42.78
48.86
53.14
56.38
59.12
61.64
63.99
65.93
67.12
67.23
66.05
63.72
60.59
57.18
54.05
51.67
50.34
50.12
50.73
51.61
51.96
51.00
48.26
43.78
38.07
31.92
26.00
20.67
15.77
10.86
5.41
-0.84
-7.78
-15.00
-21.93
-28.17
-33.57
-38.35
-42.95
-47.97
-53.96
-61.36
-70.32
-80.51
-90.92
-99.79
-104.88
-104.01
-95.88
-80.69
-60.23
-37.37
-15.16
4.10
19.24
30.21
37.58
42.08
44.41
45.20
45.08
44.65
44.33
44.21
44.05
43.44
42.10
40.02
37.50
35.06
33.16
32.10
31.90
32.28
32.76
32.82
32.08
30.39
27.94
25.02
21.89
18.50
14.57
9.72
3.74
-3.21
-10.64
-17.91
-24.48
-30.16
-35.10
-39.78
-44.82
-50.87
-58.33
-67.24
-76.87
-85.73
-91.73
-92.63
-86.95
-74.48
-56.56
-35.75
-15.01
3.20
17.49
27.67
34.35
38.41
40.56
41.31
41.03
40.14
39.17
38.52
38.33
38.38
38.15
37.15
35.20
32.58
29.93
27.98
27.16
27.49
28.45
29.27
29.16
27.66
24.70
20.66
16.14
11.70
7.62
3.83
-0.06
-4.50
-9.80
-15.97
-22.67
-29.44
-35.82
-41.56
-46.66
-51.41
-56.26
-61.78
-68.52
-76.76
-86.19
-95.62
-103.01
-105.98
-102.52
-91.87
-74.91
-53.94
-31.94
-11.67
5.08
17.64
26.28
31.76
34.99
36.79
37.85
38.68
39.63
40.80
42.05
43.08
43.59
43.32
42.23
40.49
38.50
36.70
35.47
34.99
35.16
35.60
35.80
35.27
33.68
30.97
27.28
22.93
18.31
13.77
9.56
5.72
2.06
-1.78
-6.17
-11.32
-17.20
-23.52
-29.80
-35.63
-40.79
-45.40
-49.81
-54.63
-60.52
-67.96
-77.07
-87.23
-96.97
-104.15
-106.45
-102.12
-90.74
-73.40
-52.49
-30.92
-11.17
5.20
17.75
26.82
33.10
37.25
39.82
41.31
42.18
42.82
43.49
44.21
44.80
45.00
44.58
43.46
41.75
39.73
37.78
36.31
35.64
35.84
36.73
37.78
38.32
37.77
35.86
32.67
28.61
24.17
19.75
15.50
11.34
7.01
2.24
-3.11
-9.00
-15.19
-21.34
-27.11
-32.30
-36.92
-41.23
-45.57
-50.34
-55.95
-62.72
-70.68
-79.33
-87.40
-92.98
-93.94
-88.64
-76.68
-59.19
-38.54
-17.58
1.25
16.50
27.80
35.54
40.41
43.05
44.03
43.80
42.86
41.67
40.56
39.61
38.72
37.71
36.47
35.10
33.87
33.07
32.84
33.12
33.64
34.01
33.87
32.98
31.29
28.92
26.08
22.92
19.48
15.61
11.08
5.68
-0.56
-7.42
-14.41
-21.05
-26.99
-32.23
-37.07
-42.10
-47.99
-55.34
-64.32
-74.48
-84.55
-92.57
-96.31
-93.98
-84.87
-69.63
-50.18
-29.17
-9.22
7.76
20.87
30.19
36.46
40.62
43.45
45.43
46.73
47.41
47.54
47.22
46.60
45.73
44.57
43.03
41.15
39.17
37.56
36.80
37.15
38.44
40.08
41.23
41.13
39.34
35.86
31.09
25.64
20.12
14.93
10.13
5.44
0.37
-5.51
-12.37
-20.01
-27.91
-35.42
-42.03
-47.62
-52.53
-57.53
-63.52
-71.30
-81.09
-92.22
-103.07
-111.20
-113.93
-109.16
-96.09
-75.60
-50.11
-22.93
2.64
24.09
40.16
50.83
56.95
59.78
60.58
60.37
59.86
59.51
59.52
59.86
60.29
60.41
59.81
58.24
55.77
52.79
49.93
47.75
46.62
46.49
46.96
47.41
47.23
45.94
43.33
39.52
34.87
29.88
25.02
20.50
16.26
11.92
7.02
1.20
-5.63
-13.20
-21.04
-28.58
-35.44
-41.50
-46.94
-52.17
-57.80
-64.46
-72.66
-82.44
-93.10
-103.08
-110.14
-111.95
-106.87
-94.57
-76.25
-54.26
-31.40
-10.17
7.77
21.69
31.65
38.20
42.16
44.47
45.98
47.36
48.86
50.41
51.67
52.23
51.86
50.47
48.27
45.57
42.83
40.56
39.20
38.95
39.64
40.66
41.26
40.71
38.69
35.38
31.34
27.24
23.41
19.82
16.04
11.54
6.04
-0.35
-7.18
-13.92
-20.15
-25.80
-31.10
-36.48
-42.44
-49.36
-57.47
-66.62
-76.11
-84.59
-90.18
-90.89
-85.32
-73.23
-55.79
-35.26
-14.34
4.63
20.16
31.71
39.50
44.10
46.19
46.52
45.77
44.59
43.41
42.38
41.34
40.01
38.20
35.95
33.61
31.61
30.39
30.09
30.56
31.36
31.97
31.87
30.79
28.69
25.73
22.13
18.10
13.73
8.98
3.79
-1.90
-8.09
-14.66
-21.42
-28.14
-34.63
-40.81
-46.82
-53.03
-60.00
-68.15
-77.43
-86.92
-94.90
-99.14
-97.61
-89.26
-74.50
-55.16
-33.92
-13.51
4.11
18.08
28.52
36.07
41.36
44.81
46.65
47.17
46.82
46.20
45.84
45.86
45.99
45.69
44.55
42.54
40.09
37.90
36.56
36.29
36.87
37.69
38.08
37.50
35.68
32.68
28.78
24.37
19.82
15.25
10.59
5.56
-0.15
-6.70
-14.01
-21.71
-29.32
-36.39
-42.73
-48.49
-54.08
-60.18
-67.43
-76.20
-86.33
-96.86
-106.01
-111.52
-111.22
-103.86
-89.56
-69.99
-47.81
-25.91
-6.52
9.19
21.13
29.85
36.07
40.38
43.23
45.01
46.10
46.95
47.83
48.81
49.67
50.04
49.58
48.19
46.12
43.83
41.94
40.87
40.75
41.33
42.05
42.21
41.25
38.93
35.43
31.23
26.90
22.84
19.09
15.36
11.16
6.04
-0.20
-7.42
-15.18
-23.01
-30.50
-37.48
-44.01
-50.40
-57.05
-64.44
-72.93
-82.46
-92.37
-101.27
-107.19
-108.12
-102.61
-90.35
-72.45
-51.13
-29.09
-8.79
8.13
21.06
30.24
36.36
40.28
42.70
44.22
45.22
45.95
46.45
46.58
46.11
44.83
42.71
40.05
37.37
35.25
34.07
33.92
34.48
35.27
35.77
35.68
34.87
33.33
31.03
27.87
23.69
18.44
12.22
5.33
-1.91
-9.24
-16.48
-23.50
-30.21
-36.58
-42.78
-49.28
-56.68
-65.44
-75.31
-85.02
-92.42
-95.11
-91.37
-80.81
-64.62
-45.05
-24.66
-5.55
11.04
24.61
35.13
42.75
47.66
50.17
50.77
50.06
48.60
46.83
44.95
43.05
41.16
39.34
37.67
36.33
35.44
35.14
35.42
36.06
36.67
36.69
35.66
33.39
30.03
25.97
21.57
16.95
11.96
6.30
-0.25
-7.63
-15.45
-23.19
-30.37
-36.83
-42.75
-48.65
-55.30
-63.40
-73.31
-84.60
-95.91
-105.04
-109.43
-107.06
-97.17
-80.61
-59.66
-37.26
-16.07
2.13
16.64
27.67
35.81
41.76
46.16
49.54
52.36
54.92
57.23
59.13
60.28
60.34
59.20
57.04
54.28
51.50
49.31
48.10
47.94
48.45
48.91
48.54
46.81
43.62
39.33
34.48
29.46
24.31
18.75
12.38
5.06
-3.02
-11.38
-19.42
-26.76
-33.33
-39.39
-45.45
-52.11
-59.96
-69.40
-80.43
-92.31
-103.49
-111.71
-114.57
-110.36
-98.69
-80.75
-58.97
-36.21
-14.89
3.51
18.53
30.39
39.51
46.31
51.16
54.51
56.92
58.99
61.15
63.40
65.42
66.62
66.51
64.93
62.18
58.91
55.97
54.02
53.29
53.56
54.13
54.14
52.91
50.15
46.03
41.02
35.64
30.16
24.53
18.43
11.54
3.79
-4.59
-13.12
-21.31
-28.84
-35.65
-41.96
-48.20
-54.97
-62.93
-72.55
-83.74
-95.54
-106.02
-112.69
-113.28
-106.54
-92.77
-73.69
-51.86
-29.89
-9.79
7.29
20.95
31.24
38.56
43.53
46.95
49.64
52.19
54.80
57.28
59.17
60.02
59.63
58.12
55.89
53.49
51.39
49.94
49.22
49.04
49.05
48.76
47.72
45.67
42.59
38.68
34.22
29.39
24.20
18.55
12.32
5.48
-1.78
-9.16
-16.31
-23.04
-29.40
-35.72
-42.51
-50.34
-59.56
-70.05
-80.92
-90.51
-96.67
-97.35
-91.29
-78.56
-60.59
-39.80
-18.80
0.21
15.96
28.05
36.72
42.53
46.07
47.90
48.53
48.41
47.89
47.15
46.17
44.82
43.01
40.78
38.38
36.24
34.76
34.18
34.41
35.04
35.49
35.21
33.94
31.71
28.74
25.28
21.41
17.02
11.84
5.67
-1.44
-9.18
-16.99
-24.36
-30.99
-36.90
-42.43
-48.14
-54.62
-62.37
-71.61
-82.03
-92.70
-101.91
-107.54
-107.52
-100.55
-86.65
-67.27
-44.95
-22.57
-2.52
13.78
26.01
34.67
40.68
44.97
48.27
51.01
53.36
55.33
56.79
57.56
57.48
56.40
54.29
51.32
47.90
44.63
42.19
41.04
41.19
42.16
43.07
42.96
41.22
37.74
32.99
27.80
22.88
18.57
14.67
10.62
5.80
-0.12
-7.10
-14.72
-22.44
-29.68
-36.07
-41.49
-46.14
-50.54
-55.52
-62.03
-70.74
-81.59
-93.44
-104.12
-110.96
-111.55
-104.52
-90.08
-69.93
-46.77
-23.53
-2.63
14.49
27.35
36.30
42.08
45.60
47.69
49.10
50.33
51.71
53.22
54.60
55.47
55.47
54.48
52.63
50.32
47.99
46.03
44.67
43.91
43.58
43.39
43.04
42.26
40.84
38.59
35.42
31.31
26.42
21.04
15.52
10.09
4.85
-0.35
-5.76
-11.57
-17.76
-24.06
-30.11
-35.61
-40.49
-44.98
-49.52
-54.60
-60.65
-67.94
-76.47
-85.75
-94.72
-101.70
-104.69
-101.92
-92.49
-76.78
-56.45
-34.00
-12.06
7.28
22.90
34.54
42.57
47.57
50.10
50.69
49.87
48.22
46.34
44.69
43.47
42.58
41.69
40.47
38.77
36.73
34.77
33.44
33.14
33.91
35.36
36.80
37.41
36.53
33.90
29.72
24.56
19.15
14.07
9.58
5.54
1.49
-3.08
-8.49
-14.65
-21.19
-27.57
-33.37
-38.47
-43.09
-47.57
-52.34
-57.72
-64.01
-71.36
-79.55
-87.76
-94.40
-97.30
-94.47
-84.78
-68.68
-48.07
-25.76
-4.49
13.78
28.14
38.60
45.62
49.80
51.70
51.90
51.02
49.60
47.96
46.21
44.22
41.89
39.29
36.73
34.61
33.23
32.62
32.59
32.79
32.96
32.95
32.72
32.22
31.28
29.65
27.08
23.51
19.10
14.21
9.24
4.43
-0.19
-4.83
-9.74
-15.08
-20.86
-26.93
-33.05
-38.98
-44.56
-49.74
-54.57
-59.22
-64.01
-69.43
-76.01
-84.05
-93.25
-102.42
-109.49
-111.98
-107.81
-96.13
-77.73
-54.92
-30.71
-7.95
11.45
26.66
37.79
45.33
49.90
52.11
52.63
52.23
51.62
51.26
51.20
51.16
50.65
49.33
47.18
44.51
41.81
39.64
38.30
37.87
38.11
38.57
38.81
38.45
37.33
35.47
32.98
29.95
26.40
22.34
17.80
12.95
7.99
3.05
-1.87
-6.99
-12.57
-18.78
-25.58
-32.68
-39.61
-45.91
-51.34
-55.92
-60.08
-64.56
-70.26
-77.92
-87.72
-98.90
-109.56
-117.04
-118.54
-112.13
-97.52
-76.26
-51.27
-25.88
-2.83
16.29
31.06
41.80
49.06
53.34
55.17
55.22
54.37
53.50
53.13
53.29
53.57
53.38
52.36
50.53
48.22
45.89
43.90
42.43
41.50
41.04
40.96
41.09
41.17
40.79
39.53
37.12
33.49
28.88
23.69
18.39
13.28
8.48
3.87
-0.91
-6.19
-12.20
-18.95
-26.13
-33.25
-39.83
-45.59
-50.54
-55.07
-59.80
-65.48
-72.79
-81.91
-92.29
-102.41
-109.93
-112.27
-107.43
-94.67
-75.02
-50.90
-25.44
-1.59
18.61
34.19
45.13
51.99
55.58
56.72
56.23
54.81
53.01
51.19
49.43
47.61
45.46
42.80
39.66
36.38
33.56
31.80
31.50
32.57
34.52
36.53
37.78
37.69
36.01
32.83
28.53
23.58
18.46
13.47
8.61
3.58
-2.06
-8.63
-16.16
-24.28
-32.32
-39.67
-45.95
-51.27
-56.19
-61.59
-68.37
-77.17
-87.95
-99.71
-110.48
-117.66
-118.70
-111.97
-97.34
-76.32
-51.52
-25.99
-2.30
17.87
33.80
45.49
53.39
58.06
60.15
60.36
59.40
57.96
56.53
55.34
54.35
53.33
51.99
50.20
48.07
45.93
44.21
43.27
43.28
44.11
45.32
46.30
46.43
45.22
42.46
38.24
32.95
27.14
21.32
15.77
10.49
5.21
-0.42
-6.71
-13.73
-21.36
-29.26
-37.08
-44.57
-51.66
-58.48
-65.33
-72.69
-81.06
-90.81
-101.79
-113.04
-122.71
-128.36
-127.62
-119.06
-102.71
-80.24
-54.40
-28.26
-4.32
15.95
32.05
44.27
53.16
59.31
63.27
65.53
66.60
66.97
67.03
67.01
66.93
66.65
65.94
64.62
62.67
60.26
57.77
55.70
54.47
54.28
54.94
55.89
56.34
55.59
53.25
49.34
44.27
38.55
32.65
26.82
21.08
15.30
9.27
2.83
-4.11
-11.48
-19.09
-26.70
-34.10
-41.19
-48.04
-54.90
-62.17
-70.35
-79.87
-90.90
-102.95
-114.69
-123.96
-128.23
-125.32
-114.23
-95.59
-71.59
-45.31
-19.82
2.62
20.92
35.01
45.44
52.93
58.10
61.43
63.39
64.43
65.00
65.36
65.56
65.36
64.41
62.50
59.69
56.44
53.44
51.37
50.64
51.19
52.46
53.57
53.59
51.95
48.60
44.07
39.13
34.39
30.03
25.68
20.67
14.43
6.83
-1.71
-10.50
-18.89
-26.50
-33.35
-39.66
-45.78
-52.15
-59.28
-67.74
-77.85
-89.26
-100.55
-109.35
-112.90
-108.98
-96.88
-77.70
-54.05
-29.17
-5.96
13.75
29.29
40.89
49.11
54.56
57.69
58.93
58.77
57.81
56.54
55.24
53.88
52.22
50.05
47.44
44.82
42.78
41.85
42.15
43.40
44.94
46.03
46.04
44.64
41.81
37.81
33.05
27.94
22.77
17.57
12.13
6.13
-0.71
-8.44
-16.78
-25.21
-33.18
-40.34
-46.68
-52.59
-58.76
-66.03
-75.06
-85.94
-97.90
-109.15
-117.18
-119.42
-114.03
-100.60
-80.38
-55.94
-30.34
-6.37
14.10
30.24
42.10
50.20
55.27
58.04
59.25
59.60
59.72
60.03
60.68
61.49
62.01
61.75
60.37
57.93
54.91
52.01
49.93
49.01
49.19
49.93
50.49
50.12
48.35
45.07
40.55
35.31
29.93
24.84
20.15
15.63
10.75
4.90
-2.30
-10.85
-20.25
-29.74
-38.47
-45.92
-51.99
-57.06
-61.89
-67.39
-74.39
-83.30
-93.83
-104.71
-113.84
-118.62
-116.76
-107.04
-89.84
-67.09
-41.67
-16.61
5.74
23.99
37.71
47.22
53.22
56.64
58.42
59.41
60.18
60.98
61.75
62.25
62.23
61.53
60.11
58.10
55.71
53.25
51.04
49.35
48.33
47.89
47.76
47.54
46.84
45.41
43.20
40.32
36.93
33.15
29.00
24.47
19.56
14.29
8.72
2.82
-3.50
-10.34
-17.68
-25.30
-32.78
-39.66
-45.65
-50.76
-55.39
-60.23
-66.13
-73.75
-83.30
-94.17
-104.78
-112.72
-115.38
-110.73
-98.18
-78.86
-55.39
-30.99
-8.51
10.25
24.69
35.10
42.12
46.42
48.55
49.12
48.85
48.52
48.61
49.14
49.63
49.28
47.49
44.17
39.92
35.80
32.92
31.97
32.95
35.22
37.67
39.21
39.09
37.12
33.71
29.57
25.40
21.58
18.10
14.59
10.61
5.78
-0.05
-6.75
-14.01
-21.41
-28.53
-35.09
-41.11
-46.93
-53.19
-60.65
-69.79
-80.38
-91.22
-100.20
-104.84
-103.06
-93.92
-78.06
-57.54
-35.19
-13.79
4.69
19.37
30.38
38.35
44.02
47.96
50.56
52.13
52.95
53.28
53.22
52.70
51.48
49.31
46.20
42.48
38.80
35.85
34.16
33.83
34.48
35.35
35.58
34.50
31.87
27.96
23.33
18.67
14.31
10.17
5.79
0.65
-5.52
-12.57
-20.02
-27.28
-33.95
-39.93
-45.46
-50.89
-56.67
-63.33
-71.38
-81.14
-92.32
-103.65
-112.94
-117.47
-114.92
-104.33
-86.52
-63.95
-39.84
-17.17
2.16
17.48
29.07
37.59
43.57
47.44
49.54
50.35
50.51
50.65
51.12
51.85
52.35
52.05
50.54
47.85
44.43
41.04
38.35
36.79
36.37
36.76
37.41
37.75
37.29
35.78
33.21
29.80
25.93
21.92
17.94
13.85
9.25
3.66
-3.21
-11.18
-19.65
-27.73
-34.65
-40.13
-44.53
-48.73
-53.82
-60.74
-70.02
-81.50
-94.27
-106.63
-116.27
-120.79
-118.22
-107.79
-90.21
-67.65
-43.07
-19.40
1.18
17.59
29.74
38.20
43.73
47.11
48.98
49.92
50.46
50.94
51.49
51.98
52.05
51.35
49.70
47.21
44.39
41.88
40.26
39.78
40.25
41.10
41.57
41.02
39.11
35.90
31.79
27.33
23.03
19.09
15.42
11.59
7.05
1.28
-5.96
-14.51
-23.79
-33.02
-41.40
-48.52
-54.45
-59.87
-65.76
-73.06
-82.10
-92.21
-101.59
-107.74
-108.18
-101.32
-87.12
-67.14
-44.11
-21.01
-0.31
16.60
29.36
38.38
44.32
47.84
49.50
49.78
49.15
48.09
46.92
45.75
44.46
42.82
40.70
38.23
35.82
34.04
33.28
33.63
34.67
35.72
36.08
35.26
33.20
30.06
26.14
21.62
16.56
10.90
4.63
-2.15
-9.24
-16.41
-23.45
-30.29
-37.03
-43.84
-51.07
-59.11
-68.35
-78.93
-90.32
-101.14
-109.25
-112.25
-108.22
-96.50
-78.01
-55.06
-30.60
-7.41
12.55
28.34
39.84
47.49
52.01
54.28
55.24
55.79
56.52
57.61
58.74
59.37
58.94
57.24
54.48
51.26
48.31
46.27
45.36
45.39
45.81
45.86
44.91
42.64
39.13
34.78
30.10
25.49
21.04
16.47
11.30
5.11
-2.23
-10.38
-18.72
-26.56
-33.50
-39.57
-45.28
-51.41
-58.78
-68.01
-79.30
-92.19
-105.33
-116.60
-123.43
-123.44
-115.29
-99.19
-76.93
-51.41
-25.71
-2.36
17.17
32.38
43.57
51.34
56.48
59.68
61.61
62.80
63.67
64.41
65.00
65.27
64.96
63.90
62.22
60.27
58.57
57.62
57.58
58.20
58.84
58.71
57.18
54.00
49.40
43.91
38.17
32.69
27.72
23.17
18.75
14.03
8.55
2.06
-5.47
-13.78
-22.42
-30.84
-38.64
-45.69
-52.26
-58.99
-66.71
-76.08
-87.25
-99.42
-110.76
-118.73
-120.78
-115.14
-101.54
-81.35
-57.15
-31.95
-8.35
12.00
28.42
40.92
49.87
55.75
59.13
60.70
61.24
61.47
61.84
62.37
62.75
62.47
61.16
58.78
55.68
52.51
49.92
48.34
47.76
47.76
47.67
46.87
44.96
41.93
38.11
33.93
29.75
25.64
21.38
16.56
10.74
3.72
-4.37
-13.02
-21.48
-29.01
-35.26
-40.36
-44.99
-50.15
-56.84
-65.64
-76.31
-87.66
-97.57
-103.52
-103.25
-95.53
-80.58
-60.07
-36.66
-13.22
7.86
25.16
38.18
47.17
52.75
55.73
56.90
56.94
56.31
55.27
53.81
51.81
49.18
45.97
42.45
39.02
36.14
34.16
33.23
33.21
33.68
34.01
33.55
31.84
28.76
24.64
20.03
15.49
11.27
7.24
2.94
-2.09
-8.09
-14.94
-22.19
-29.27
-35.78
-41.64
-47.14
-52.94
-59.80
-68.36
-78.72
-90.16
-101.02
-108.95
-111.44
-106.69
-94.20
-75.12
-51.87
-27.51
-4.86
14.16
28.74
39.08
45.95
50.31
52.98
54.56
55.42
55.82
55.91
55.75
55.27
54.29
52.59
50.11
47.04
43.89
41.28
39.72
39.31
39.68
40.12
39.85
38.37
35.55
31.63
27.12
22.52
18.17
14.09
10.04
5.57
0.23
-6.20
-13.55
-21.38
-29.05
-36.02
-42.06
-47.36
-52.46
-58.14
-65.20
-74.16
-84.88
-96.29
-106.37
-112.46
-112.09
-103.84
-87.96
-66.37
-42.01
-18.00
3.29
20.55
33.48
42.39
47.90
50.74
51.75
51.77
51.58
51.58
51.73
51.64
50.75
48.78
45.78
42.28
38.97
36.42
34.85
34.10
33.67
33.01
31.74
29.78
27.26
24.40
21.38
18.14
14.55
10.41
5.59
0.11
-5.95
-12.47
-19.26
-26.16
-32.98
-39.55
-45.82
-51.97
-58.36
-65.52
-73.84
-83.17
-92.60
-100.32
-104.01
-101.56
-91.81
-75.18
-53.68
-30.24
-7.89
11.16
25.90
36.37
43.20
47.12
48.73
48.52
46.98
44.67
42.11
39.63
37.33
35.14
32.95
30.75
28.65
26.81
25.34
24.23
23.40
22.73
22.05
21.19
19.94
18.07
15.37
11.75
7.16
1.70
-4.49
-11.24
-18.28
-25.32
-32.13
-38.58
-44.81
-51.20
-58.32
-66.71
-76.54
-87.23
-97.33
-104.63
-106.76
-101.90
-89.55
-70.80
-48.16
-24.77
-3.44
14.04
27.13
36.26
42.29
46.09
48.29
49.33
49.55
49.19
48.40
47.13
45.30
42.89
40.03
37.07
34.43
32.43
31.15
30.52
30.29
30.18
29.94
29.27
27.91
25.59
22.10
17.41
11.56
4.76
-2.73
-10.60
-18.51
-26.16
-33.40
-40.31
-47.19
-54.57
-62.97
-72.71
-83.59
-94.74
-104.48
-110.66
-111.13
-104.46
-90.48
-70.57
-47.25
-23.51
-1.88
16.16
30.25
40.77
48.44
53.86
57.51
59.84
61.36
62.59
63.85
65.06
65.81
65.50
63.81
60.87
57.35
54.17
52.08
51.38
51.74
52.36
52.38
51.13
48.44
44.54
39.92
35.08
30.31
25.61
20.74
15.34
9.09
1.80
-6.43
-15.24
-24.08
-32.42
-39.88
-46.46
-52.60
-59.11
-66.92
-76.69
-88.35
-100.78
-111.82
-118.71
-118.92
-111.01
-95.23
-73.41
-48.47
-23.53
-1.08
17.45
31.72
42.17
49.62
54.95
58.90
61.99
64.53
66.65
68.32
69.42
69.79
69.27
67.76
65.38
62.47
59.61
57.42
56.35
56.47
57.38
58.39
58.70
57.73
55.19
51.18
46.03
40.18
34.09
28.07
22.28
16.64
10.91
4.80
-1.90
-9.18
-16.78
-24.27
-31.22
-37.42
-42.96
-48.31
-54.27
-61.61
-70.81
-81.58
-92.70
-102.06
-107.20
-106.00
-97.42
-81.82
-60.99
-37.57
-14.31
6.59
23.80
36.92
46.20
52.21
55.60
57.00
57.03
56.28
55.24
54.18
53.13
51.85
50.08
47.72
45.04
42.62
41.09
40.82
41.70
43.18
44.44
44.76
43.74
41.35
37.85
33.65
29.08
24.28
19.20
13.63
7.34
0.28
-7.40
-15.35
-23.07
-30.19
-36.57
-42.33
-47.86
-53.72
-60.44
-68.46
-77.85
-88.03
-97.66
-104.66
-106.72
-102.10
-90.29
-72.39
-50.81
-28.45
-7.82
9.57
23.32
33.79
41.57
47.21
51.05
53.41
54.67
55.29
55.65
55.96
56.18
56.06
55.37
54.00
52.07
49.90
47.93
46.54
45.93
45.97
46.31
46.44
45.87
44.22
41.31
37.13
31.85
25.80
19.44
13.26
7.61
2.59
-2.03
-6.76
-12.09
-18.28
-25.18
-32.28
-39.03
-45.06
-50.41
-55.48
-60.95
-67.45
-75.37
-84.60
-94.34
-103.13
-108.97
-109.86
-104.36
-92.10
-74.09
-52.43
-29.78
-8.63
9.26
23.10
32.97
39.55
43.73
46.37
48.18
49.58
50.75
51.69
52.27
52.36
51.85
50.75
49.12
47.13
45.02
43.11
41.69
40.96
40.92
41.36
41.87
41.96
41.24
39.51
36.78
33.22
29.02
24.34
19.32
14.06
8.68
3.31
-2.02
-7.37
-12.88
-18.72
-24.87
-31.15
-37.22
-42.69
-47.37
-51.35
-55.05
-59.13
-64.31
-71.11
-79.54
-88.83
-97.42
-103.12
-103.73
-97.74
-84.90
-66.44
-44.75
-22.66
-2.63
13.80
26.14
34.66
40.04
42.99
44.11
43.91
42.85
41.41
39.96
38.71
37.63
36.53
35.21
33.57
31.78
30.20
29.29
29.37
30.47
32.22
34.01
35.10
34.92
33.19
30.04
25.89
21.35
16.98
13.06
9.57
6.06
2.02
-2.99
-9.05
-15.81
-22.66
-29.00
-34.46
-39.01
-43.05
-47.17
-51.98
-58.01
-65.46
-73.97
-82.39
-88.89
-91.27
-87.67
-77.32
-60.97
-40.78
-19.63
-0.21
15.76
27.73
36.12
41.67
45.08
46.70
46.76
45.51
43.44
41.10
38.98
37.23
35.69
34.04
32.01
29.68
27.39
25.65
24.87
25.17
26.32
27.82
29.05
29.45
28.70
26.70
23.65
19.93
15.89
11.76
7.47
2.77
-2.64
-8.94
-15.95
-23.28
-30.41
-36.97
-42.82
-48.11
-53.21
-58.63
-64.99
-72.82
-82.39
-93.34
-104.38
-113.39
-117.92
-115.88
-106.35
-89.98
-68.80
-45.61
-23.22
-3.69
11.90
23.42
31.40
36.65
40.08
42.50
44.58
46.74
49.11
51.54
53.64
54.94
55.07
53.89
51.63
48.75
45.87
43.50
41.94
41.23
41.18
41.44
41.56
41.06
39.56
36.80
32.80
27.84
22.43
17.05
12.02
7.32
2.64
-2.49
-8.50
-15.48
-23.23
-31.23
-38.91
-45.85
-51.93
-57.35
-62.64
-68.46
-75.55
-84.41
-94.98
-106.34
-116.61
-123.21
-123.61
-116.17
-100.83
-79.23
-54.25
-29.06
-6.31
12.46
26.78
37.01
43.90
48.30
50.99
52.61
53.69
54.57
55.34
55.95
56.22
55.90
54.85
53.02
50.56
47.80
45.19
43.21
42.18
42.14
42.80
43.64
44.04
43.50
41.69
38.54
34.22
29.08
23.62
18.32
13.43
8.89
4.22
-1.20
-7.91
-15.96
-24.87
-33.75
-41.67
-48.10
-53.13
-57.52
-62.36
-68.78
-77.54
-88.57
-100.86
-112.29
-120.09
-121.53
-114.77
-99.55
-77.41
-51.17
-24.15
0.80
21.88
38.41
50.47
58.56
63.19
64.90
64.35
62.36
59.84
57.52
55.77
54.45
53.08
51.15
48.45
45.22
42.12
39.89
39.07
39.68
41.26
42.98
43.95
43.50
41.36
37.68
32.94
27.74
22.56
17.62
12.69
7.31
0.94
-6.66
-15.28
-24.31
-32.92
-40.49
-46.85
-52.44
-58.12
-64.94
-73.73
-84.73
-97.30
-109.78
-119.66
-124.11
-120.81
-108.72
-88.61
-62.88
-34.85
-7.85
15.74
34.71
48.95
58.97
65.48
69.17
70.67
70.64
69.72
68.42
67.00
65.43
63.46
60.80
57.37
53.38
49.37
46.07
44.18
44.07
45.54
47.80
49.69
50.05
48.21
44.18
38.58
32.35
26.28
20.71
15.46
10.06
3.98
-3.06
-11.02
-19.57
-28.28
-36.71
-44.59
-51.83
-58.55
-65.13
-72.16
-80.37
-90.42
-102.37
-115.28
-127.02
-134.51
-134.73
-125.77
-107.65
-82.47
-53.66
-24.84
1.19
22.94
40.04
52.78
61.65
67.16
69.97
70.97
71.14
71.32
71.92
72.81
73.46
73.27
71.84
69.13
65.51
61.61
58.20
55.91
55.06
55.45
56.46
57.17
56.72
54.58
50.74
45.59
39.79
33.92
28.29
22.85
17.25
11.04
3.87
-4.30
-13.20
-22.28
-30.97
-38.92
-46.05
-52.65
-59.20
-66.32
-74.58
-84.44
-95.97
-108.55
-120.66
-129.88
-133.41
-128.93
-115.52
-94.14
-67.47
-39.04
-12.20
10.76
28.91
42.34
51.78
58.04
61.88
63.97
64.96
65.44
65.78
66.04
65.97
65.15
63.24
60.23
56.50
52.75
49.80
48.26
48.34
49.64
51.32
52.32
51.81
49.43
45.41
40.39
35.08
29.89
24.81
19.47
13.38
6.20
-1.99
-10.81
-19.56
-27.64
-34.65
-40.65
-46.08
-51.69
-58.32
-66.64
-76.84
-88.33
-99.58
-108.28
-111.83
-108.12
-96.34
-77.32
-53.43
-27.88
-3.75
16.79
32.79
44.40
52.29
57.28
59.99
60.87
60.34
58.84
56.81
54.58
52.24
49.70
46.83
43.66
40.52
37.99
36.66
36.80
38.12
39.84
40.97
40.69
38.66
35.12
30.70
26.01
21.43
16.94
12.20
6.77
0.37
-7.05
-15.23
-23.74
-32.13
-40.01
-47.21
-53.92
-60.68
-68.31
-77.59
-88.75
-101.06
-112.60
-120.64
-122.40
-116.05
-101.38
-80.03
-54.90
-29.27
-5.85
13.75
29.07
40.42
48.49
54.01
57.61
59.89
61.34
62.34
63.05
63.43
63.28
62.33
60.45
57.71
54.49
51.35
48.91
47.60
47.47
48.19
49.13
49.54
48.80
46.58
42.92
38.13
32.67
26.99
21.33
15.69
9.81
3.33
-3.95
-11.98
-20.37
-28.55
-36.02
-42.60
-48.45
-54.04
-59.99
-66.94
-75.40
-85.50
-96.77
-107.86
-116.61
-120.50
-117.44
-106.49
-88.39
-65.36
-40.44
-16.55
4.23
20.93
33.57
42.70
48.98
52.99
55.20
56.13
56.32
56.33
56.52
56.93
57.16
56.62
54.85
51.81
48.09
44.71
42.71
42.65
44.35
46.85
48.90
49.39
47.80
44.27
39.46
34.19
29.03
24.19
19.42
14.33
8.54
1.91
-5.38
-12.92
-20.26
-27.08
-33.24
-38.84
-44.20
-49.80
-56.23
-64.02
-73.35
-83.66
-93.50
-100.60
-102.48
-97.35
-84.78
-66.04
-43.67
-20.76
0.11
17.33
30.40
39.57
45.46
48.73
50.00
49.92
49.03
47.81
46.52
45.15
43.51
41.44
38.95
36.28
33.84
32.08
31.32
31.58
32.59
33.81
34.55
34.25
32.62
29.77
26.07
21.97
17.72
13.26
8.32
2.59
-4.02
-11.27
-18.71
-25.90
-32.55
-38.67
-44.58
-50.76
-57.76
-66.04
-75.72
-86.28
-96.43
-104.12
-107.02
-103.25
-92.15
-74.59
-52.82
-29.75
-8.06
10.43
24.99
35.76
43.31
48.27
51.19
52.60
53.04
53.04
53.00
53.02
52.85
52.07
50.33
47.59
44.24
41.00
38.61
37.51
37.64
38.45
39.16
39.06
37.67
34.93
31.09
26.67
22.13
17.79
13.68
9.52
4.82
-0.83
-7.60
-15.25
-23.20
-30.82
-37.59
-43.41
-48.59
-53.76
-59.73
-67.21
-76.61
-87.68
-99.22
-109.17
-114.87
-113.92
-105.01
-88.54
-66.50
-42.00
-18.21
2.49
18.89
30.92
39.21
44.69
48.21
50.52
52.21
53.69
55.15
56.50
57.44
57.58
56.65
54.62
51.78
48.64
45.73
43.52
42.22
41.75
41.81
41.92
41.61
40.49
38.35
35.23
31.34
27.02
22.63
18.40
14.31
10.11
5.37
-0.36
-7.26
-15.11
-23.30
-31.07
-37.83
-43.44
-48.25
-53.01
-58.55
-65.58
-74.37
-84.56
-95.00
-103.80
-108.61
-107.27
-98.55
-82.66
-61.39
-37.61
-14.40
5.84
21.85
33.55
41.58
46.78
49.88
51.34
51.58
50.98
49.93
48.70
47.35
45.69
43.46
40.55
37.22
34.09
31.90
31.13
31.79
33.29
34.71
35.17
34.21
31.87
28.62
25.01
21.38
17.73
13.72
8.91
3.06
-3.81
-11.37
-19.08
-26.44
-33.11
-39.06
-44.53
-50.04
-56.21
-63.63
-72.50
-82.32
-91.74
-98.67
-100.78
-96.27
-84.56
-66.63
-44.77
-21.88
-0.61
17.29
31.09
40.90
47.23
50.71
51.93
51.55
50.25
48.70
47.32
46.21
45.12
43.66
41.57
38.94
36.20
34.03
32.94
33.07
34.02
35.04
35.26
34.08
31.40
27.54
23.10
18.57
14.16
9.71
4.82
-0.86
-7.43
-14.68
-22.19
-29.51
-36.38
-42.73
-48.75
-54.77
-61.28
-68.80
-77.75
-88.06
-98.77
-107.90
-112.82
-111.09
-101.36
-84.13
-61.59
-36.97
-13.48
6.63
22.39
33.94
41.97
47.37
50.84
52.98
54.26
55.12
55.82
56.45
56.87
56.83
56.07
54.42
51.95
48.95
45.88
43.27
41.56
40.88
41.00
41.35
41.17
39.78
36.85
32.52
27.35
22.04
17.13
12.76
8.65
4.22
-1.05
-7.40
-14.71
-22.50
-30.23
-37.52
-44.25
-50.66
-57.22
-64.55
-73.27
-83.71
-95.62
-107.88
-118.54
-125.11
-125.27
-117.66
-102.37
-81.05
-56.42
-31.45
-8.62
10.49
25.31
36.06
43.33
47.89
50.51
51.92
52.76
53.51
54.40
55.31
55.97
55.97
55.04
53.19
50.79
48.40
46.60
45.72
45.67
46.02
46.16
45.55
43.95
41.48
38.43
35.10
31.60
27.71
23.04
17.15
9.90
1.48
-7.49
-16.22
-24.03
-30.59
-36.09
-41.17
-46.78
-53.74
-62.57
-73.10
-84.34
-94.48
-101.24
-102.40
-96.54
-83.56
-64.76
-42.55
-19.71
1.31
18.92
32.45
42.03
48.27
51.95
53.88
54.68
54.75
54.23
53.11
51.30
48.82
45.85
42.67
39.68
37.22
35.50
34.63
34.49
34.79
35.11
35.03
34.22
32.49
29.80
26.20
21.73
16.37
10.11
2.96
-4.90
-13.21
-21.53
-29.49
-36.81
-43.50
-49.91
-56.71
-64.68
-74.27
-85.15
-95.90
-104.22
-107.46
-103.52
-91.73
-73.11
-50.15
-25.97
-3.45
15.48
30.06
40.44
47.35
51.62
54.09
55.38
55.91
55.90
55.36
54.20
52.32
49.76
46.63
43.25
40.00
37.35
35.63
34.99
35.29
36.01
36.46
36.01
34.32
31.49
27.91
24.03
20.00
15.64
10.48
4.10
-3.61
-12.33
-21.39
-30.05
-37.88
-44.87
-51.42
-58.22
-65.94
-75.08
-85.64
-96.91
-107.41
-114.96
-117.18
-112.24
-99.52
-80.03
-56.23
-31.29
-8.15
11.22
26.14
36.90
44.30
49.24
52.49
54.74
56.55
58.34
60.19
61.89
62.92
62.80
61.33
58.77
55.72
52.95
51.03
50.18
50.24
50.68
50.84
50.06
47.96
44.45
39.81
34.55
29.13
23.77
18.38
12.62
6.17
-1.10
-8.99
-17.12
-25.04
-32.48
-39.35
-45.78
-52.12
-58.87
-66.59
-75.73
-86.27
-97.38
-107.32
-113.65
-113.99
-106.85
-92.23
-71.70
-47.97
-24.03
-2.28
15.82
29.85
40.04
46.95
51.23
53.58
54.71
55.33
55.90
56.56
57.02
56.80
55.49
53.04
49.85
46.59
43.88
42.09
41.16
40.75
40.39
39.68
38.42
36.56
34.18
31.29
27.88
23.86
19.07
13.38
6.77
-0.57
-8.29
-15.96
-23.18
-29.84
-36.13
-42.55
-49.78
-58.31
-68.19
-78.65
-88.12
-94.44
-95.48
-89.84
-77.36
-59.33
-38.12
-16.48
3.25
19.64
32.30
41.59
48.10
52.40
54.84
55.69
55.21
53.78
51.79
49.53
47.15
44.63
41.95
39.17
36.56
34.50
33.30
33.04
33.41
33.86
33.71
32.50
30.04
26.49
22.11
17.17
11.76
5.87
-0.52
-7.31
-14.24
-20.99
-27.37
-33.37
-39.21
-45.26
-51.90
-59.50
-68.27
-78.12
-88.32
-97.45
-103.43
-104.12
-97.98
-84.84
-66.05
-44.14
-22.03
-2.13
14.22
26.82
36.17
43.01
47.99
51.57
54.06
55.70
56.64
56.92
56.52
55.37
53.52
51.13
48.53
46.09
44.13
42.89
42.43
42.62
43.11
43.36
42.78
40.90
37.55
32.98
27.72
22.38
17.37
12.73
8.14
3.09
-2.79
-9.58
-16.96
-24.36
-31.22
-37.28
-42.66
-47.88
-53.67
-60.68
-69.31
-79.43
-90.20
-100.07
-106.94
-108.66
-103.64
-91.50
-73.28
-51.21
-28.05
-6.33
12.19
26.75
37.39
44.63
49.15
51.68
52.96
53.62
54.18
54.88
55.64
56.17
56.07
55.05
53.03
50.24
47.13
44.24
42.03
40.74
40.40
40.68
41.07
40.93
39.71
37.10
33.16
28.32
23.13
18.10
13.46
9.10
4.67
-0.22
-5.78
-11.95
-18.39
-24.72
-30.57
-35.80
-40.49
-44.93
-49.54
-54.83
-61.27
-69.14
-78.26
-87.76
-96.00
-100.81
-100.10
-92.59
-78.36
-58.96
-36.95
-15.12
4.27
19.94
31.59
39.52
44.36
46.74
47.26
46.52
45.14
43.67
42.45
41.52
40.62
39.35
37.38
34.70
31.74
29.21
27.87
28.09
29.66
31.78
33.46
33.85
32.64
30.09
26.72
23.09
19.46
15.80
11.82
7.27
1.96
-4.11
-10.74
-17.62
-24.37
-30.65
-36.23
-41.09
-45.49
-49.91
-54.98
-61.28
-69.04
-77.86
-86.55
-93.25
-95.75
-92.25
-82.00
-65.70
-45.40
-23.90
-3.85
12.93
25.78
34.93
41.12
45.09
47.34
48.19
47.89
46.83
45.45
44.11
42.93
41.85
40.64
39.15
37.45
35.76
34.40
33.60
33.43
33.72
34.17
34.39
34.02
32.83
30.72
27.75
24.12
20.04
15.75
11.41
7.08
2.76
-1.70
-6.53
-11.96
-18.04
-24.58
-31.22
-37.47
-43.01
-47.79
-52.09
-56.46
-61.53
-67.88
-75.77
-84.99
-94.69
-103.27
-108.66
-108.74
-102.06
-88.40
-68.97
-46.12
-22.68
-1.17
16.69
30.21
39.53
45.31
48.41
49.67
49.86
49.65
49.50
49.61
49.94
50.19
49.93
48.85
46.88
44.25
41.49
39.17
37.75
37.35
37.70
38.27
38.49
37.96
36.60
34.50
31.85
28.75
25.17
21.13
16.72
12.19
7.79
3.58
-0.66
-5.34
-10.82
-17.20
-24.24
-31.44
-38.25
-44.36
-49.66
-54.33
-58.76
-63.51
-69.25
-76.52
-85.47
-95.41
-104.66
-110.85
-111.55
-105.09
-91.22
-71.29
-47.81
-23.76
-1.76
16.48
30.31
39.94
46.12
49.74
51.62
52.37
52.37
51.82
50.81
49.39
47.61
45.50
43.11
40.48
37.77
35.23
33.20
32.04
31.89
32.65
33.93
35.12
35.68
35.20
33.60
30.99
27.62
23.77
19.63
15.25
10.58
5.49
-0.16
-6.45
-13.29
-20.39
-27.30
-33.59
-39.08
-43.89
-48.50
-53.55
-59.67
-67.29
-76.49
-86.76
-96.92
-105.10
-109.02
-106.65
-96.87
-80.06
-58.09
-33.81
-10.15
10.67
27.58
40.43
49.60
55.59
58.75
59.49
58.36
56.07
53.33
50.63
48.13
45.68
43.09
40.28
37.42
34.88
33.05
32.29
32.74
34.24
36.35
38.36
39.47
38.94
36.42
32.07
26.51
20.64
15.22
10.58
6.43
2.15
-3.01
-9.50
-17.29
-25.92
-34.66
-42.87
-50.20
-56.66
-62.61
-68.65
-75.46
-83.68
-93.60
-104.86
-116.16
-125.32
-129.64
-126.76
-115.45
-96.25
-71.33
-43.98
-17.48
5.63
24.08
37.78
47.39
53.83
57.92
60.34
61.62
62.21
62.50
62.66
62.73
62.47
61.59
59.88
57.42
54.59
52.04
50.39
49.99
50.71
51.98
53.00
53.05
51.75
49.09
45.36
40.94
36.15
31.17
26.08
20.92
15.71
10.42
4.91
-1.03
-7.60
-14.92
-22.91
-31.28
-39.65
-47.64
-55.05
-61.96
-68.78
-76.24
-85.09
-95.77
-107.94
-120.14
-129.92
-134.44
-131.31
-119.50
-99.80
-74.59
-47.12
-20.51
2.95
22.17
37.02
48.01
55.88
61.30
64.91
67.26
68.83
70.00
70.93
71.59
71.75
71.16
69.72
67.54
64.99
62.54
60.63
59.50
59.15
59.30
59.56
59.47
58.64
56.79
53.79
49.69
44.73
39.20
33.45
27.71
22.04
16.29
10.19
3.48
-3.96
-12.01
-20.34
-28.51
-36.16
-43.08
-49.38
-55.41
-61.80
-69.29
-78.51
-89.65
-101.99
-113.81
-122.52
-125.40
-120.44
-107.15
-86.76
-61.89
-35.66
-10.85
10.66
28.01
41.11
50.29
56.16
59.44
61.00
61.65
62.00
62.24
62.15
61.30
59.30
56.09
52.08
48.00
44.69
42.84
42.69
43.99
46.02
47.85
48.58
47.62
44.92
40.88
36.19
31.48
27.00
22.59
17.71
11.80
4.55
-3.91
-13.00
-21.99
-30.25
-37.49
-43.87
-49.90
-56.32
-63.86
-73.00
-83.56
-94.43
-103.63
-108.60
-107.06
-97.81
-81.27
-59.47
-35.37
-11.94
8.63
25.29
37.92
46.95
52.89
56.22
57.42
57.10
55.95
54.57
53.24
51.88
50.14
47.67
44.47
41.01
38.11
36.64
37.10
39.41
42.80
46.13
48.21
48.22
45.97
41.84
36.61
31.06
25.67
20.48
15.10
9.03
1.91
-6.22
-14.98
-23.83
-32.29
-40.17
-47.57
-54.85
-62.49
-71.02
-80.81
-91.76
-103.06
-112.99
-119.17
-119.19
-111.45
-95.86
-74.02
-48.84
-23.56
-0.87
17.65
31.69
41.71
48.55
53.04
55.87
57.60
58.71
59.56
60.35
61.03
61.35
60.95
59.60
57.35
54.58
51.91
50.02
49.33
49.84
51.06
52.15
52.26
50.80
47.62
43.08
37.82
32.53
27.69
23.39
19.30
14.85
9.40
2.50
-5.84
-15.13
-24.54
-33.20
-40.54
-46.54
-51.73
-56.95
-63.14
-70.93
-80.50
-91.35
-102.23
-111.22
-116.10
-114.92
-106.68
-91.78
-71.95
-49.77
-27.81
-8.01
8.67
22.08
32.54
40.52
46.46
50.80
53.95
56.35
58.33
60.01
61.28
61.89
61.56
60.10
57.66
54.57
51.40
48.75
47.06
46.45
46.67
47.20
47.37
46.61
44.60
41.31
36.98
32.07
27.06
22.27
17.77
13.29
8.43
2.80
-3.74
-10.94
-18.27
-25.13
-31.12
-36.21
-40.77
-45.46
-51.03
-58.08
-66.77
-76.66
-86.50
-94.42
-98.26
-96.25
-87.58
-72.78
-53.66
-32.72
-12.50
5.11
19.12
29.46
36.66
41.43
44.46
46.29
47.26
47.60
47.46
46.90
45.90
44.42
42.45
40.12
37.73
35.68
34.38
33.99
34.43
35.33
36.15
36.37
35.62
33.75
30.81
27.03
22.68
18.02
13.22
8.30
3.16
-2.35
-8.33
-14.72
-21.32
-27.78
-33.85
-39.41
-44.67
-50.13
-56.47
-64.26
-73.54
-83.51
-92.47
-98.17
-98.51
-92.27
-79.55
-61.87
-41.56
-21.12
-2.58
12.85
24.79
33.40
39.19
42.81
44.99
46.39
47.48
48.49
49.35
49.86
49.77
48.98
47.51
45.58
43.46
41.48
39.91
39.01
38.88
39.44
40.38
41.20
41.29
40.10
37.34
33.06
27.74
22.08
16.77
12.21
8.33
4.62
0.41
-4.80
-11.07
-18.01
-24.97
-31.38
-36.94
-41.81
-46.40
-51.23
-56.81
-63.58
-71.76
-81.16
-90.96
-99.54
-104.73
-104.39
-97.19
-83.19
-64.01
-42.28
-20.82
-1.89
13.37
24.78
32.88
38.42
42.11
44.56
46.26
47.64
48.98
50.33
51.49
52.12
51.88
50.67
48.67
46.37
44.31
42.94
42.42
42.60
43.12
43.56
43.66
43.20
42.07
40.11
37.20
33.26
28.37
22.85
17.16
11.85
7.22
3.31
-0.19
-3.82
-8.10
-13.33
-19.43
-26.03
-32.61
-38.70
-44.12
-48.97
-53.60
-58.45
-63.97
-70.47
-78.03
-86.22
-93.98
-99.65
-101.27
-97.19
-86.65
-70.21
-49.66
-27.54
-6.45
11.64
25.66
35.51
41.70
45.07
46.44
46.55
45.95
45.06
44.10
43.15
42.16
40.96
39.37
37.35
35.06
32.84
31.16
30.37
30.63
31.73
33.15
34.20
34.20
32.79
29.98
26.16
21.93
17.77
13.90
10.20
6.34
1.99
-3.05
-8.68
-14.70
-20.78
-26.61
-31.97
-36.70
-40.89
-44.82
-49.03
-54.17
-60.78
-68.82
-77.47
-85.00
-89.21
-88.04
-80.30
-66.23
-47.49
-26.70
-6.61
10.60
23.80
32.92
38.61
41.75
43.15
43.41
42.88
41.80
40.34
38.59
36.64
34.53
32.30
30.08
28.04
26.40
25.39
25.13
25.58
26.57
27.79
28.83
29.29
28.81
27.18
24.40
20.70
16.48
12.13
7.93
3.91
-0.15
-4.62
-9.77
-15.64
-22.02
-28.50
-34.70
-40.42
-45.74
-50.95
-56.47
-62.71
-70.00
-78.39
-87.54
-96.42
-103.40
-106.47
-103.87
-94.69
-79.41
-59.77
-38.29
-17.50
0.78
15.67
27.10
35.44
41.17
44.75
46.60
47.17
46.92
46.19
45.17
43.91
42.37
40.60
38.72
36.88
35.28
34.03
33.23
32.89
33.01
33.47
34.05
34.43
34.27
33.32
31.47
28.83
25.59
22.01
18.22
14.28
10.17
5.79
1.11
-3.96
-9.44
-15.37
-21.70
-28.33
-35.01
-41.54
-47.82
-53.96
-60.30
-67.34
-75.51
-84.88
-94.90
-104.26
-111.04
-113.09
-108.65
-97.07
-79.09
-56.80
-33.06
-10.65
8.43
23.28
33.99
41.21
45.78
48.44
49.79
50.34
50.55
50.71
50.95
51.18
51.12
50.51
49.21
47.33
45.17
43.20
41.83
41.31
41.55
42.22
42.75
42.61
41.42
39.08
35.74
31.70
27.36
23.00
18.69
14.29
9.43
3.74
-2.98
-10.57
-18.54
-26.22
-33.07
-38.87
-43.75
-48.15
-52.65
-57.87
-64.36
-72.50
-82.20
-92.68
-102.29
-108.72
-109.67
-103.58
-90.31
-71.28
-49.06
-26.53
-6.06
10.92
24.02
33.58
40.35
45.27
49.28
53.18
57.43
62.06
66.60
70.26
72.22
71.94
69.36
64.88
59.18
53.10
47.35
42.47
38.66
35.77
33.36
30.81
27.65
23.66
18.99
14.01
9.11
4.54
0.27
-3.90
-8.26
-13.13
-18.63
-24.78
-31.43
-38.36
-45.40
-52.60
-60.32
-69.14
-79.56
-91.45
-103.68
-114.10
-120.01
-118.94
-109.56
-92.13
-68.49
-41.51
-14.24
10.75
31.74
47.93
59.24
66.09
69.28
69.84
68.84
67.26
65.73
64.47
63.24
61.60
59.12
55.68
51.62
47.62
44.48
42.74
42.48
43.28
44.31
44.71
43.78
41.25
37.27
32.27
26.77
21.16
15.62
10.04
4.17
-2.27
-9.43
-17.29
-25.63
-34.07
-42.22
-49.81
-56.85
-63.75
-71.27
-80.25
-91.10
-103.30
-115.13
-124.00
-127.13
-122.55
-109.87
-90.34
-66.45
-41.12
-16.91
4.40
21.93
35.46
45.20
51.70
55.69
58.09
59.78
61.49
63.52
65.73
67.58
68.43
67.74
65.41
61.81
57.76
54.19
51.86
51.03
51.36
52.09
52.35
51.46
49.14
45.54
41.06
36.10
30.89
25.41
19.45
12.76
5.20
-3.13
-11.87
-20.55
-28.69
-36.04
-42.65
-48.96
-55.64
-63.45
-72.91
-83.90
-95.47
-105.74
-112.26
-112.69
-105.53
-90.74
-69.93
-45.87
-21.70
-0.05
17.58
30.83
40.20
46.56
50.75
53.43
55.08
56.08
56.68
56.94
56.76
55.89
54.16
51.63
48.66
45.79
43.57
42.29
41.91
42.11
42.41
42.37
41.71
40.31
38.16
35.27
31.55
26.90
21.17
14.32
6.48
-2.04
-10.70
-19.01
-26.59
-33.44
-39.95
-46.88
-55.05
-64.95
-76.30
-87.78
-97.22
-102.11
-100.35
-91.11
-75.08
-54.38
-31.83
-10.17
8.65
23.76
35.14
43.28
48.82
52.27
54.07
54.59
54.18
53.11
51.57
49.61
47.26
44.61
41.89
39.39
37.40
36.04
35.24
34.80
34.42
33.82
32.75
30.95
28.22
24.42
19.55
13.78
7.41
0.74
-5.98
-12.62
-19.17
-25.69
-32.32
-39.21
-46.63
-54.88
-64.17
-74.47
-85.29
-95.45
-103.24
-106.74
-104.33
-95.32
-80.27
-60.89
-39.58
-18.74
-0.13
15.30
27.43
36.61
43.39
48.28
51.74
54.19
55.96
57.29
58.23
58.68
58.43
57.27
55.16
52.35
49.32
46.66
44.92
44.30
44.56
45.13
45.24
44.36
42.31
39.33
35.83
32.11
28.12
23.56
18.03
11.32
3.59
-4.67
-12.85
-20.47
-27.35
-33.71
-40.03
-46.92
-54.92
-64.36
-75.04
-86.10
-95.95
-102.51
-103.76
-98.44
-86.53
-69.33
-49.10
-28.33
-9.07
7.43
20.77
31.09
38.82
44.44
48.49
51.54
54.12
56.55
58.88
60.78
61.77
61.47
59.78
57.00
53.75
50.78
48.74
47.97
48.40
49.57
50.76
51.12
50.01
47.12
42.65
37.17
31.41
25.95
21.01
16.38
11.59
6.20
0.04
-6.78
-13.88
-20.89
-27.56
-33.88
-39.94
-46.04
-52.49
-59.69
-67.86
-76.76
-85.44
-92.14
-94.77
-91.55
-81.81
-66.31
-47.10
-26.87
-8.02
7.84
20.14
29.04
35.10
38.92
41.07
42.06
42.44
42.64
42.92
43.25
43.37
42.94
41.76
39.88
37.62
35.42
33.66
32.54
32.01
31.84
31.70
31.26
30.20
28.32
25.53
21.87
17.48
12.51
7.10
1.33
-4.72
-10.91
-17.03
-22.82
-28.17
-33.14
-38.06
-43.44
-49.83
-57.52
-66.19
-74.82
-81.65
-84.69
-82.31
-73.93
-60.24
-43.10
-24.88
-7.77
6.78
18.20
26.60
32.40
36.10
38.15
38.99
39.05
38.76
38.42
38.11
37.75
37.11
36.01
34.39
32.41
30.45
28.93
28.22
28.43
29.30
30.26
30.63
29.85
27.68
24.33
20.32
16.23
12.40
8.83
5.16
0.88
-4.35
-10.51
-17.21
-23.82
-29.74
-34.64
-38.61
-42.14
-45.99
-50.93
-57.53
-65.80
-75.04
-83.72
-89.81
-91.25
-86.66
-75.80
-59.85
-41.02
-21.96
-4.95
8.63
18.45
25.02
29.30
32.18
34.38
36.24
37.89
39.32
40.46
41.24
41.55
41.27
40.30
38.58
36.22
33.51
30.96
29.09
28.28
28.55
29.55
30.63
31.06
30.33
28.23
24.88
20.68
16.10
11.53
7.19
3.08
-1.05
-5.53
-10.60
-16.25
-22.17
-27.87
-32.92
-37.13
-40.65
-43.87
-47.30
-51.43
-56.67
-63.20
-70.76
-78.53
-84.96
-88.10
-86.13
-78.06
-64.24
-46.35
-26.91
-8.49
7.06
18.88
27.06
32.28
35.34
36.96
37.63
37.75
37.67
37.69
37.98
38.51
38.94
38.84
37.81
35.77
33.04
30.24
28.07
27.00
27.05
27.84
28.70
29.00
28.37
26.74
24.31
21.34
18.06
14.56
10.88
7.06
3.15
-0.82
-4.92
-9.31
-14.11
-19.29
-24.61
-29.66
-34.13
-37.95
-41.38
-44.98
-49.36
-54.99
-62.00
-69.95
-77.78
-83.89
-86.47
-83.94
-75.58
-61.82
-44.29
-25.31
-7.28
8.07
19.87
28.16
33.49
36.52
37.88
37.99
37.24
35.96
34.48
33.06
31.81
30.69
29.52
28.19
26.69
25.30
24.37
24.19
24.77
25.76
26.54
26.48
25.19
22.70
19.38
15.71
12.01
8.34
4.52
0.33
-4.37
-9.52
-14.94
-20.38
-25.65
-30.59
-35.16
-39.39
-43.45
-47.70
-52.63
-58.74
-66.20
-74.59
-82.69
-88.62
-90.29
-86.15
-75.78
-60.14
-41.31
-21.84
-3.99
10.84
22.21
30.37
35.91
39.39
41.25
41.83
41.46
40.47
39.19
37.86
36.57
35.28
33.91
32.45
30.96
29.68
28.89
28.81
29.45
30.55
31.59
31.92
31.04
28.70
25.08
20.65
16.01
11.58
7.46
3.41
-1.10
-6.48
-12.90
-20.08
-27.48
-34.48
-40.70
-46.14
-51.10
-56.19
-62.06
-69.25
-77.98
-87.85
-97.67
-105.51
-109.14
-106.66
-97.17
-81.23
-60.66
-38.08
-16.12
3.23
18.87
30.58
38.68
43.79
46.64
47.98
48.50
48.79
49.22
49.88
50.61
51.05
50.82
49.72
47.82
45.49
43.29
41.77
41.26
41.76
42.93
44.09
44.50
43.54
40.93
36.81
31.71
26.25
20.94
15.98
11.22
6.35
1.04
-4.92
-11.52
-18.66
-26.10
-33.52
-40.62
-47.15
-53.13
-58.90
-65.15
-72.69
-81.98
-92.77
-103.77
-112.84
-117.42
-115.36
-105.63
-88.72
-66.62
-42.17
-18.34
2.63
19.55
32.27
41.27
47.28
50.98
52.96
53.79
54.12
54.50
55.23
56.23
57.06
57.17
56.24
54.37
52.11
50.19
49.15
49.15
49.91
50.83
51.25
50.71
48.97
46.11
42.38
38.05
33.32
28.20
22.59
16.30
9.27
1.67
-6.13
-13.64
-20.51
-26.61
-32.19
-37.73
-43.91
-51.33
-60.36
-70.77
-81.60
-91.06
-96.87
-96.86
-89.71
-75.48
-55.68
-32.86
-9.89
10.86
27.87
40.67
49.51
55.08
58.11
59.30
59.22
58.33
56.97
55.34
53.58
51.65
49.54
47.27
44.97
42.97
41.59
41.08
41.45
42.34
43.17
43.34
42.35
40.09
36.70
32.53
27.92
22.99
17.69
11.88
5.42
-1.62
-9.02
-16.38
-23.36
-29.79
-35.82
-41.89
-48.65
-56.75
-66.48
-77.48
-88.48
-97.47
-102.04
-100.22
-91.15
-75.44
-55.08
-32.79
-11.19
7.84
23.35
35.25
43.88
49.77
53.48
55.57
56.64
57.23
57.67
58.04
58.12
57.59
56.18
53.87
51.00
48.10
45.76
44.41
44.14
44.69
45.53
45.99
45.50
43.71
40.55
36.26
31.28
26.06
20.94
15.98
10.94
5.38
-1.06
-8.45
-16.44
-24.36
-31.50
-37.42
-42.19
-46.37
-50.83
-56.47
-63.91
-73.14
-83.39
-93.11
-100.18
-102.42
-98.23
-87.16
-70.18
-49.45
-27.73
-7.61
9.14
21.87
30.83
36.87
40.97
43.93
46.30
48.37
50.24
51.92
53.32
54.29
54.59
53.94
52.21
49.48
46.20
43.06
40.77
39.79
40.07
41.06
41.83
41.52
39.64
36.26
31.87
27.13
22.51
18.13
13.74
8.99
3.61
-2.42
-8.82
-15.15
-21.04
-26.24
-30.77
-34.87
-38.89
-43.35
-48.74
-55.46
-63.56
-72.47
-80.82
-86.70
-88.06
-83.39
-72.41
-56.28
-37.30
-18.17
-1.20
12.31
22.09
28.66
32.79
35.19
36.31
36.51
36.11
35.43
34.74
34.07
33.24
31.98
30.13
27.89
25.77
24.50
24.65
26.38
29.29
32.53
35.11
36.18
35.42
32.95
29.22
24.71
19.74
14.38
8.57
2.33
-4.20
-10.72
-16.92
-22.62
-27.81
-32.63
-37.37
-42.36
-47.94
-54.39
-61.66
-69.17
-75.74
-79.64
-79.18
-73.21
-61.69
-45.76
-27.53
-9.43
6.41
18.66
26.90
31.62
33.77
34.48
34.69
34.96
35.47
36.12
36.67
36.99
36.94
36.45
35.40
33.71
31.43
28.88
26.66
25.38
25.42
26.63
28.34
29.58
29.52
27.76
24.49
20.28
15.79
11.48
7.45
3.51
-0.66
-5.29
-10.41
-15.84
-21.27
-26.41
-31.11
-35.38
-39.37
-43.33
-47.61
-52.61
-58.77
-66.29
-74.77
-82.98
-88.90
-90.31
-85.54
-74.28
-57.76
-38.45
-19.20
-2.39
10.70
19.93
25.96
29.82
32.45
34.50
36.28
37.86
39.13
40.00
40.41
40.41
40.04
39.33
38.28
36.87
35.22
33.56
32.23
31.51
31.44
31.78
32.15
32.07
31.18
29.30
26.44
22.82
18.75
14.57
10.53
6.74
3.11
-0.58
-4.53
-8.87
-13.60
-18.59
-23.64
-28.53
-33.02
-36.93
-40.26
