1568074734.00
64.000000
-0.00
-0.00
-0.00
-0.00
-0.00
-0.00
-0.00
-0.00
-0.00
-0.00
0.00
0.01
0.01
-0.00
-0.03
-0.05
-0.05
0.00
0.13
0.36
0.66
1.01
1.37
1.72
2.06
2.40
2.79
3.24
3.80
4.42
5.06
5.66
6.20
6.68
7.15
7.68
8.31
9.14
10.09
11.04
11.88
12.56
13.14
13.76
14.65
15.96
17.91
20.32
22.90
25.38
27.58
29.57
31.68
34.32
37.81
42.54
48.15
54.10
59.83
64.97
69.58
74.14
79.34
85.71
93.76
103.00
112.62
121.73
129.77
136.75
143.30
150.75
157.77
166.64
177.95
191.79
206.97
220.57
228.25
225.36
208.53
176.87
132.76
80.05
23.07
-34.94
-92.44
-149.16
-205.23
-260.37
-313.74
-363.87
-409.83
-450.91
-486.50
-515.74
-537.23
-549.22
-549.96
-538.37
-514.21
-478.67
-433.88
-382.45
-327.02
-269.84
-212.63
-156.66
-102.96
-52.38
-5.90
35.60
71.46
101.38
125.51
144.33
158.55
168.90
176.02
180.34
182.14
181.64
179.11
174.85
169.24
162.70
155.57
148.13
140.57
132.96
125.33
117.68
110.02
102.38
94.82
87.45
80.36
73.66
67.36
61.45
55.81
50.33
44.92
39.58
34.43
29.65
25.42
21.83
18.76
15.99
13.20
10.17
6.87
3.53
0.50
-1.83
-3.31
-4.09
-4.60
-5.38
-6.84
-9.05
-11.66
-14.13
-15.90
-16.66
-16.54
-16.02
-15.70
-16.19
-17.94
-21.05
-25.19
-29.46
-32.33
-31.97
-26.80
-16.22
-1.24
15.60
30.94
41.83
46.75
46.06
41.57
35.54
29.75
25.01
21.29
18.27
15.75
13.85
12.72
12.27
12.03
11.28
9.52
6.83
3.93
1.88
1.67
3.69
7.56
12.26
16.48
19.23
20.10
19.34
17.66
15.80
14.24
13.03
11.95
10.67
9.04
7.12
5.13
3.35
2.01
1.25
1.06
1.40
2.14
3.10
3.99
4.50
4.48
3.96
3.23
2.71
2.75
3.42
4.44
5.32
5.58
4.98
3.60
1.77
-0.15
-2.07
-4.05
-6.30
-9.03
-12.36
-16.19
-20.20
-23.82
-26.41
-27.47
-26.85
-24.95
-22.49
-20.33
-18.91
-18.10
-17.21
-15.49
-12.52
-8.47
-4.20
-0.88
0.38
-1.15
-5.59
-12.43
-20.40
-27.49
-31.08
-28.66
-18.72
-1.71
19.50
40.24
55.45
61.51
57.62
46.01
30.80
16.23
5.08
-2.00
-6.06
-8.71
-11.10
-13.49
-15.41
-16.43
-16.51
-16.03
-15.37
-14.44
-12.57
-8.94
-3.23
3.96
11.07
16.14
17.78
15.68
10.64
4.14
-2.31
-8.31
-13.34
-17.08
-19.29
-19.80
-18.76
-16.80
-14.78
-13.38
-12.52
-11.21
-8.21
-2.65
5.39
14.80
23.84
30.94
35.27
36.96
36.88
35.91
34.51
32.82
30.74
28.05
24.56
20.11
14.65
8.29
1.16
-6.51
-14.16
-21.12
-26.96
-31.62
-35.34
-38.33
-40.58
-41.94
-42.19
-40.83
-37.34
-31.37
-22.98
-12.52
-0.54
12.26
24.96
34.84
39.22
37.24
30.72
22.90
16.28
11.67
8.46
5.50
1.82
-2.39
-6.13
-8.25
-8.11
-5.83
-2.03
2.60
7.49
12.26
17.08
22.20
27.60
32.76
36.87
39.16
39.23
37.72
34.51
30.14
25.28
20.46
15.86
11.43
7.12
3.00
-0.80
-4.16
-6.77
-8.43
-9.12
-8.98
-8.23
-7.10
-5.77
-4.48
-3.45
-2.65
-1.94
-1.09
0.06
1.49
2.92
4.39
5.66
6.45
6.79
6.90
7.02
7.24
7.38
7.02
5.70
3.10
-0.78
-5.55
-10.73
-16.00
-21.31
-26.86
-32.96
-39.86
-47.67
-56.27
-65.38
-74.61
-83.50
-91.48
-97.86
-101.91
-102.89
-100.38
-94.31
-85.10
-73.56
-60.75
-47.72
-35.31
-24.06
-14.19
-5.69
1.55
7.66
12.76
16.98
20.48
23.49
26.30
29.16
32.26
35.65
39.32
43.16
47.08
50.93
54.57
57.72
60.03
61.09
60.63
58.60
55.27
51.11
46.70
42.45
38.63
35.28
32.38
29.86
27.69
25.80
24.07
22.37
20.60
18.70
16.67
14.55
12.42
10.41
8.65
7.25
6.25
5.49
4.67
3.38
1.26
-1.84
-5.82
-10.30
-14.67
-18.20
-20.11
-19.78
-16.94
-11.79
-5.00
2.48
9.74
16.20
21.72
26.52
30.91
35.08
38.89
41.94
43.76
44.02
42.70
40.13
36.83
33.36
30.15
27.37
25.01
22.95
21.07
19.29
17.61
16.01
14.45
12.84
11.11
9.24
7.30
5.43
3.77
2.40
1.33
0.46
-0.37
-1.25
-2.22
-3.20
-4.06
-4.73
-5.23
-5.65
-6.17
-6.89
-7.83
-8.87
-9.82
-10.48
-10.73
-10.59
-10.16
-9.57
-8.95
-8.41
-8.01
-7.81
-7.80
-7.92
-8.05
-7.96
-7.40
-6.23
-4.47
-2.36
-0.28
1.39
2.33
2.46
2.00
1.27
0.55
-0.06
-0.58
-1.06
-1.54
-2.11
-2.76
-3.44
-4.10
-4.75
-5.49
-6.38
-7.42
-8.58
-10.10
-12.10
-14.47
-16.94
-19.25
-21.23
-22.81
-24.00
-24.96
-26.61
-29.43
-33.06
-36.63
-39.41
-41.15
-42.05
-42.44
-42.78
-44.81
-49.30
-55.46
-61.67
-66.72
-70.40
-73.04
-75.02
-76.98
-81.65
-90.16
-101.16
-111.80
-119.92
-124.90
-127.10
-127.09
-126.07
-127.79
-133.70
-141.80
-148.33
-150.83
-149.30
-145.23
-140.18
-117.01
-70.26
-9.48
48.54
93.53
124.42
144.27
155.56
162.30
164.74
158.71
141.72
114.90
81.42
45.43
10.40
-19.91
-35.40
-29.13
-4.33
29.01
60.83
85.22
100.43
107.45
109.00
108.34
106.59
102.30
94.89
86.04
78.84
75.42
75.28
75.45
71.81
60.12
38.24
8.56
-22.73
-48.48
-63.88
-68.05
-63.25
-53.07
-41.21
-30.63
-21.53
-13.49
-6.09
0.43
5.45
8.65
10.32
10.95
11.19
11.53
11.86
11.72
10.48
7.69
3.56
-1.13
-5.38
-8.40
-9.83
-10.02
-9.55
-9.12
-9.21
-9.88
-10.83
-11.60
-11.70
-10.74
-9.41
-8.10
-7.11
-6.59
-6.54
-6.84
-7.33
-7.90
-8.49
-9.17
-9.92
-10.74
-11.68
-12.77
-14.08
-15.64
-17.43
-19.38
-21.37
-23.19
-24.84
-26.48
-28.54
-31.44
-35.40
-40.22
-45.16
-49.12
-50.82
-49.29
-44.13
-35.60
-24.56
-12.10
0.69
12.96
24.20
34.15
42.64
49.56
54.78
58.26
60.03
60.31
59.41
57.68
55.48
53.09
50.72
48.48
46.46
44.66
43.06
41.66
40.43
39.34
38.32
37.24
35.93
34.21
31.97
29.20
25.97
22.45
18.83
15.29
11.91
8.69
5.56
2.34
-1.10
-4.82
-8.78
-12.77
-16.58
-20.05
-23.16
-26.07
-29.03
-32.35
-36.27
-40.92
-46.24
-51.93
-57.46
-62.00
-64.60
-64.37
-60.72
-53.59
-43.48
-31.36
-18.43
-5.73
5.98
16.37
25.42
33.22
39.87
45.35
49.54
52.32
53.66
53.68
52.63
50.83
48.62
46.24
43.90
41.73
39.87
38.44
37.49
36.95
36.61
36.21
35.48
34.28
32.59
30.52
28.18
25.66
23.00
20.17
17.19
14.10
10.99
7.93
4.93
1.92
-1.20
-4.56
-8.22
-12.12
-16.10
-19.94
-23.47
-26.68
-29.78
-33.12
-37.09
-41.92
-47.54
-53.47
-58.90
-62.81
-64.19
-62.34
-57.02
-48.60
-37.92
-26.04
-13.99
-2.51
7.98
17.31
25.41
32.16
37.43
41.11
43.24
44.02
43.77
42.77
41.29
39.45
37.37
35.15
32.94
30.89
29.14
27.71
26.51
25.39
24.18
22.73
20.98
18.90
16.50
13.81
10.85
7.71
4.47
1.20
-2.07
-5.35
-8.72
-12.22
-15.82
-19.38
-22.74
-25.76
-28.34
-30.43
-32.01
-33.11
-33.83
-34.37
-35.01
-36.01
-37.48
-39.22
-40.75
-41.41
-40.52
-37.56
-32.28
-24.81
-15.55
-5.14
5.65
16.09
25.54
33.59
40.03
44.85
48.15
50.05
50.69
50.15
48.50
45.85
42.41
38.48
34.47
30.74
27.53
24.93
22.83
21.08
19.54
18.11
16.75
15.40
14.01
12.49
10.77
8.84
6.72
4.47
2.18
-0.08
-2.31
-4.57
-6.99
-9.72
-12.84
-16.34
-20.01
-23.57
-26.78
-29.50
-31.81
-33.98
-36.36
-39.30
-43.02
-47.53
-52.52
-57.39
-61.29
-63.31
-62.70
-59.12
-52.72
-44.08
-34.01
-23.37
-12.91
-3.17
5.55
13.13
19.61
25.09
29.67
33.34
36.02
37.56
37.93
37.28
35.89
34.14
32.37
30.75
29.32
28.07
26.94
25.94
25.04
24.23
23.43
22.52
21.41
20.01
18.26
16.20
13.90
11.43
8.91
6.40
3.93
1.49
-0.98
-3.57
-6.38
-9.44
-12.75
-16.25
-19.79
-23.25
-26.55
-29.73
-32.89
-36.28
-40.12
-44.55
-49.43
-54.37
-58.65
-61.38
-61.72
-59.14
-53.58
-45.51
-35.76
-25.27
-14.90
-5.24
3.36
10.77
16.99
22.11
26.26
29.60
32.25
34.31
35.78
36.61
36.74
36.19
35.09
33.65
32.14
30.80
29.76
29.03
28.51
28.02
27.39
26.49
25.25
23.64
21.66
19.37
16.89
14.34
11.87
9.59
7.49
5.46
3.32
0.92
-1.87
-5.06
-8.59
-12.28
-15.94
-19.38
-22.42
-25.04
-27.38
-29.73
-32.43
-35.81
-40.02
-44.98
-50.34
-55.46
-59.55
-61.76
-61.39
-58.07
-51.88
-43.39
-33.45
-23.03
-12.90
-3.54
4.87
12.30
18.76
24.20
28.54
31.68
33.66
34.59
34.66
34.08
33.03
31.64
30.06
28.43
26.91
25.60
24.55
23.75
23.12
22.60
22.12
21.60
20.90
19.86
18.37
16.39
14.06
11.59
9.17
6.85
4.55
2.04
-0.84
-4.14
-7.68
-11.21
-14.46
-17.29
-19.72
-21.91
-24.07
-26.40
-29.07
-32.17
-35.83
-40.05
-44.70
-49.37
-53.32
-55.69
-55.62
-52.65
-46.81
-38.65
-29.06
-18.98
-9.13
0.03
8.31
15.62
21.86
26.92
30.67
33.06
34.15
34.11
33.24
31.86
30.26
28.68
27.23
25.92
24.70
23.52
22.38
21.32
20.44
19.75
19.18
18.56
17.68
16.34
14.51
12.24
9.70
7.04
4.35
1.64
-1.19
-4.23
-7.52
-10.97
-14.41
-17.64
-20.56
-23.25
-25.89
-28.72
-31.92
-35.58
-39.67
-44.16
-48.95
-53.85
-58.43
-61.95
-63.54
-62.35
-57.93
-50.42
-40.54
-29.35
-17.94
-7.15
2.60
11.21
18.75
25.28
30.79
35.12
38.19
40.00
40.77
40.78
40.30
39.50
38.42
37.07
35.55
34.07
32.86
32.11
31.75
31.53
31.09
30.14
28.62
26.69
24.66
22.73
20.97
19.24
17.33
15.01
12.24
9.12
5.88
2.76
-0.14
-2.91
-5.76
-8.93
-12.51
-16.40
-20.34
-24.02
-27.30
-30.24
-33.10
-36.27
-40.10
-44.76
-50.17
-55.95
-61.43
-65.74
-67.94
-67.26
-63.28
-56.08
-46.27
-34.77
-22.66
-10.84
0.04
9.69
18.07
25.27
31.45
36.66
40.88
44.06
46.15
47.16
47.16
46.33
44.88
43.03
41.03
39.10
37.46
36.21
35.35
34.73
34.12
33.33
32.22
30.79
29.08
27.15
24.98
22.51
19.74
16.73
13.66
10.70
7.96
5.39
2.89
0.30
-2.46
-5.40
-8.51
-11.75
-15.14
-18.63
-22.19
-25.72
-29.19
-32.61
-36.13
-39.99
-44.40
-49.41
-54.80
-59.96
-63.98
-65.81
-64.59
-59.88
-51.91
-41.46
-29.64
-17.59
-6.14
4.24
13.42
21.39
28.16
33.68
37.88
40.77
42.50
43.25
43.29
42.78
41.82
40.46
38.71
36.70
34.63
32.74
31.23
30.18
29.51
29.00
28.39
27.47
26.16
24.48
22.52
20.38
18.12
15.74
13.26
10.70
8.12
5.56
3.05
0.56
-1.99
-4.68
-7.59
-10.73
-14.03
-17.39
-20.67
-23.76
-26.69
-29.58
-32.67
-36.24
-40.46
-45.27
-50.30
-54.87
-58.10
-59.10
-57.22
-52.26
-44.54
-34.82
-24.09
-13.29
-3.16
5.90
13.69
20.17
25.31
29.13
31.65
33.00
33.34
32.87
31.76
30.16
28.22
26.15
24.23
22.68
21.66
21.12
20.88
20.72
20.48
20.11
19.60
18.90
17.89
16.34
14.10
11.19
7.87
4.52
1.43
-1.30
-3.83
-6.45
-9.38
-12.69
-16.19
-19.61
-22.70
-25.38
-27.74
-30.01
-32.45
-35.29
-38.71
-42.74
-47.22
-51.72
-55.58
-57.96
-58.09
-55.42
-49.84
-41.72
-31.83
-21.14
-10.58
-0.88
7.61
14.84
20.99
26.26
30.70
34.23
36.61
37.66
37.39
36.05
34.08
31.96
30.05
28.48
27.24
26.18
25.19
24.28
23.50
22.93
22.49
21.99
21.09
19.49
17.04
13.89
10.41
7.05
4.16
1.80
-0.24
-2.37
-4.98
-8.25
-12.07
-16.11
-19.97
-23.35
-26.23
-28.85
-31.63
-34.99
-39.20
-44.28
-49.93
-55.58
-60.48
-63.76
-64.61
-62.45
-57.14
-49.01
-38.85
-27.68
-16.49
-6.00
3.45
11.82
19.21
25.69
31.23
35.74
39.09
41.26
42.34
42.46
41.82
40.59
38.94
37.01
34.94
32.86
30.89
29.12
27.61
26.41
25.44
24.60
23.63
22.29
20.37
17.81
14.77
11.53
8.40
5.59
3.10
0.71
-1.88
-4.95
-8.56
-12.53
-16.49
-20.08
-23.11
-25.71
-28.23
-31.14
-34.83
-39.44
-44.80
-50.46
-55.72
-59.74
-61.66
-60.80
-56.81
-49.83
-40.50
-29.79
-18.73
-8.14
1.53
10.24
18.15
25.49
32.34
38.58
43.89
47.88
50.20
50.71
49.53
47.00
43.64
39.91
36.16
32.56
29.18
26.09
23.38
21.19
19.54
18.31
17.19
15.82
13.92
11.44
8.55
5.57
2.75
0.23
-2.06
-4.24
-6.39
-8.47
-10.34
-11.87
-13.07
-14.10
-15.29
-17.03
-19.65
-23.38
-28.31
-34.38
-41.36
-48.77
-55.81
-61.47
-64.65
-64.44
-60.41
-52.70
-41.96
-29.23
-15.62
-2.15
10.36
21.33
30.37
37.27
41.99
44.70
45.74
45.50
44.36
42.60
40.31
37.52
34.23
30.58
26.86
23.44
20.79
19.27
19.10
20.25
22.44
25.17
27.78
29.62
30.22
29.44
27.39
24.41
20.85
16.97
12.92
8.74
4.54
0.44
-3.43
-6.97
-10.22
-13.34
-16.58
-20.18
-24.34
-29.17
-34.68
-40.79
-47.27
-53.71
-59.50
-63.87
-66.04
-65.41
-61.69
-55.07
-46.10
-35.60
-24.48
-13.50
-3.25
6.01
14.16
21.24
27.19
31.94
35.35
37.36
38.07
37.82
37.03
36.15
35.47
35.09
34.96
34.91
34.74
34.28
33.41
32.09
30.36
28.34
26.14
23.80
21.31
18.65
15.84
12.99
10.28
7.81
5.55
3.31
0.82
-2.09
-5.45
-9.05
-12.60
-15.85
-18.70
-21.33
-24.06
-27.29
-31.30
-36.15
-41.62
-47.18
-52.06
-55.44
-56.60
-55.04
-50.60
-43.45
-33.98
-22.71
-10.24
2.73
15.44
27.06
36.84
44.20
48.97
51.30
51.65
50.60
48.69
46.31
43.69
40.86
37.83
34.56
31.08
27.55
24.18
21.21
18.76
16.80
15.15
13.61
12.03
10.40
8.72
7.05
5.30
3.36
1.07
-1.63
-4.67
-7.89
-11.07
-14.07
-16.83
-19.40
-21.85
-24.27
-26.72
-29.28
-32.11
-35.37
-39.23
-43.62
-48.16
-52.13
-54.58
-54.66
-51.89
-46.27
-38.33
-28.89
-18.82
-8.83
0.55
8.99
16.23
22.06
26.34
29.09
30.44
30.65
30.01
28.76
27.13
25.26
23.32
21.47
19.87
18.62
17.80
17.34
17.13
16.95
16.57
15.76
14.40
12.52
10.23
7.74
5.19
2.66
0.03
-2.86
-6.15
-9.84
-13.78
-17.74
-21.46
-24.78
-27.72
-30.47
-33.31
-36.58
-40.53
-45.20
-50.34
-55.38
-59.44
-61.56
-60.91
-57.04
-50.03
-40.48
-29.35
-17.71
-6.47
3.76
12.72
20.40
26.89
32.27
36.52
39.60
41.46
42.14
41.79
40.65
39.00
37.09
35.14
33.29
31.62
30.16
28.93
27.91
27.05
26.21
25.19
23.80
21.87
19.40
16.55
13.53
10.56
7.73
4.97
2.14
-0.92
-4.26
-7.84
-11.55
-15.22
-18.73
-22.04
-25.22
-28.40
-31.83
-35.71
-40.21
-45.31
-50.83
-56.30
-61.06
-64.27
-65.13
-63.02
-57.68
-49.35
-38.71
-26.73
-14.41
-2.61
8.16
17.68
25.89
32.81
38.45
42.82
45.93
47.88
48.79
48.80
48.05
46.64
44.69
42.36
39.86
37.40
35.13
33.16
31.48
30.11
28.95
27.93
26.86
25.51
23.64
21.11
17.92
14.25
10.42
6.73
3.40
0.47
-2.19
-4.81
-7.63
-10.80
-14.34
-18.13
-21.97
-25.65
-29.02
-32.10
-35.09
-38.33
-42.16
-46.80
-52.15
-57.68
-62.50
-65.52
-65.74
-62.53
-55.84
-46.16
-34.39
-21.62
-8.90
2.97
13.42
22.22
29.35
34.96
39.25
42.40
44.55
45.76
46.07
45.51
44.15
42.14
39.71
37.15
34.71
32.61
30.97
29.80
28.99
28.38
27.72
26.75
25.30
23.29
20.79
18.01
15.17
12.45
9.87
7.36
4.78
2.08
-0.78
-3.75
-6.84
-10.11
-13.59
-17.26
-21.01
-24.66
-28.05
-31.11
-33.94
-36.75
-39.86
-43.59
-48.16
-53.57
-59.48
-65.14
-69.46
-71.28
-69.65
-64.15
-55.02
-43.14
-29.72
-16.05
-3.18
8.25
18.02
26.17
32.90
38.35
42.56
45.55
47.30
47.90
47.54
46.42
44.74
42.66
40.33
37.95
35.77
34.02
32.79
32.01
31.47
30.87
29.97
28.65
26.90
24.76
22.29
19.55
16.58
13.46
10.32
7.29
4.46
1.84
-0.68
-3.30
-6.19
-9.42
-12.93
-16.56
-20.09
-23.38
-26.45
-29.46
-32.66
-36.33
-40.65
-45.62
-51.01
-56.29
-60.70
-63.29
-63.18
-59.80
-53.07
-43.50
-32.06
-19.87
-7.96
3.00
12.67
20.97
27.89
33.38
37.35
39.75
40.67
40.41
39.32
37.75
35.90
33.80
31.50
29.09
26.80
24.93
23.69
23.11
22.99
22.98
22.73
21.99
20.67
18.82
16.60
14.15
11.55
8.84
6.03
3.07
-0.06
-3.35
-6.75
-10.16
-13.49
-16.69
-19.72
-22.61
-25.43
-28.32
-31.50
-35.22
-39.61
-44.51
-49.36
-53.23
-55.08
-54.06
-49.79
-42.53
-32.98
-22.16
-11.02
-0.36
9.25
17.43
23.96
28.73
31.80
33.34
33.56
32.69
30.92
28.47
25.59
22.63
19.90
17.70
16.14
15.16
14.56
14.09
13.54
12.78
11.75
10.44
8.85
6.97
4.77
2.20
-0.75
-4.04
-7.57
-11.22
-14.83
-18.25
-21.41
-24.34
-27.13
-30.01
-33.20
-36.97
-41.42
-46.44
-51.59
-56.11
-59.07
-59.52
-56.83
-50.81
-41.81
-30.64
-18.41
-6.24
4.94
14.52
22.29
28.34
32.94
36.40
38.91
40.52
41.15
40.75
39.37
37.23
34.68
32.13
29.88
28.04
26.56
25.24
23.88
22.29
20.35
17.88
14.67
10.51
5.35
-0.59
-6.77
-12.50
-17.19
-20.60
-22.90
-24.61
-26.24
-28.17
-30.53
-33.28
-36.41
-40.04
-44.33
-49.28
-54.53
-59.26
-62.38
-62.85
-60.04
-53.89
-44.95
-34.15
-22.46
-10.71
0.54
10.94
20.24
28.26
34.83
39.84
43.28
45.25
45.88
45.34
43.81
41.52
38.75
35.81
33.01
30.60
28.73
27.46
26.75
26.49
26.50
26.54
26.40
25.89
24.88
23.37
21.35
18.88
15.97
12.65
8.98
5.02
0.87
-3.41
-7.78
-12.26
-16.88
-21.67
-26.66
-31.90
-37.41
-43.22
-49.18
-54.89
-59.65
-62.51
-62.55
-59.20
-52.41
-42.75
-31.19
-18.84
-6.61
4.91
15.46
24.89
33.15
40.13
45.72
49.90
52.76
54.40
54.93
54.44
53.02
50.85
48.24
45.55
43.16
41.25
39.83
38.74
37.74
36.64
35.32
33.78
32.02
30.08
27.93
25.58
23.04
20.32
17.42
14.34
11.12
7.81
4.51
1.32
-1.69
-4.54
-7.34
-10.25
-13.38
-16.81
-20.44
-24.14
-27.73
-31.09
-34.21
-37.27
-40.54
-44.36
-48.91
-54.14
-59.55
-64.30
-67.29
-67.51
-64.33
-57.67
-48.08
-36.53
-24.12
-11.84
-0.38
9.89
18.82
26.32
32.36
36.89
39.92
41.57
42.00
41.49
40.25
38.45
36.25
33.76
31.23
28.92
27.11
25.95
25.41
25.25
25.18
24.91
24.30
23.32
22.02
20.43
18.55
16.41
14.02
11.51
9.03
6.70
4.57
2.58
0.56
-1.67
-4.21
-7.06
-10.10
-13.20
-16.24
-19.21
-22.13
-25.06
-28.00
-30.94
-33.93
-37.08
-40.59
-44.59
-48.96
-53.19
-56.41
-57.62
-55.94
-51.05
-43.19
-33.15
-21.98
-10.67
0.04
9.72
18.15
25.25
30.92
35.11
37.82
39.15
39.31
38.54
37.12
35.31
33.37
31.51
29.89
28.63
27.68
26.95
26.28
25.51
24.55
23.42
22.18
20.91
19.64
18.34
16.96
15.38
13.54
11.41
9.02
6.43
3.75
1.10
-1.45
-3.86
-6.21
-8.64
-11.27
-14.16
-17.29
-20.51
-23.68
-26.69
-29.51
-32.24
-35.04
-38.17
-41.85
-46.18
-51.04
-55.94
-60.07
-62.46
-62.24
-58.88
-52.41
-43.36
-32.65
-21.29
-10.16
0.15
9.33
17.31
24.08
29.64
33.94
36.96
38.73
39.36
39.04
37.99
36.43
34.58
32.64
30.78
29.14
27.81
26.81
26.11
25.64
25.29
24.92
24.33
23.35
21.85
19.89
17.68
15.49
13.55
11.89
10.35
8.59
6.40
3.73
0.75
-2.20
-4.86
-7.13
-9.13
-11.12
-13.35
-15.97
-18.94
-22.05
-25.10
-27.91
-30.42
-32.71
-35.02
-37.64
-40.84
-44.74
-49.19
-53.70
-57.49
-59.62
-59.26
-55.91
-49.57
-40.72
-30.23
-19.10
-8.23
1.71
10.42
17.85
24.11
29.33
33.54
36.68
38.62
39.31
38.88
37.60
35.80
33.82
31.83
29.89
28.01
26.20
24.58
23.28
22.44
22.09
22.06
22.08
21.85
21.15
19.93
18.28
16.38
14.40
12.44
10.53
8.63
6.70
4.70
2.62
0.48
-1.66
-3.72
-5.67
-7.56
-9.48
-11.56
-13.89
-16.43
-19.05
-21.61
-24.03
-26.34
-28.68
-31.18
-33.96
-37.06
-40.50
-44.28
-48.25
-52.05
-55.07
-56.46
-55.48
-51.65
-45.02
-36.17
-26.02
-15.55
-5.55
3.45
11.23
17.70
22.83
26.63
29.09
30.29
30.38
29.59
28.24
26.63
25.01
23.52
22.22
21.10
20.18
19.51
19.12
19.02
19.13
19.25
19.13
18.59
17.53
16.01
14.17
12.18
10.17
8.16
6.13
4.01
1.78
-0.52
-2.85
-5.15
-7.41
-9.73
-12.20
-14.94
-17.94
-21.09
-24.21
-27.14
-29.85
-32.44
-35.15
-38.22
-41.87
-46.12
-50.80
-55.42
-59.21
-61.25
-60.66
-56.91
-49.99
-40.45
-29.26
-17.56
-6.33
3.80
12.49
19.72
25.54
30.06
33.37
35.58
36.85
37.32
37.14
36.41
35.19
33.55
31.64
29.67
27.90
26.56
25.72
25.32
25.14
24.93
24.52
23.78
22.70
21.32
19.70
17.90
15.96
13.85
11.54
8.96
6.08
2.97
-0.21
-3.27
-6.08
-8.64
-11.11
-13.67
-16.46
-19.48
-22.57
-25.55
-28.33
-30.98
-33.74
-36.91
-40.78
-45.43
-50.70
-56.14
-61.02
-64.41
-65.36
-63.14
-57.44
-48.57
-37.35
-24.95
-12.54
-1.04
9.05
17.59
24.69
30.46
35.02
38.41
40.71
42.03
42.54
42.36
41.60
40.37
38.75
36.94
35.16
33.67
32.62
32.05
31.83
31.69
31.36
30.60
29.36
27.72
25.84
23.88
21.90
19.84
17.54
14.87
11.82
8.48
5.02
1.59
-1.73
-4.95
-8.15
-11.40
-14.74
-18.15
-21.56
-24.91
-28.13
-31.23
-34.27
-37.47
-41.11
-45.46
-50.59
-56.23
-61.65
-65.75
-67.36
-65.57
-60.07
-51.22
-39.92
-27.36
-14.66
-2.64
8.22
17.73
25.85
32.61
38.06
42.23
45.20
47.05
47.86
47.73
46.78
45.15
43.02
40.63
38.21
36.02
34.24
32.98
32.20
31.74
31.34
30.76
29.82
28.45
26.73
24.75
22.56
20.17
17.54
14.69
11.70
8.75
5.97
3.40
0.92
-1.70
-4.66
-8.05
-11.76
-15.56
-19.20
-22.53
-25.63
-28.70
-32.05
-35.96
-40.56
-45.76
-51.21
-56.29
-60.13
-61.86
-60.73
-56.40
-48.98
-39.08
-27.59
-15.52
-3.73
7.13
16.67
24.64
30.93
35.47
38.30
39.55
39.46
38.30
36.36
33.88
31.07
28.14
25.35
22.96
21.24
20.30
20.14
20.52
21.12
21.54
21.42
20.53
18.78
16.25
13.21
9.99
6.88
3.99
1.24
-1.60
-4.77
-8.35
-12.22
-16.10
-19.68
-22.77
-25.46
-28.01
-30.82
-34.26
-38.56
-43.65
-49.19
-54.53
-58.82
-61.15
-60.79
-57.28
-50.62
-41.24
-29.94
-17.68
-5.49
5.80
15.57
23.57
29.82
34.52
37.93
40.24
41.53
41.82
41.09
39.47
37.19
34.54
31.87
29.45
27.48
26.01
24.97
24.18
23.37
22.33
20.89
18.98
16.65
14.03
11.20
8.23
5.15
1.90
-1.56
-5.29
-9.30
-13.53
-17.87
-22.17
-26.27
-30.12
-33.82
-37.63
-41.90
-46.90
-52.60
-58.53
-63.70
-66.95
-67.14
-63.66
-56.50
-46.32
-34.22
-21.39
-8.86
2.68
12.85
21.57
28.84
34.71
39.24
42.46
44.43
45.28
45.19
44.35
42.94
41.08
38.84
36.28
33.53
30.78
28.25
26.12
24.39
22.95
21.48
19.69
17.30
14.22
10.55
6.48
2.27
-1.89
-5.94
-9.90
-13.81
-17.70
-21.61
-25.64
-30.00
-34.90
-40.49
-46.57
-52.58
-57.57
-60.43
-60.22
-56.47
-49.30
-39.40
-27.80
-15.56
-3.55
7.66
17.73
26.48
33.80
39.60
43.84
46.58
47.96
48.24
47.61
46.25
44.30
41.85
39.04
36.01
32.93
29.95
27.16
24.62
22.31
20.15
17.96
15.50
12.55
9.03
5.05
0.88
-3.16
-6.84
-10.16
-13.34
-16.74
-20.72
-25.53
-31.23
-37.60
-44.10
-49.93
-54.10
-55.64
-53.87
-48.63
-40.32
-29.83
-18.29
-6.75
4.01
13.60
21.92
29.07
35.13
40.09
43.85
46.28
47.30
46.97
45.50
43.24
40.54
37.71
34.92
32.29
29.83
27.60
25.63
23.93
22.46
21.08
19.60
17.82
15.61
12.89
9.69
6.07
2.14
-1.98
-6.18
-10.31
-14.25
-17.91
-21.32
-24.59
-27.97
-31.78
-36.29
-41.61
-47.51
-53.34
-58.08
-60.56
-59.79
-55.29
-47.27
-36.52
-24.22
-11.58
0.47
11.34
20.72
28.53
34.68
39.12
41.85
43.01
42.87
41.83
40.28
38.49
36.56
34.48
32.21
29.80
27.45
25.42
23.97
23.14
22.79
22.58
22.08
20.92
18.91
16.10
12.71
9.09
5.51
2.12
-1.09
-4.27
-7.59
-11.13
-14.86
-18.61
-22.21
-25.56
-28.69
-31.76
-35.07
-38.94
-43.62
-49.19
-55.40
-61.61
-66.79
-69.76
-69.43
-65.19
-57.10
-45.94
-32.92
-19.35
-6.32
5.55
16.00
25.01
32.61
38.81
43.57
46.90
48.90
49.71
49.54
48.58
46.97
44.87
42.44
39.88
37.41
35.25
33.56
32.44
31.81
31.46
31.10
30.41
29.20
27.45
25.32
23.02
20.72
18.47
16.17
13.66
10.84
7.72
4.47
1.31
-1.62
-4.31
-6.96
-9.83
-13.11
-16.80
-20.73
-24.61
-28.22
-31.49
-34.55
-37.64
-41.02
-44.93
-49.47
-54.62
-60.16
-65.58
-70.08
-72.60
-72.17
-68.09
-60.29
-49.33
-36.30
-22.47
-9.00
3.30
14.04
23.12
30.60
36.55
40.98
43.91
45.42
45.74
45.15
43.99
42.48
40.74
38.79
36.68
34.51
32.49
30.88
29.83
29.30
29.08
28.80
28.16
26.91
25.03
22.63
19.90
17.09
14.43
12.05
9.97
8.05
6.11
3.95
1.48
-1.22
-4.04
-6.81
-9.47
-12.10
-14.81
-17.71
-20.79
-23.99
-27.18
-30.28
-33.24
-36.07
-38.82
-41.58
-44.48
-47.71
-51.36
-55.34
-59.21
-62.17
-63.24
-61.53
-56.53
-48.34
-37.67
-25.63
-13.43
-2.12
7.69
15.78
22.27
27.43
31.51
34.65
36.86
38.12
38.43
37.89
36.70
35.08
33.25
31.40
29.71
28.32
27.34
26.81
26.63
26.61
26.51
26.18
25.53
24.54
23.27
21.74
19.96
17.98
15.86
13.70
11.58
9.48
7.31
4.97
2.46
-0.11
-2.61
-4.90
-7.05
-9.25
-11.77
-14.79
-18.29
-22.04
-25.72
-29.08
-32.08
-34.88
-37.78
-41.10
-45.06
-49.68
-54.75
-59.77
-64.00
-66.63
-66.84
-64.10
-58.30
-49.77
-39.23
-27.60
-15.78
-4.52
5.68
14.55
22.04
28.18
33.07
36.81
39.46
41.09
41.73
41.44
40.32
38.58
36.49
34.38
32.54
31.11
30.11
29.37
28.65
27.78
26.65
25.30
23.80
22.19
20.49
18.68
16.75
14.70
12.50
10.15
7.66
5.06
2.44
-0.12
-2.54
-4.83
-7.04
-9.30
-11.71
-14.35
-17.23
-20.24
-23.22
-25.99
-28.44
-30.67
-32.98
-35.80
-39.52
-44.26
-49.69
-55.03
-59.23
-61.23
-60.28
-56.10
-48.91
-39.39
-28.40
-16.89
-5.69
4.55
13.40
20.65
26.26
30.34
33.14
34.94
36.04
36.62
36.75
36.38
35.42
33.85
31.79
29.49
27.25
25.36
23.97
23.10
22.60
22.28
21.94
21.42
20.65
19.58
18.25
16.71
14.98
13.06
10.92
8.52
5.92
3.20
0.49
-2.11
-4.60
-7.05
-9.55
-12.16
-14.83
-17.47
-19.98
-22.36
-24.69
-27.14
-29.92
-33.26
-37.27
-41.93
-46.94
-51.69
-55.31
-56.87
-55.62
-51.25
-44.00
-34.58
-24.00
-13.26
-3.22
5.62
13.01
18.96
23.53
26.81
28.85
29.69
29.44
28.30
26.57
24.60
22.70
21.05
19.71
18.65
17.77
17.05
16.50
16.20
16.17
16.31
16.41
16.15
15.25
13.54
11.10
8.17
5.09
2.11
-0.63
-3.23
-5.87
-8.71
-11.81
-15.04
-18.22
-21.20
-23.94
-26.55
-29.30
-32.45
-36.26
-40.80
-45.96
-51.27
-56.00
-59.16
-59.81
-57.34
-51.64
-43.19
-32.85
-21.61
-10.36
0.25
9.76
17.88
24.39
29.24
32.54
34.53
35.53
35.82
35.55
34.78
33.54
31.89
29.97
28.00
26.19
24.72
23.68
23.06
22.73
22.48
22.01
21.09
19.54
17.29
14.46
11.26
7.91
4.63
1.51
-1.47
-4.46
-7.60
-10.97
-14.54
-18.12
-21.53
-24.62
-27.45
-30.27
-33.52
-37.61
-42.75
-48.78
-55.08
-60.69
-64.45
-65.36
-62.80
-56.74
-47.70
-36.64
-24.68
-12.80
-1.72
8.23
16.92
24.39
30.69
35.85
39.88
42.82
44.79
45.91
46.30
46.05
45.18
43.72
41.77
39.49
37.15
35.04
33.39
32.27
31.57
31.00
30.21
28.88
26.83
24.08
20.80
17.27
13.80
10.61
7.77
5.17
2.57
-0.29
-3.66
-7.60
-12.00
-16.60
-21.04
-24.99
-28.29
-30.96
-33.28
-35.70
-38.70
-42.62
-47.44
-52.66
-57.39
-60.50
-60.98
-58.20
-52.14
-43.30
-32.52
-20.76
-8.88
2.44
12.70
21.57
28.88
34.58
38.74
41.49
43.01
43.47
43.01
41.81
40.04
37.93
35.71
33.61
31.84
30.52
29.72
29.38
29.38
29.46
29.33
28.71
27.44
25.49
22.96
20.09
17.11
14.21
11.47
8.81
6.08
3.12
-0.14
-3.65
-7.27
-10.83
-14.21
-17.36
-20.29
-23.06
-25.82
-28.79
-32.25
-36.44
-41.43
-46.92
-52.20
-56.29
-58.16
-57.03
-52.61
-45.15
-35.33
-24.11
-12.47
-1.25
8.95
17.78
25.11
30.92
35.29
38.28
40.02
40.67
40.44
39.57
38.28
36.79
35.23
33.71
32.30
31.02
29.90
28.91
28.01
27.14
26.24
25.22
23.96
22.36
20.35
17.93
15.19
12.27
9.32
6.43
3.63
0.88
-1.89
-4.77
-7.84
-11.11
-14.55
-18.10
-21.64
-25.06
-28.32
-31.47
-34.73
-38.36
-42.64
-47.64
-53.10
-58.41
-62.70
-64.97
-64.42
-60.65
-53.72
-44.19
-32.94
-20.92
-9.05
2.01
11.82
20.19
27.08
32.62
36.94
40.25
42.67
44.23
44.94
44.75
43.72
42.05
40.04
38.02
36.23
34.74
33.51
32.47
31.53
30.65
29.76
28.76
27.50
25.86
23.81
21.45
18.93
16.36
13.76
11.10
8.30
5.40
2.48
-0.36
-3.04
-5.60
-8.12
-10.74
-13.58
-16.69
-20.03
-23.47
-26.80
-29.86
-32.61
-35.29
-38.35
-42.26
-47.23
-52.99
-58.67
-63.07
-64.99
-63.61
-58.72
-50.73
-40.47
-28.97
-17.22
-5.99
4.22
13.22
20.99
27.62
33.16
37.59
40.81
42.76
43.46
43.05
41.78
39.89
37.65
35.29
33.09
31.34
30.21
29.73
29.72
29.83
29.66
28.98
27.74
26.05
24.12
22.08
19.97
17.74
15.32
12.76
10.14
7.58
5.08
2.59
-0.02
-2.82
-5.78
-8.76
-11.60
-14.23
-16.70
-19.10
-21.57
-24.17
-26.94
-29.94
-33.26
-37.06
-41.43
-46.23
-51.05
-55.15
-57.63
-57.68
-54.77
-48.86
-40.39
-30.20
-19.29
-8.63
1.08
9.46
16.42
22.07
26.53
29.87
32.08
33.16
33.16
32.26
30.75
28.92
27.02
25.21
23.54
22.08
20.90
20.10
19.73
19.73
19.91
19.94
19.51
18.40
16.57
14.15
11.34
8.40
5.49
2.74
0.14
-2.37
-4.89
-7.53
-10.37
-13.39
-16.47
-19.48
-22.29
-24.92
-27.50
-30.24
-33.37
-37.05
-41.33
-46.09
-51.04
-55.62
-59.06
-60.49
-59.16
-54.72
-47.32
-37.62
-26.63
-15.37
-4.69
4.91
13.25
20.33
26.18
30.86
34.37
36.74
38.10
38.57
38.36
37.62
36.45
34.95
33.20
31.36
29.58
28.02
26.78
25.87
25.23
24.72
24.18
23.42
22.26
20.57
18.33
15.62
12.65
9.66
6.89
4.41
2.18
-0.01
-2.40
-5.17
-8.37
-11.94
-15.70
-19.46
-23.04
-26.35
-29.37
-32.19
-35.00
-38.09
-41.78
-46.27
-51.45
-56.85
-61.56
-64.53
-64.77
-61.69
-55.25
-45.98
-34.79
-22.74
-10.81
0.27
10.03
18.28
25.05
30.49
34.80
38.17
40.71
42.43
43.28
43.22
42.28
40.62
38.53
36.36
34.43
32.92
31.85
31.09
30.45
29.76
28.93
27.92
26.73
25.34
23.74
21.91
19.88
17.67
15.34
12.88
10.29
7.54
4.63
1.62
-1.43
-4.43
-7.36
-10.24
-13.19
-16.24
-19.40
-22.55
-25.58
-28.42
-31.20
-34.19
-37.74
-42.07
-47.11
-52.34
-56.93
-59.87
-60.31
-57.73
-52.12
-43.94
-33.97
-23.15
-12.35
-2.21
6.87
14.76
21.44
26.91
31.09
33.88
35.24
35.24
34.16
32.41
30.40
28.50
26.91
25.71
24.87
24.35
24.08
23.97
23.92
23.81
23.54
23.02
22.19
20.98
19.32
17.18
14.60
11.69
8.62
5.57
2.62
-0.22
-3.01
-5.84
-8.77
-11.79
-14.89
-17.99
-21.01
-23.89
-26.59
-29.19
-31.87
-34.90
-38.53
-42.91
-47.93
-53.16
-57.90
-61.23
-62.22
-60.20
-54.91
-46.66
-36.19
-24.53
-12.70
-1.53
8.49
17.15
24.40
30.25
34.67
37.65
39.22
39.54
38.91
37.66
36.13
34.54
33.01
31.54
30.16
28.89
27.83
27.05
26.56
26.23
25.82
25.05
23.71
21.69
19.05
16.00
12.83
9.82
7.11
4.71
2.41
-0.03
-2.87
-6.20
-9.95
-13.90
-17.79
-21.39
-24.61
-27.43
-29.97
-32.41
-35.04
-38.19
-42.18
-47.10
-52.61
-57.95
-61.99
-63.57
-61.81
-56.46
-47.92
-37.17
-25.37
-13.58
-2.53
7.48
16.40
24.28
31.08
36.67
40.89
43.66
45.06
45.32
44.78
43.72
42.37
40.84
39.21
37.54
35.89
34.32
32.85
31.49
30.23
29.05
27.93
26.82
25.57
23.98
21.87
19.17
16.01
12.66
9.43
6.50
3.82
1.16
-1.78
-5.13
-8.84
-12.66
-16.33
-19.67
-22.67
-25.51
-28.41
-31.60
-35.23
-39.41
-44.15
-49.30
-54.50
-59.06
-62.10
-62.71
-60.24
-54.50
-45.89
-35.22
-23.55
-11.85
-0.85
9.04
17.61
24.78
30.53
34.84
37.75
39.38
39.91
39.56
38.52
37.01
35.21
33.33
31.57
30.06
28.85
27.91
27.16
26.49
25.81
25.05
24.13
22.92
21.31
19.25
16.77
14.02
11.21
8.48
5.87
3.30
0.61
-2.33
-5.59
-9.14
-12.85
-16.55
-20.06
-23.26
-26.17
-28.94
-31.88
-35.30
-39.48
-44.39
-49.64
-54.45
-57.84
-58.82
-56.75
-51.50
-43.45
-33.43
-22.43
-11.40
-1.04
8.23
16.21
22.86
28.15
32.08
34.66
35.96
36.15
35.47
34.16
32.41
30.32
27.99
25.52
23.11
21.03
19.51
18.64
18.27
18.04
17.52
16.42
14.68
12.46
10.08
7.73
5.43
3.03
0.26
-3.03
-6.81
-10.86
-14.88
-18.64
-22.05
-25.20
-28.28
-31.48
-35.04
-39.18
-44.07
-49.72
-55.74
-61.32
-65.28
-66.44
-63.98
-57.80
-48.53
-37.24
-25.13
-13.18
-1.98
8.15
17.07
24.71
30.97
35.83
39.31
41.53
42.66
42.89
42.38
41.28
39.73
37.82
35.65
33.38
31.21
29.36
28.05
27.31
26.99
26.72
26.08
24.73
22.58
19.76
16.55
13.26
10.02
6.79
3.42
-0.27
-4.34
-8.69
-13.11
-17.36
-21.26
-24.81
-28.15
-31.59
-35.46
-40.04
-45.38
-51.24
-57.06
-62.00
-65.14
-65.63
-62.91
-56.89
-47.95
-36.84
-24.56
-12.08
-0.17
10.68
20.26
28.51
35.49
41.22
45.70
48.93
50.93
51.79
51.62
50.61
48.92
46.75
44.30
41.82
39.56
37.68
36.26
35.20
34.32
33.37
32.09
30.36
28.16
25.56
22.70
19.69
16.63
13.56
10.48
7.33
4.03
0.47
-3.39
-7.53
-11.79
-15.96
-19.85
-23.34
-26.52
-29.69
-33.25
-37.58
-42.91
-49.09
-55.69
-61.92
-66.86
-69.57
-69.29
-65.61
-58.57
-48.65
-36.72
-23.81
-10.93
1.15
11.90
21.14
28.86
35.17
40.17
43.92
46.43
47.72
47.83
46.91
45.21
43.03
40.73
38.59
36.78
35.34
34.21
33.27
32.41
31.54
30.54
29.30
27.67
25.54
22.89
19.82
16.50
13.14
9.88
6.70
3.50
0.15
-3.47
-7.32
-11.23
-15.01
-18.45
-21.52
-24.34
-27.17
-30.32
-34.05
-38.51
-43.68
-49.34
-55.07
-60.15
-63.74
-64.95
-63.07
-57.81
-49.41
-38.58
-26.31
-13.65
-1.45
9.73
19.55
27.81
34.38
39.17
42.22
43.69
43.89
43.18
41.86
40.15
38.18
36.01
33.75
31.55
29.62
28.08
26.98
26.23
25.63
24.92
23.81
22.09
19.66
16.58
13.07
9.42
5.87
2.56
-0.59
-3.74
-7.13
-10.87
-14.94
-19.17
-23.28
-27.08
-30.52
-33.77
-37.14
-41.00
-45.63
-51.11
-57.20
-63.35
-68.72
-72.32
-73.18
-70.57
-64.20
-54.38
-41.92
-28.02
-13.91
-0.62
11.22
21.36
29.82
36.77
42.33
46.60
49.64
51.56
52.46
52.50
51.78
50.43
48.56
46.32
43.92
41.55
39.38
37.50
35.90
34.51
33.24
31.96
30.53
28.79
26.65
24.08
21.13
17.95
14.69
11.43
8.18
4.90
1.53
-1.96
-5.58
-9.32
-13.14
-17.03
-20.94
-24.83
-28.68
-32.48
-36.30
-40.24
-44.46
-49.13
-54.40
-60.21
-66.19
-71.61
-75.41
-76.48
-73.93
-67.44
-57.39
-44.76
-30.82
-16.79
-3.57
8.33
18.73
27.60
34.97
40.91
45.50
48.83
51.02
52.15
52.27
51.43
49.73
47.33
44.51
41.58
38.87
36.62
34.94
33.77
32.93
32.13
31.12
29.75
27.99
25.89
23.55
21.01
18.30
15.39
12.33
9.18
6.03
2.92
-0.19
-3.36
-6.69
-10.20
-13.85
-17.55
-21.22
-24.77
-28.19
-31.51
-34.84
-38.33
-42.20
-46.63
-51.63
-56.95
-61.99
-65.94
-67.86
-66.98
-62.86
-55.56
-45.58
-33.75
-21.02
-8.30
3.65
14.30
23.34
30.63
36.13
39.87
41.96
42.58
42.01
40.61
38.77
36.80
34.92
33.22
31.67
30.22
28.80
27.42
26.11
24.90
23.80
22.72
21.46
19.82
17.66
15.01
12.03
8.95
5.95
3.05
0.15
-2.90
-6.25
-9.89
-13.70
-17.50
-21.08
-24.35
-27.28
-29.98
-32.64
-35.57
-39.06
-43.37
-48.58
-54.48
-60.52
-65.85
-69.45
-70.33
-67.81
-61.72
-52.43
-40.78
-27.87
-14.76
-2.35
8.80
18.46
26.58
33.25
38.56
42.56
45.31
46.89
47.46
47.20
46.31
44.93
43.16
41.08
38.78
36.36
33.98
31.78
29.86
28.23
26.80
25.41
23.87
22.02
19.79
17.20
14.36
11.42
8.52
5.70
2.95
0.17
-2.76
-5.99
-9.59
-13.56
-17.73
-21.86
-25.69
-29.04
-31.99
-34.80
-37.90
-41.69
-46.44
-52.08
-58.17
-63.94
-68.34
-70.33
-69.09
-64.25
-55.99
-45.04
-32.45
-19.36
-6.76
4.72
14.78
23.41
30.70
36.76
41.60
45.20
47.56
48.69
48.73
47.86
46.31
44.30
42.03
39.70
37.49
35.57
34.02
32.85
31.93
31.03
29.94
28.45
26.51
24.16
21.54
18.79
15.99
13.16
10.25
7.19
3.98
0.61
-2.87
-6.43
-10.04
-13.69
-17.37
-21.01
-24.53
-27.89
-31.11
-34.33
-37.79
-41.81
-46.56
-52.00
-57.74
-63.08
-67.09
-68.84
-67.58
-62.98
-55.19
-44.83
-32.81
-20.15
-7.72
3.81
14.06
22.83
30.04
35.67
39.70
42.19
43.28
43.24
42.34
40.86
38.98
36.85
34.56
32.27
30.17
28.48
27.35
26.78
26.59
26.46
26.01
24.96
23.16
20.66
17.67
14.46
11.33
8.49
5.95
3.57
1.10
-1.73
-5.05
-8.79
-12.71
-16.52
-19.99
-23.07
-25.84
-28.55
-31.47
-34.85
-38.91
-43.74
-49.21
-54.84
-59.79
-62.95
-63.28
-60.15
-53.55
-44.13
-32.94
-21.09
-9.47
1.31
10.91
19.11
25.76
30.78
34.25
36.40
37.56
38.03
37.99
37.48
36.47
35.01
33.20
31.26
29.42
27.85
26.66
25.85
25.32
24.84
24.12
22.86
20.84
18.07
14.74
11.20
7.78
4.66
1.80
-1.01
-4.02
-7.40
-11.14
-15.07
-18.98
-22.65
-26.00
-29.03
-31.88
-34.74
-37.92
-41.70
-46.32
-51.75
-57.60
-63.08
-67.08
-68.53
-66.62
-61.11
-52.38
-41.30
-28.97
-16.41
-4.40
6.59
16.29
24.57
31.36
36.64
40.47
43.02
44.47
45.05
44.92
44.16
42.85
41.08
39.02
36.86
34.78
32.91
31.29
29.90
28.65
27.48
26.26
24.83
23.02
20.73
17.99
14.99
12.00
9.22
6.70
4.24
1.54
-1.65
-5.40
-9.48
-13.56
-17.26
-20.43
-23.15
-25.72
-28.50
-31.83
-35.89
-40.74
-46.23
-52.02
-57.50
-61.80
-63.94
-63.10
-58.85
-51.37
-41.37
-29.88
-17.94
-6.37
4.34
13.93
22.28
29.27
34.79
38.82
41.43
42.83
43.29
43.05
42.28
41.05
39.39
37.39
35.18
33.00
31.05
29.49
28.35
27.55
26.92
26.27
25.38
24.11
22.34
20.08
17.44
14.60
11.73
8.91
6.08
3.12
-0.08
-3.52
-7.10
-10.66
-14.08
-17.31
-20.40
-23.41
-26.41
-29.47
-32.72
-36.32
-40.45
-45.09
-49.95
-54.34
-57.37
-58.08
-55.79
-50.33
-42.13
-32.03
-21.10
-10.25
-0.11
9.04
17.09
23.94
29.41
33.28
35.45
36.03
35.36
33.93
32.15
30.30
28.49
26.74
25.14
23.83
22.99
22.65
22.67
22.75
22.50
21.63
20.05
17.86
15.31
12.66
10.09
7.61
5.10
2.38
-0.67
-4.07
-7.73
-11.50
-15.24
-18.88
-22.38
-25.74
-28.98
-32.18
-35.51
-39.21
-43.46
-48.28
-53.27
-57.70
-60.56
-60.90
-58.08
-52.02
-43.23
-32.58
-21.11
-9.75
0.86
10.36
18.59
25.51
31.12
35.42
38.45
40.32
41.23
41.41
41.05
40.27
39.13
37.62
35.72
33.53
31.25
29.13
27.42
26.24
25.48
24.81
23.87
22.36
20.22
17.61
14.80
12.04
9.42
6.89
4.26
1.34
-1.96
-5.63
-9.51
-13.39
-17.05
-20.40
-23.46
-26.43
-29.55
-33.11
-37.28
-42.09
-47.32
-52.53
-57.06
-60.09
-60.81
-58.58
-53.20
-44.90
-34.38
-22.59
-10.54
0.91
11.19
20.01
27.34
33.28
38.01
41.64
44.24
45.82
46.40
46.04
44.89
43.15
41.06
38.84
36.65
34.56
32.65
30.95
29.47
28.21
27.07
25.90
24.51
22.73
20.47
17.82
14.94
12.06
9.34
6.78
4.25
1.54
-1.50
-4.90
-8.53
-12.17
-15.62
-18.79
-21.71
-24.54
-27.46
-30.62
-34.09
-37.98
-42.36
-47.25
-52.48
-57.58
-61.71
-63.90
-63.24
-59.25
-52.05
-42.33
-31.14
-19.61
-8.59
1.37
10.11
17.61
23.90
28.98
32.76
35.22
36.40
36.51
35.80
34.58
33.05
31.34
29.55
27.72
26.00
24.53
23.44
22.76
22.40
22.17
21.81
21.06
19.79
17.98
15.74
13.22
10.55
7.83
5.02
2.05
-1.12
-4.52
-8.09
-11.70
-15.20
-18.45
-21.42
-24.15
-26.82
-29.68
-33.02
-37.05
-41.85
-47.29
-52.97
-58.20
-62.09
-63.72
-62.32
-57.55
-49.60
-39.20
-27.40
-15.32
-3.84
6.51
15.52
23.15
29.44
34.38
37.94
40.15
41.12
41.05
40.27
39.07
37.71
36.35
35.02
33.68
32.28
30.84
29.45
28.25
27.32
26.60
25.86
24.79
23.11
20.75
17.85
14.72
11.66
8.78
6.01
3.17
0.12
-3.21
-6.75
-10.46
-14.30
-18.31
-22.50
-26.78
-30.98
-34.93
-38.57
-42.09
-45.88
-50.32
-55.57
-61.35
-66.90
-71.14
-72.90
-71.32
-66.07
-57.46
-46.31
-33.72
-20.73
-8.15
3.54
14.13
23.50
31.54
38.12
43.12
46.55
48.55
49.36
49.28
48.55
47.34
45.76
43.91
41.92
39.97
38.19
36.68
35.46
34.47
33.60
32.70
31.58
30.07
28.00
25.35
22.20
18.76
15.20
11.69
8.27
4.91
1.56
-1.85
-5.38
-9.07
-12.89
-16.80
-20.67
-24.36
-27.79
-30.98
-34.09
-37.43
-41.33
-46.03
-51.58
-57.70
-63.73
-68.71
-71.52
-71.20
-67.21
-59.61
-49.01
-36.40
-22.87
-9.38
3.35
14.84
24.80
33.09
39.71
44.76
48.40
50.81
52.15
52.55
52.14
51.04
49.34
47.16
44.58
41.76
38.90
36.24
33.97
32.19
30.87
29.84
28.90
27.87
26.64
25.14
23.30
21.06
18.39
15.31
11.94
8.43
4.92
1.47
-2.00
-5.61
-9.44
-13.49
-17.64
-21.72
-25.61
-29.31
-32.96
-36.75
-40.90
-45.55
-50.75
-56.37
-62.06
-67.25
-71.13
-72.82
-71.55
-66.92
-58.99
-48.31
-35.78
-22.42
-9.18
3.20
14.22
23.61
31.25
37.19
41.53
44.36
45.79
45.96
45.06
43.40
41.36
39.30
37.46
35.93
34.64
33.49
32.40
31.39
30.47
29.55
28.46
26.94
24.82
22.10
18.96
15.69
12.55
9.64
6.89
4.11
1.11
-2.24
-5.98
-10.04
-14.28
-18.55
-22.64
-26.44
-29.92
-33.23
-36.64
-40.52
-45.16
-50.66
-56.79
-63.00
-68.35
-71.76
-72.22
-69.10
-62.33
-52.46
-40.44
-27.38
-14.18
-1.51
10.28
20.94
30.23
37.90
43.77
47.81
50.22
51.29
51.40
50.80
49.62
47.94
45.81
43.36
40.75
38.23
35.93
33.94
32.26
30.83
29.57
28.34
26.96
25.20
22.87
19.88
16.29
12.37
8.41
4.69
1.30
-1.82
-4.89
-8.11
-11.62
-15.41
-19.40
-23.44
-27.41
-31.25
-34.98
-38.74
-42.73
-47.21
-52.35
-58.07
-63.97
-69.22
-72.79
-73.61
-70.94
-64.61
-55.02
-43.07
-29.80
-16.18
-2.97
9.37
20.49
30.11
38.01
44.01
48.11
50.50
51.46
51.36
50.46
48.98
47.04
44.77
42.35
39.96
37.74
35.76
34.01
32.42
30.94
29.52
28.09
26.53
24.66
22.30
19.37
15.98
12.38
8.87
5.61
2.56
-0.54
-3.96
-7.84
-12.06
-16.28
-20.16
-23.51
-26.42
-29.17
-32.14
-35.64
-39.86
-44.84
-50.49
-56.52
-62.35
-67.14
-69.91
-69.77
-66.20
-59.24
-49.40
-37.60
-24.80
-11.92
0.35
11.51
21.25
29.40
35.90
40.74
44.06
46.04
46.92
46.99
46.48
45.57
44.35
42.85
41.09
39.17
37.23
35.48
34.06
32.97
32.12
31.27
30.16
28.57
26.37
23.57
20.26
16.62
12.82
9.01
5.24
1.49
-2.28
-6.11
-10.00
-13.90
-17.78
-21.58
-25.30
-28.97
-32.71
-36.69
-41.11
-46.16
-51.84
-57.85
-63.53
-67.89
-69.82
-68.41
-63.26
-54.56
-43.13
-30.12
-16.71
-3.82
8.01
18.53
27.64
35.24
41.14
45.22
47.47
48.16
47.68
46.46
44.79
42.79
40.45
37.81
35.03
32.41
30.23
28.66
27.65
27.00
26.46
25.76
24.73
23.25
21.24
18.68
15.66
12.34
8.90
5.51
2.26
-0.91
-4.09
-7.39
-10.85
-14.41
-17.98
-21.45
-24.76
-27.93
-31.06
-34.34
-38.02
-42.29
-47.16
-52.28
-56.93
-60.14
-60.87
-58.44
-52.65
-43.94
-33.17
-21.37
-9.50
1.79
12.05
20.99
28.38
33.99
37.69
39.48
39.57
38.34
36.24
33.68
31.00
28.39
25.98
23.90
22.27
21.17
20.63
20.54
20.66
20.66
20.21
19.07
17.20
14.74
11.99
9.24
6.70
4.38
2.15
-0.22
-2.93
-6.06
-9.54
-13.17
-16.73
-20.03
-23.04
-25.80
-28.50
-31.38
-34.73
-38.78
-43.61
-49.05
-54.56
-59.25
-62.08
-62.12
-58.83
-52.22
-42.85
-31.64
-19.63
-7.71
3.46
13.47
22.08
29.14
34.62
38.50
40.87
41.89
41.79
40.83
39.25
37.28
35.08
32.79
30.54
28.44
26.63
25.20
24.19
23.48
22.83
21.92
20.45
18.30
15.56
12.50
9.43
6.56
3.89
1.28
-1.49
-4.57
-8.03
-11.78
-15.69
-19.60
-23.32
-26.73
-29.80
-32.71
-35.82
-39.57
-44.27
-49.88
-55.88
-61.28
-64.90
-65.67
-62.90
-56.50
-47.00
-35.36
-22.75
-10.27
1.28
11.44
20.11
27.38
33.38
38.20
41.84
44.29
45.54
45.70
44.92
43.42
41.45
39.20
36.86
34.59
32.54
30.85
29.59
28.74
28.14
27.53
26.61
25.11
22.91
20.08
16.79
13.28
9.76
6.37
3.15
0.05
-3.02
-6.18
-9.49
-12.92
-16.40
-19.83
-23.14
-26.30
-29.40
-32.58
-36.04
-40.01
-44.62
-49.86
-55.33
-60.35
-63.96
-65.17
-63.26
-57.99
-49.66
-39.01
-27.01
-14.65
-2.71
8.23
17.90
26.21
33.21
39.02
43.66
47.10
49.26
50.12
49.80
48.56
46.72
44.53
42.15
39.67
37.17
34.85
32.92
31.57
30.79
30.36
29.91
29.12
27.80
25.96
23.75
21.34
18.80
16.17
13.44
10.63
7.81
5.06
2.42
-0.19
-2.90
-5.83
-9.07
-12.57
-16.18
-19.72
-23.01
-25.98
-28.68
-31.30
-34.09
-37.35
-41.31
-46.02
-51.26
-56.49
-60.94
-63.66
-63.81
-60.84
-54.64
-45.66
-34.74
-22.93
-11.21
-0.35
9.27
17.48
24.30
29.73
33.75
36.34
37.51
37.46
36.47
34.89
33.03
31.08
29.14
27.29
25.62
24.23
23.25
22.71
22.57
22.63
22.63
22.36
21.62
20.35
18.56
16.32
13.72
10.89
7.96
5.05
2.23
-0.54
-3.31
-6.21
-9.30
-12.54
-15.78
-18.81
-21.47
-23.74
-25.75
-27.80
-30.24
-33.36
-37.35
-42.11
-47.33
-52.37
-56.46
-58.75
-58.49
-55.20
-48.84
-39.81
-28.97
-17.37
-6.04
4.26
13.16
20.59
26.65
31.38
34.77
36.72
37.28
36.66
35.28
33.58
31.90
30.38
29.00
27.71
26.48
25.30
24.24
23.28
22.38
21.47
20.52
19.53
18.46
17.26
15.77
13.87
11.51
8.72
5.69
2.62
-0.31
-3.01
-5.49
-7.91
-10.43
-13.21
-16.31
-19.64
-23.01
-26.23
-29.13
-31.72
-34.14
-36.62
-39.47
-42.91
-47.03
-51.73
-56.61
-60.93
-63.76
-64.10
-61.24
-54.97
-45.66
-34.20
-21.73
-9.33
2.17
12.30
20.90
28.04
33.83
38.42
41.90
44.28
45.58
45.83
45.11
43.61
41.59
39.27
36.89
34.59
32.52
30.80
29.52
28.69
28.18
27.72
26.99
25.76
23.97
21.73
19.25
16.70
14.15
11.57
8.90
6.16
3.46
0.93
-1.36
-3.49
-5.66
-8.10
-10.94
-14.19
-17.74
-21.34
-24.80
-27.95
-30.77
-33.38
-36.05
-39.12
-42.89
-47.46
-52.59
-57.61
-61.58
-63.46
-62.47
-58.29
-51.15
-41.68
-30.76
-19.23
-7.88
2.74
12.17
20.11
26.40
31.06
34.25
36.19
37.12
37.20
36.57
35.36
33.73
31.91
30.14
28.60
27.36
26.43
25.73
25.22
24.83
24.48
24.08
23.50
22.62
21.36
19.67
17.52
14.93
11.91
8.58
5.11
1.71
-1.45
-4.31
-6.97
-9.63
-12.46
-15.49
-18.61
-21.62
-24.37
-26.88
-29.32
-31.95
-35.05
-38.79
-43.20
-48.17
-53.41
-58.43
-62.54
-64.90
-64.70
-61.37
-54.78
-45.34
-33.90
-21.56
-9.36
1.94
11.94
20.51
27.71
33.60
38.21
41.54
43.61
44.52
44.41
43.44
41.81
39.71
37.39
35.09
33.09
31.56
30.57
30.04
29.77
29.55
29.18
28.50
27.43
25.94
24.05
21.86
19.49
17.05
14.55
11.99
9.31
6.51
3.62
0.72
-2.13
-4.94
-7.77
-10.70
-13.82
-17.16
-20.70
-24.34
-27.99
-31.51
-34.84
-38.02
-41.26
-44.91
-49.27
-54.43
-60.03
-65.25
-68.96
-70.02
-67.64
-61.63
-52.38
-40.76
-27.79
-14.48
-1.64
10.15
20.50
29.17
36.07
41.26
44.87
47.15
48.36
48.72
48.42
47.55
46.14
44.24
41.93
39.40
36.90
34.70
33.00
31.82
31.00
30.27
29.37
28.14
26.57
24.78
22.88
20.90
18.80
16.48
13.89
11.06
8.10
5.18
2.38
-0.34
-3.13
-6.15
-9.49
-13.06
-16.64
-19.97
-22.87
-25.38
-27.71
-30.19
-33.10
-36.66
-40.93
-45.82
-51.09
-56.21
-60.44
-62.78
-62.34
-58.47
-51.14
-40.94
-28.97
-16.50
-4.65
5.86
14.75
22.06
27.94
32.56
35.94
38.11
39.07
38.91
37.82
36.03
33.83
31.43
29.09
26.98
25.25
23.99
23.20
22.81
22.67
22.57
22.26
21.49
20.10
18.06
15.48
12.58
9.65
6.92
4.45
2.16
-0.19
-2.84
-5.96
-9.55
-13.49
-17.56
-21.55
-25.27
-28.66
-31.73
-34.64
-37.67
-41.14
-45.30
-50.18
-55.45
-60.35
-63.81
-64.74
-62.28
-56.16
-46.71
-34.86
-21.83
-8.81
3.26
13.86
22.81
30.18
36.10
40.72
44.10
46.35
47.57
47.90
47.49
46.47
44.93
42.99
40.78
38.51
36.41
34.67
33.35
32.41
31.66
30.92
30.01
28.82
27.32
25.47
23.29
20.77
17.94
14.86
11.65
8.42
5.27
2.23
-0.74
-3.73
-6.86
-10.19
-13.74
-17.40
-21.03
-24.45
-27.58
-30.46
-33.26
-36.25
-39.71
-43.82
-48.65
-54.00
-59.44
-64.24
-67.47
-68.19
-65.67
-59.66
-50.44
-38.85
-26.02
-13.12
-1.11
9.43
18.31
25.62
31.58
36.35
40.00
42.48
43.72
43.72
42.64
40.80
38.58
36.30
34.20
32.39
30.93
29.78
28.93
28.30
27.75
27.11
26.23
25.02
23.47
21.62
19.55
17.31
14.90
12.29
9.47
6.47
3.38
0.28
-2.78
-5.85
-8.96
-12.16
-15.39
-18.54
-21.51
-24.26
-26.91
-29.60
-32.56
-36.01
-40.09
-44.85
-50.11
-55.42
-60.02
-62.97
-63.32
-60.50
-54.38
-45.38
-34.35
-22.27
-10.11
1.40
11.71
20.56
27.81
33.48
37.67
40.49
42.10
42.63
42.26
41.16
39.50
37.49
35.33
33.22
31.35
29.86
28.79
28.10
27.67
27.33
26.91
26.29
25.36
24.04
22.27
20.03
17.35
14.36
11.23
8.12
5.13
2.24
-0.67
-3.73
-7.03
-10.56
-14.25
-17.99
-21.68
-25.23
-28.61
-31.80
-34.85
-37.90
-41.19
-45.02
-49.64
-55.09
-61.02
-66.66
-70.94
-72.75
-71.24
-66.01
-57.30
-45.84
-32.69
-19.02
-5.86
6.01
16.13
24.40
30.97
36.14
40.19
43.30
45.50
46.74
46.98
46.28
44.82
42.87
40.65
38.41
36.33
34.58
33.28
32.47
32.05
31.76
31.33
30.51
29.20
27.42
25.29
22.91
20.29
17.43
14.33
11.07
7.77
4.57
1.52
-1.45
-4.52
-7.85
-11.53
-15.50
-19.60
-23.64
-27.45
-30.96
-34.19
-37.24
-40.34
-43.81
-47.93
-52.86
-58.41
-63.95
-68.50
-70.93
-70.27
-66.02
-58.28
-47.68
-35.21
-21.95
-8.85
3.38
14.29
23.62
31.28
37.30
41.72
44.69
46.39
47.11
47.13
46.71
45.96
44.88
43.39
41.45
39.17
36.85
34.85
33.46
32.76
32.52
32.37
31.91
30.85
29.14
26.91
24.36
21.72
19.11
16.56
14.00
11.32
8.45
5.41
2.26
-0.88
-3.91
-6.87
-9.87
-13.05
-16.50
-20.16
-23.85
-27.36
-30.57
-33.50
-36.34
-39.39
-42.94
-47.22
-52.24
-57.77
-63.21
-67.69
-70.18
-69.75
-65.84
-58.46
-48.17
-35.91
-22.76
-9.71
2.48
13.30
22.46
29.85
35.53
39.70
42.60
44.49
45.51
45.75
45.24
44.05
42.33
40.28
38.19
36.31
34.81
33.80
33.22
32.94
32.72
32.34
31.59
30.36
28.66
26.60
24.31
21.94
19.59
17.24
14.85
12.33
9.61
6.69
3.66
0.63
-2.31
-5.16
-8.02
-11.02
-14.29
-17.79
-21.39
-24.85
-28.00
-30.80
-33.37
-36.03
-39.15
-43.04
-47.81
-53.31
-59.02
-64.14
-67.67
-68.65
-66.37
-60.61
-51.70
-40.45
-27.97
-15.35
-3.49
7.06
16.05
23.45
29.32
33.73
36.76
38.49
39.09
38.72
37.61
35.95
33.96
31.86
29.88
28.21
26.99
26.27
25.93
25.78
25.58
25.16
24.46
23.47
22.27
20.87
19.28
17.39
15.12
12.44
9.40
6.16
2.91
-0.22
-3.21
-6.12
-9.08
-12.16
-15.35
-18.55
-21.68
-24.70
-27.69
-30.84
-34.36
-38.47
-43.26
-48.67
-54.36
-59.71
-63.85
-65.82
-64.82
-60.40
-52.66
-42.22
-30.08
-17.38
-5.17
5.80
15.12
22.72
28.71
33.30
36.68
39.01
40.42
41.02
40.93
40.26
39.16
37.73
36.09
34.32
32.56
30.91
29.47
28.28
27.31
26.45
25.57
24.52
23.18
21.47
19.34
16.81
13.92
10.79
7.58
4.37
1.21
-2.01
-5.37
-8.95
-12.72
-16.54
-20.26
-23.78
-27.07
-30.20
-33.29
-36.48
-39.97
-43.95
-48.56
-53.74
-59.11
-63.91
-67.17
-67.91
-65.45
-59.59
-50.70
-39.58
-27.26
-14.75
-2.86
7.90
17.23
25.06
31.40
36.31
39.93
42.40
43.88
44.53
44.48
43.85
42.73
41.28
39.65
38.01
36.51
35.26
34.32
33.65
33.16
32.64
31.87
30.67
28.92
26.65
23.96
21.01
17.96
14.93
11.95
9.03
6.07
2.95
-0.46
-4.18
-8.12
-12.01
-15.61
-18.77
-21.53
-24.16
-27.04
-30.57
-35.06
-40.58
-46.92
-53.47
-59.27
-63.17
-64.08
-61.38
-55.05
-45.75
-34.55
-22.64
-10.99
-0.24
9.28
17.43
24.20
29.58
33.60
36.28
37.69
37.95
37.28
35.93
34.14
32.15
30.08
28.02
26.03
24.25
22.84
21.90
21.41
21.18
20.91
20.25
19.01
17.14
14.78
12.14
9.39
6.60
3.74
0.69
-2.62
-6.17
-9.80
-13.31
-16.50
-19.29
-21.76
-24.11
-26.66
-29.72
-33.50
-38.08
-43.28
-48.65
-53.47
-56.82
-57.82
-55.83
-50.62
-42.48
-32.18
-20.69
-9.04
1.92
11.63
19.82
26.41
31.46
35.06
37.27
38.15
37.77
36.30
34.03
31.36
28.71
26.38
24.50
23.03
21.82
20.78
19.88
19.11
18.40
17.56
16.30
14.41
11.85
8.83
5.68
2.65
-0.20
-3.01
-6.00
-9.35
-13.11
-17.16
-21.30
-25.34
-29.14
-32.72
-36.24
-40.01
-44.42
-49.66
-55.59
-61.58
-66.51
-69.10
-68.25
-63.44
-54.86
-43.36
-30.11
-16.35
-3.04
9.15
19.82
28.76
35.82
40.98
44.30
46.02
46.51
46.11
45.13
43.69
41.83
39.54
36.92
34.16
31.51
29.21
27.41
26.13
25.27
24.69
24.21
23.63
22.76
21.47
19.70
17.45
14.80
11.83
8.54
4.90
0.85
-3.64
-8.47
-13.46
-18.39
-23.07
-27.49
-31.79
-36.32
-41.45
-47.46
-54.31
-61.55
-68.23
-73.15
-75.09
-73.20
-67.27
-57.71
-45.50
-31.81
-17.76
-4.21
8.31
19.55
29.41
37.90
44.99
50.68
54.94
57.79
59.26
59.48
58.63
56.98
54.78
52.27
49.66
47.13
44.83
42.89
41.38
40.28
39.40
38.41
36.91
34.54
31.16
26.90
22.22
17.67
13.70
10.46
7.79
5.24
2.36
-1.16
-5.32
-9.89
-14.55
-18.96
-22.97
-26.60
-30.04
-33.66
-37.92
-43.29
-50.06
-58.08
-66.64
-74.50
-80.08
-81.98
-79.32
-72.06
-61.00
-47.48
-32.99
-18.83
-5.84
5.60
15.47
23.91
31.12
37.17
42.05
45.68
48.01
49.05
48.95
47.91
46.22
44.15
41.93
39.78
37.87
36.31
35.15
34.36
33.75
33.07
32.05
30.51
28.38
25.76
22.85
19.85
16.90
14.03
11.15
8.15
4.96
1.54
-2.04
-5.71
-9.41
-13.06
-16.57
-19.83
-22.78
-25.41
-27.85
-30.43
-33.55
-37.57
-42.62
-48.44
-54.37
-59.45
-62.59
-62.86
-59.70
-52.99
-43.13
-30.95
-17.54
-4.04
8.54
19.54
28.65
35.94
41.70
46.24
49.77
52.34
53.85
54.21
53.44
51.77
49.61
47.42
45.54
44.08
42.86
41.45
39.26
35.67
30.23
22.74
13.49
3.26
-6.80
-15.41
-21.61
-25.06
-26.07
-25.51
-24.30
-23.21
-22.60
-22.58
-23.16
-24.36
-26.28
-28.85
-31.83
-34.72
-36.99
-38.30
-38.67
-38.48
-38.34
-38.95
-40.76
-43.89
-48.02
-52.38
-55.98
-57.76
-56.89
-52.96
-46.00
-36.45
-25.04
-12.60
-0.00
11.96
22.63
31.52
38.43
43.37
46.62
48.53
49.40
49.50
48.94
47.78
46.04
43.77
41.06
38.10
35.16
32.49
30.31
28.72
27.64
26.88
26.15
25.19
23.78
21.84
19.35
16.44
13.31
10.15
7.19
4.50
2.03
-0.39
-2.96
-5.81
-8.96
-12.28
-15.63
-18.88
-22.01
-25.10
-28.31
-31.80
-35.75
-40.28
-45.38
-50.86
-56.20
-60.65
-63.30
-63.31
-60.14
-53.68
-44.35
-32.99
-20.63
-8.30
3.18
13.31
21.88
28.90
34.49
38.75
41.75
43.56
44.22
43.84
42.60
40.68
38.31
35.70
33.04
30.54
28.36
26.63
25.39
24.58
24.03
23.50
22.73
21.52
19.76
17.51
14.92
12.19
9.54
7.10
4.91
2.89
0.91
-1.20
-3.60
-6.34
-9.41
-12.73
-16.21
-19.79
-23.42
-27.03
-30.51
-33.85
-37.07
-40.39
-44.04
-48.16
-52.52
-56.43
-58.86
-58.73
-55.31
-48.50
-38.93
-27.69
-16.00
-4.82
5.28
14.10
21.58
27.66
32.13
34.81
35.68
35.01
33.36
31.31
29.35
27.62
26.00
24.32
22.49
20.62
18.96
17.77
17.15
17.02
17.14
17.22
16.94
16.08
14.50
12.23
9.44
6.37
3.33
0.48
-2.16
-4.71
-7.36
-10.27
-13.45
-16.77
-20.06
-23.13
-25.90
-28.47
-31.02
-33.80
-37.06
-40.91
-45.37
-50.25
-55.20
-59.60
-62.63
-63.43
-61.26
-55.81
-47.33
-36.59
-24.70
-12.73
-1.51
8.50
17.13
24.30
29.97
34.08
36.65
37.87
38.01
37.42
36.37
35.05
33.54
31.89
30.19
28.55
27.12
26.00
25.16
24.52
23.89
23.11
22.06
20.69
18.98
16.94
14.60
11.94
8.97
5.72
2.26
-1.23
-4.58
-7.66
-10.46
-13.10
-15.83
-18.83
-22.16
-25.71
-29.26
-32.67
-35.97
-39.41
-43.32
-47.97
-53.32
-59.00
-64.25
-68.18
-69.86
-68.59
-64.03
-56.28
-45.90
-33.75
-20.88
-8.30
3.19
13.12
21.27
27.64
32.35
35.56
37.45
38.26
38.30
37.84
37.12
36.21
35.04
33.45
31.37
28.88
26.32
24.12
22.72
22.31
22.83
23.92
25.12
26.02
26.32
25.90
24.76
23.01
20.78
18.23
15.53
12.83
10.15
7.42
4.51
1.26
-2.35
-6.24
-10.23
-14.11
-17.77
-21.24
-24.72
-28.49
-32.85
-37.91
-43.59
-49.43
-54.70
-58.50
-59.99
-58.57
-54.06
-46.71
-37.12
-26.08
-14.40
-2.84
7.99
17.61
25.67
31.97
36.46
39.25
40.52
40.57
39.59
37.82
35.42
32.62
29.67
26.88
24.49
22.68
21.50
20.88
20.68
20.64
20.48
19.91
18.71
16.82
14.33
11.44
8.37
5.25
2.07
-1.23
-4.69
-8.28
-11.92
-15.46
-18.82
-21.98
-24.97
-27.89
-30.88
-34.17
-38.01
-42.65
-48.08
-53.95
-59.46
-63.54
-65.06
-63.17
-57.58
-48.59
-37.01
-23.93
-10.45
2.49
14.23
24.37
32.73
39.27
44.03
47.14
48.72
48.98
48.15
46.52
44.34
41.86
39.24
36.61
34.12
31.90
30.07
28.64
27.50
26.42
25.16
23.46
21.23
18.48
15.33
11.95
8.45
4.85
1.07
-2.98
-7.38
-12.02
-16.67
-21.02
-24.86
-28.22
-31.40
-34.89
-39.11
-44.30
-50.30
-56.57
-62.26
-66.38
-67.98
-66.32
-61.08
-52.41
-40.98
-27.78
-13.96
-0.52
11.80
22.59
31.75
39.29
45.30
49.79
52.77
54.26
54.33
53.16
50.99
48.11
44.84
41.47
38.27
35.48
33.23
31.51
30.18
29.01
27.70
26.01
23.82
21.10
17.96
14.55
11.02
7.49
3.96
0.32
-3.56
-7.78
-12.29
-16.95
-21.55
-25.94
-30.18
-34.47
-39.11
-44.31
-50.09
-56.17
-61.93
-66.51
-68.92
-68.28
-64.04
-56.17
-45.19
-32.08
-18.01
-4.12
8.73
20.05
29.68
37.63
44.03
48.95
52.45
54.55
55.33
54.93
53.53
51.36
48.61
45.44
42.04
38.64
35.52
32.90
30.91
29.45
28.28
27.05
25.47
23.41
20.90
18.08
15.10
12.04
8.85
5.46
1.74
-2.34
-6.72
-11.24
-15.73
-20.03
-24.08
-27.95
-31.84
-36.01
-40.74
-46.18
-52.22
-58.42
-63.99
-67.86
-68.97
-66.52
-60.22
-50.35
-37.76
-23.62
-9.17
4.53
16.72
26.97
35.19
41.42
45.84
48.66
50.09
50.36
49.66
48.14
45.90
43.04
39.69
36.07
32.45
29.11
26.27
23.98
22.14
20.56
18.98
17.22
15.18
12.82
10.12
7.05
3.60
-0.21
-4.31
-8.55
-12.71
-16.57
-19.94
-22.77
-25.21
-27.59
-30.34
-33.88
-38.43
-43.82
-49.50
-54.53
-57.78
-58.22
-55.17
-48.49
-38.61
-26.47
-13.27
-0.19
11.82
22.17
30.61
37.11
41.79
44.77
46.18
46.18
45.00
42.89
40.12
36.92
33.49
29.97
26.48
23.14
20.09
17.46
15.33
13.71
12.53
11.59
10.64
9.37
7.52
4.99
1.83
-1.78
-5.55
-9.23
-12.71
-16.02
-19.33
-22.89
-26.95
-31.65
-37.02
-42.82
-48.59
-53.60
-57.02
-58.05
-56.11
-50.97
-42.84
-32.30
-20.24
-7.68
4.39
15.17
24.19
31.28
36.54
40.22
42.60
43.94
44.40
44.08
43.05
41.35
39.04
36.21
33.01
29.65
26.40
23.46
20.96
18.90
17.17
15.57
13.93
12.06
9.85
7.20
4.07
0.53
-3.30
-7.20
-10.94
-14.34
-17.33
-20.02
-22.59
-25.30
-28.38
-32.02
-36.32
-41.22
-46.40
-51.25
-54.82
-56.06
-54.14
-48.68
-39.97
-28.91
-16.69
-4.53
6.64
16.27
24.17
30.33
34.88
37.97
39.73
40.33
39.91
38.61
36.57
33.94
30.90
27.70
24.59
21.83
19.60
18.01
17.02
16.45
16.03
15.46
14.48
12.97
10.94
8.58
6.10
3.69
1.40
-0.93
-3.51
-6.53
-9.97
-13.63
-17.17
-20.34
-23.05
-25.48
-28.00
-31.01
-34.77
-39.28
-44.20
-48.84
-52.27
-53.51
-51.83
-46.91
-39.02
-28.98
-17.91
-6.98
2.89
11.14
17.58
22.26
25.36
27.05
27.50
26.85
25.27
23.03
20.45
17.87
15.58
13.75
12.38
11.39
10.63
9.98
9.37
8.75
8.08
7.28
6.27
4.97
3.35
1.44
-0.71
-3.09
-5.71
-8.58
-11.66
-14.81
-17.82
-20.48
-22.66
-24.43
-26.10
-28.12
-30.89
-34.56
-38.90
-43.21
-46.51
-47.79
-46.36
-42.04
-35.17
-26.50
-16.94
-7.34
1.64
9.60
16.30
21.66
25.71
28.50
30.14
30.72
30.35
29.15
27.32
25.11
22.82
20.68
18.86
17.39
16.19
15.18
14.28
13.44
12.64
11.80
10.81
9.55
7.88
5.71
3.03
-0.08
-3.49
-7.05
-10.60
-13.98
-17.09
-19.96
-22.72
-25.65
-29.05
-33.16
-38.00
-43.19
-48.03
-51.60
-53.01
-51.60
-47.19
-40.02
-30.70
-20.05
-8.91
1.95
11.90
20.52
27.58
32.98
36.77
39.12
40.27
40.49
40.00
38.99
37.53
35.61
33.21
30.47
27.61
24.97
22.78
21.00
19.40
17.61
15.34
12.59
9.64
6.85
4.49
2.56
0.79
-1.17
-3.61
-6.56
-9.87
-13.23
-16.40
-19.25
-21.89
-24.62
-27.78
-31.65
-36.26
-41.28
-46.04
-49.64
-51.14
-49.79
-45.29
-37.85
-28.13
-17.11
-5.83
4.84
14.34
22.46
29.22
34.75
39.16
42.46
44.57
45.44
45.07
43.61
41.32
38.50
35.43
32.31
29.31
26.60
24.32
22.56
21.30
20.36
19.49
18.42
16.94
14.98
12.61
9.96
7.19
4.43
1.73
-0.91
-3.59
-6.40
-9.38
-12.50
-15.63
-18.66
-21.52
-24.22
-26.86
-29.57
-32.50
-35.84
-39.78
-44.41
-49.55
-54.69
-58.86
-60.96
-59.99
-55.47
-47.61
-37.21
-25.45
-13.47
-2.15
7.98
16.72
24.06
30.05
34.75
38.18
40.38
41.41
41.36
40.37
38.58
36.23
33.57
30.87
28.36
26.21
24.48
23.15
22.08
21.13
20.13
18.94
17.49
15.76
13.79
11.65
9.40
7.09
4.74
2.36
-0.05
-2.51
-5.08
-7.81
-10.73
-13.79
-16.85
-19.77
-22.46
-25.03
-27.70
-30.81
-34.66
-39.36
-44.77
-50.43
-55.60
-59.44
-61.09
-59.92
-55.65
-48.41
-38.79
-27.60
-15.75
-4.08
6.79
16.45
24.65
31.27
36.25
39.66
41.61
42.29
41.93
40.76
38.93
36.61
33.93
31.08
28.27
25.72
23.63
22.10
21.07
20.40
19.89
19.29
18.39
17.03
15.05
12.42
9.27
5.86
2.53
-0.37
-2.69
-4.49
-5.98
-7.51
-9.29
-11.45
-13.90
-16.48
-18.98
-21.30
-23.49
-25.74
-28.38
-31.73
-35.97
-40.95
-46.11
-50.56
-53.29
-53.46
-50.64
-44.91
-36.79
-27.04
-16.50
-5.95
3.97
12.73
19.99
25.58
29.55
32.12
33.62
34.33
34.46
34.03
33.03
31.46
29.45
27.21
25.01
23.05
21.41
20.11
19.10
18.37
17.86
17.56
17.35
17.07
16.50
15.44
13.76
11.45
8.58
5.30
1.74
-1.95
-5.71
-9.45
-13.13
-16.72
-20.20
-23.59
-26.91
-30.22
-33.61
-37.23
-41.29
-45.92
-51.09
-56.44
-61.29
-64.75
-65.96
-64.33
-59.69
-52.34
-42.87
-31.95
-20.30
-8.55
2.73
12.97
21.71
28.63
33.62
36.73
38.17
38.21
37.07
34.98
32.11
28.75
25.25
22.01
19.43
17.73
16.90
16.72
16.85
16.96
16.80
16.30
15.52
14.50
13.31
11.92
10.33
8.54
6.63
4.67
2.76
0.89
-1.00
-3.03
-5.30
-7.89
-10.83
-14.14
-17.82
-21.78
-25.76
-29.29
-31.64
-32.01
-29.77
-24.70
-17.14
-7.91
1.90
11.31
19.58
26.33
31.45
34.88
36.61
36.64
35.09
32.27
28.69
24.92
21.47
18.64
16.51
14.97
13.80
12.78
11.80
10.81
9.85
8.94
8.03
6.97
5.53
3.54
0.93
-2.16
-5.50
-8.83
-12.01
-15.01
-17.97
-21.05
-24.39
-28.05
-32.04
-36.29
-40.66
-44.82
-48.19
-50.03
-49.54
-46.12
-39.60
-30.37
-19.28
-7.46
4.04
14.43
23.27
30.43
35.87
39.59
41.56
41.82
40.60
38.33
35.54
32.76
30.30
28.25
26.48
24.79
23.07
21.34
19.70
18.27
17.10
16.06
14.94
13.45
11.36
8.59
5.20
1.38
-2.60
-6.55
-10.38
-14.13
-17.99
-22.14
-26.74
-31.81
-37.11
-42.16
-46.28
-48.68
-48.67
-45.87
-40.29
-32.36
-22.81
-12.50
-2.22
7.38
15.81
22.73
27.94
31.36
33.04
33.21
32.17
30.27
27.82
25.05
22.15
19.27
16.53
14.06
11.95
10.25
8.93
7.92
7.09
6.24
5.15
3.65
1.63
-0.89
-3.78
-6.86
-9.94
-12.97
-15.98
-19.14
-22.63
-26.57
-30.89
-35.32
-39.26
-41.92
-42.49
-40.30
-35.08
-27.08
-17.01
-5.86
5.28
15.49
24.14
30.88
35.67
38.64
40.06
40.23
39.41
37.84
35.68
33.08
30.20
27.21
24.24
21.37
18.65
16.09
13.73
11.61
9.77
8.13
6.57
4.88
2.87
0.46
-2.35
-5.41
-8.61
-11.84
-15.09
-18.43
-21.96
-25.77
-29.90
-34.26
-38.59
-42.42
-45.09
-45.91
-44.29
-39.96
-33.04
-24.06
-13.80
-3.14
7.15
16.42
24.24
30.32
34.54
36.92
37.60
36.81
34.85
32.07
28.82
25.45
22.22
19.29
16.71
14.38
12.18
10.03
7.95
6.08
4.53
3.28
2.08
0.56
-1.57
-4.42
-7.77
-11.23
-14.41
-17.12
-19.48
-21.83
-24.55
-27.95
-32.06
-36.66
-41.24
-45.11
-47.46
-47.55
-44.86
-39.26
-31.11
-21.15
-10.35
0.34
10.12
18.46
25.07
29.88
33.02
34.74
35.36
35.21
34.53
33.47
32.05
30.26
28.13
25.75
23.28
20.86
18.60
16.47
14.42
12.43
10.48
8.61
6.84
5.09
3.24
1.12
-1.37
-4.27
-7.44
-10.73
-13.93
-16.93
-19.74
-22.53
-25.61
-29.29
-33.73
-38.81
-44.05
-48.64
-51.65
-52.27
-50.01
-44.84
-37.13
-27.56
-16.94
-6.08
4.32
13.73
21.74
28.12
32.82
35.97
37.82
38.65
38.72
38.14
36.97
35.20
32.93
30.34
27.72
25.32
23.32
21.72
20.41
19.20
17.92
16.48
14.90
13.20
11.40
9.46
7.27
4.72
1.78
-1.45
-4.79
-7.97
-10.77
-13.12
-15.11
-16.96
-18.97
-21.38
-24.39
-28.06
-32.41
-37.32
-42.51
-47.52
-51.64
-54.01
-53.82
-50.56
-44.22
-35.30
-24.76
-13.68
-3.01
6.58
14.79
21.58
27.04
31.28
34.34
36.27
37.07
36.85
35.72
33.91
31.68
29.25
26.85
24.62
22.65
21.03
19.76
18.84
18.13
17.43
16.47
15.03
13.02
10.57
7.92
5.40
3.20
1.35
-0.35
-2.21
-4.48
-7.27
-10.48
-13.84
-17.07
-19.96
-22.49
-24.78
-27.01
-29.39
-32.14
-35.47
-39.46
-44.05
-48.84
-53.11
-55.89
-56.25
-53.59
-47.80
-39.35
-29.07
-17.94
-6.86
3.53
12.77
20.60
26.88
31.60
34.80
36.63
37.27
36.94
35.85
34.21
32.26
30.21
28.29
26.62
25.24
24.10
23.14
22.29
21.53
20.84
20.09
19.15
17.88
16.21
14.24
12.17
10.18
8.33
6.53
4.55
2.18
-0.66
-3.86
-7.16
-10.31
-13.13
-15.62
-17.90
-20.21
-22.76
-25.72
-29.19
-33.18
-37.66
-42.42
-47.07
-51.00
-53.45
-53.70
-51.27
-46.09
-38.48
-29.11
-18.78
-8.29
1.69
10.68
18.32
24.42
28.96
32.02
33.77
34.39
34.06
32.95
31.29
29.28
27.16
25.12
23.29
21.80
20.71
20.05
19.79
19.80
19.89
19.84
19.41
18.45
16.89
14.78
12.30
9.68
7.11
4.69
2.35
-0.08
-2.78
-5.82
-9.10
-12.42
-15.52
-18.28
-20.73
-23.01
-25.38
-28.03
-31.17
-34.87
-39.01
-43.29
-47.11
-49.67
-50.10
-47.77
-42.44
-34.41
-24.47
-13.68
-3.06
6.62
14.96
21.82
27.22
31.15
33.55
34.39
33.72
31.82
29.13
26.17
23.40
21.09
19.35
18.13
17.36
16.97
16.93
17.16
17.53
17.85
17.85
17.27
15.95
13.87
11.22
8.26
5.28
2.40
-0.41
-3.37
-6.66
-10.37
-14.38
-18.44
-22.24
-25.62
-28.57
-31.28
-34.07
-37.26
-41.11
-45.65
-50.73
-55.88
-60.42
-63.45
-64.12
-61.71
-55.94
-47.01
-35.66
-22.95
-10.08
1.95
12.46
21.19
28.20
33.66
37.76
40.60
42.22
42.67
42.11
40.77
38.94
36.86
34.72
32.60
30.59
28.79
27.35
26.38
25.90
25.74
25.57
25.02
23.82
21.89
19.35
16.45
13.43
10.46
7.52
4.47
1.16
-2.57
-6.71
-11.12
-15.55
-19.68
-23.36
-26.64
-29.82
-33.35
-37.68
-42.98
-49.09
-55.40
-60.99
-64.79
-65.80
-63.33
-57.19
-47.74
-35.85
-22.67
-9.38
3.08
14.11
23.46
31.10
37.14
41.68
44.82
46.64
47.25
46.76
45.36
43.29
40.83
38.31
36.02
34.15
32.75
31.77
31.03
30.36
29.64
28.73
27.52
25.92
23.86
21.31
18.39
15.25
12.05
8.90
5.80
2.68
-0.58
-4.07
-7.82
-11.76
-15.77
-19.69
-23.39
-26.82
-30.09
-33.44
-37.19
-41.64
-46.88
-52.64
-58.31
-62.96
-65.53
-65.14
-61.25
-53.87
-43.52
-31.12
-17.76
-4.51
7.83
18.75
28.02
35.64
41.66
46.15
49.15
50.69
50.88
49.93
48.19
46.05
43.86
41.86
40.14
38.67
37.39
36.21
35.09
33.99
32.88
31.72
30.43
28.96
27.26
25.26
22.94
20.29
17.38
14.33
11.30
8.39
5.62
2.88
0.00
-3.15
-6.61
-10.28
-14.00
-17.61
-21.03
-24.29
-27.51
-30.88
-34.59
-38.83
-43.70
-49.11
-54.72
-59.91
-63.84
-65.59
-64.39
-59.80
-51.88
-41.18
-28.67
-15.48
-2.72
8.81
18.64
26.64
32.91
37.59
40.76
42.52
42.94
42.19
40.52
38.24
35.71
33.24
31.06
29.35
28.17
27.50
27.23
27.18
27.14
26.93
26.39
25.47
24.17
22.52
20.56
18.33
15.80
12.98
9.93
6.78
3.75
1.01
-1.38
-3.57
-5.81
-8.37
-11.37
-14.72
-18.21
-21.56
-24.64
-27.47
-30.25
-33.27
-36.77
-40.91
-45.64
-50.60
-55.16
-58.41
-59.35
-57.20
-51.58
-42.73
-31.45
-18.85
-6.11
5.79
16.17
24.67
31.14
35.59
38.16
39.12
38.81
37.62
35.92
33.99
32.00
30.07
28.28
26.75
25.59
24.88
24.62
24.71
24.94
25.10
24.96
24.40
23.35
21.82
19.89
17.64
15.16
12.52
9.80
7.11
4.56
2.22
0.09
-1.94
-3.99
-6.22
-8.72
-11.47
-14.38
-17.32
-20.17
-22.92
-25.67
-28.61
-31.96
-35.93
-40.58
-45.81
-51.25
-56.33
-60.35
-62.56
-62.31
-59.22
-53.18
-44.48
-33.76
-21.96
-10.06
1.02
10.64
18.48
24.57
29.06
32.17
34.00
34.65
34.20
32.86
30.94
28.79
26.70
24.85
23.31
22.06
21.09
20.38
19.95
19.79
19.85
20.02
20.15
20.07
19.58
18.56
16.97
14.90
12.52
10.03
7.57
5.16
2.76
0.27
-2.36
-5.10
-7.86
-10.50
-12.94
-15.15
-17.18
-19.18
-21.34
-23.92
-27.23
-31.53
-36.92
-43.12
-49.44
-54.81
-58.01
-58.07
-54.48
-47.42
-37.67
-26.29
-14.45
-3.08
7.15
15.87
22.93
28.33
32.20
34.73
36.15
36.65
36.36
35.40
33.90
32.02
30.01
28.12
26.58
25.48
24.84
24.57
24.50
24.47
24.31
23.86
23.01
21.68
19.90
17.76
15.39
12.89
10.31
7.61
4.75
1.75
-1.28
-4.21
-6.96
-9.57
-12.19
-14.99
-18.02
-21.20
-24.30
-27.16
-29.77
-32.35
-35.27
-38.89
-43.42
-48.77
-54.55
-60.04
-64.38
-66.58
-65.88
-61.81
-54.47
-44.44
-32.71
-20.38
-8.37
2.69
12.55
21.10
28.33
34.17
38.55
41.48
43.10
43.69
43.53
42.82
41.66
40.04
38.01
35.71
33.40
31.41
30.00
29.26
29.07
29.17
29.22
28.94
28.15
26.84
25.09
23.05
20.87
18.61
16.28
13.81
11.17
8.35
5.43
2.50
-0.29
-2.86
-5.24
-7.56
-10.05
-12.90
-16.19
-19.82
-23.53
-27.03
-30.11
-32.81
-35.37
-38.20
-41.71
-46.09
-51.23
-56.59
-61.35
-64.52
-65.19
-62.75
-57.08
-48.55
-37.91
-26.12
-14.13
-2.75
7.45
16.11
23.05
28.31
32.01
34.39
35.70
36.16
35.92
35.06
33.62
31.72
29.54
27.36
25.51
24.27
23.75
23.86
24.35
24.86
25.09
24.83
24.02
22.76
21.20
19.52
17.85
16.29
14.84
13.43
11.89
10.02
7.70
4.91
1.79
-1.48
-4.72
-7.87
-10.98
-14.15
-17.43
-20.78
-24.09
-27.26
-30.24
-33.12
-36.05
-39.24
-42.88
-47.08
-51.82
-56.84
-61.58
-65.18
-66.66
-65.18
-60.31
-52.19
-41.51
-29.28
-16.58
-4.38
6.66
16.13
23.89
29.96
34.49
37.70
39.83
41.07
41.57
41.42
40.71
39.52
37.99
36.30
34.61
33.04
31.72
30.75
30.20
30.08
30.28
30.54
30.55
30.02
28.77
26.84
24.44
21.85
19.33
17.02
14.88
12.78
10.57
8.17
5.57
2.89
0.27
-2.20
-4.54
-6.90
-9.49
-12.51
-16.01
-19.89
-23.88
-27.69
-31.12
-34.14
-36.93
-39.80
-43.08
-47.08
-51.87
-57.29
-62.79
-67.55
-70.53
-70.74
-67.51
-60.72
-50.87
-38.92
-26.05
-13.35
-1.58
8.84
17.76
25.14
30.99
35.36
38.34
40.09
40.83
40.76
40.05
38.85
37.26
35.44
33.61
31.97
30.74
30.03
29.84
30.00
30.26
30.32
29.97
29.12
27.84
26.25
24.51
22.67
20.69
18.50
16.03
13.26
10.24
7.08
3.93
0.96
-1.75
-4.18
-6.49
-8.87
-11.54
-14.57
-17.86
-21.20
-24.38
-27.30
-30.02
-32.74
-35.72
-39.19
-43.24
-47.75
-52.30
-56.21
-58.64
-58.76
-56.01
-50.24
-41.77
-31.30
-19.73
-8.00
3.06
12.79
20.78
26.88
31.16
33.85
35.23
35.54
35.00
33.77
32.03
30.03
27.99
26.15
24.63
23.50
22.75
22.34
22.19
22.21
22.30
22.32
22.17
21.74
20.88
19.44
17.32
14.52
11.25
7.85
4.66
1.92
-0.37
-2.46
-4.64
-7.19
-10.20
-13.60
-17.20
-20.81
-24.26
-27.43
-30.35
-33.13
-35.98
-39.21
-43.10
-47.82
-53.27
-59.06
-64.44
-68.46
-70.14
-68.72
-63.87
-55.81
-45.20
-33.04
-20.39
-8.17
2.96
12.62
20.70
27.23
32.34
36.17
38.87
40.53
41.27
41.16
40.34
38.98
37.31
35.55
33.93
32.59
31.60
30.98
30.66
30.55
30.51
30.36
29.91
28.98
27.45
25.37
22.88
20.20
17.53
14.93
12.38
9.81
7.20
4.55
1.86
-0.91
-3.89
-7.22
-10.95
-15.04
-19.26
-23.40
-27.25
-30.80
-34.19
-37.68
-41.58
-46.13
-51.41
-57.22
-62.99
-67.80
-70.56
-70.29
-66.40
-58.91
-48.44
-36.05
-22.94
-10.20
1.42
11.53
20.05
27.15
32.98
37.72
41.42
44.09
45.74
46.37
46.11
45.15
43.72
42.08
40.46
39.02
37.87
36.97
36.25
35.57
34.82
33.93
32.88
31.67
30.29
28.70
26.87
24.77
22.43
19.84
17.05
14.09
11.06
8.07
5.20
2.48
-0.20
-3.02
-6.18
-9.76
-13.68
-17.75
-21.81
-25.75
-29.59
-33.43
-37.33
-41.37
-45.67
-50.37
-55.60
-61.23
-66.73
-71.10
-73.11
-71.69
-66.34
-57.36
-45.71
-32.71
-19.61
-7.26
3.85
13.58
21.93
28.91
34.52
38.83
41.93
43.99
45.20
45.71
45.60
44.94
43.78
42.25
40.53
38.87
37.46
36.43
35.77
35.35
34.94
34.33
33.34
31.97
30.26
28.34
26.34
24.25
22.02
19.57
16.81
13.78
10.58
7.38
4.30
1.39
-1.42
-4.27
-7.34
-10.73
-14.45
-18.37
-22.31
-26.11
-29.66
-33.00
-36.32
-39.84
-43.85
-48.54
-53.91
-59.68
-65.20
-69.51
-71.56
-70.41
-65.61
-57.32
-46.29
-33.66
-20.60
-8.09
3.23
13.09
21.44
28.34
33.89
38.18
41.32
43.40
44.54
44.82
44.35
43.25
41.68
39.91
38.20
36.82
35.85
35.22
34.71
34.10
33.27
32.26
31.19
30.13
29.03
27.67
25.85
23.46
20.57
17.41
14.24
11.21
8.37
5.67
3.03
0.42
-2.22
-4.99
-7.99
-11.32
-14.98
-18.83
-22.67
-26.27
-29.54
-32.59
-35.70
-39.26
-43.56
-48.67
-54.31
-59.79
-64.11
-66.20
-65.17
-60.58
-52.59
-41.95
-29.76
-17.22
-5.34
5.24
14.25
21.75
27.93
33.00
37.06
40.09
42.02
42.81
42.58
41.57
40.10
38.53
37.08
35.87
34.90
34.13
33.51
33.04
32.66
32.27
31.72
30.84
29.54
27.78
25.66
23.27
20.72
18.07
15.35
12.59
9.86
7.20
4.69
2.33
0.10
-2.09
-4.39
-6.90
-9.72
-12.87
-16.30
-19.89
-23.47
-26.93
-30.26
-33.61
-37.18
-41.21
-45.75
-50.57
-55.07
-58.39
-59.61
-57.94
-53.08
-45.21
-34.98
-23.36
-11.35
0.16
10.46
19.10
25.83
30.62
33.59
35.04
35.32
34.78
33.71
32.30
30.68
28.97
27.31
25.83
24.66
23.90
23.58
23.63
23.92
24.22
24.28
23.89
22.95
21.51
19.69
17.66
15.52
13.30
10.96
8.45
5.78
2.98
0.16
-2.60
-5.29
-7.93
-10.60
-13.38
-16.32
-19.45
-22.69
-25.96
-29.12
-32.05
-34.75
-37.31
-40.02
-43.23
-47.24
-52.09
-57.40
-62.43
-66.12
-67.44
-65.59
-60.31
-51.84
-40.97
-28.76
-16.34
-4.69
5.58
14.26
21.40
27.24
31.99
35.70
38.34
39.89
40.39
40.07
39.20
38.06
36.80
35.48
34.13
32.84
31.72
30.90
30.40
30.10
29.77
29.14
27.99
26.31
24.21
21.89
19.57
17.34
15.17
12.95
10.57
8.03
5.39
2.76
0.16
-2.49
-5.31
-8.43
-11.88
-15.55
-19.24
-22.73
-25.83
-28.52
-30.94
-33.41
-36.36
-40.14
-44.83
-50.10
-55.18
-58.98
-60.44
-58.83
-53.94
-46.12
-36.14
-24.99
-13.58
-2.70
7.11
15.52
22.42
27.85
31.92
34.78
36.55
37.32
37.15
36.20
34.67
32.78
30.76
28.77
26.96
25.43
24.25
23.49
23.08
22.91
22.77
22.41
21.68
20.52
18.96
17.10
15.02
12.76
10.38
7.87
5.26
2.62
-0.03
-2.64
-5.19
-7.74
-10.33
-13.01
-15.73
-18.40
-20.94
-23.28
-25.47
-27.70
-30.25
-33.42
-37.37
-42.03
-47.04
-51.70
-55.11
-56.35
-54.71
-49.87
-42.03
-31.85
-20.36
-8.66
2.24
11.62
19.15
24.78
28.67
31.09
32.28
32.48
31.91
30.76
29.28
27.64
26.01
24.48
23.08
21.84
20.82
20.09
19.70
19.63
19.78
19.91
19.78
19.13
17.80
15.77
13.18
10.28
7.35
4.61
2.13
-0.14
-2.41
-4.93
-7.87
-11.27
-14.98
-18.69
-22.10
-24.98
-27.34
-29.43
-31.67
-34.52
-38.27
-42.95
-48.26
-53.57
-58.08
-60.89
-61.24
-58.57
-52.79
-44.27
-33.82
-22.52
-11.44
-1.33
7.46
14.94
21.31
26.69
31.07
34.35
36.46
37.47
37.58
37.05
36.06
34.71
33.07
31.27
29.56
28.17
27.25
26.76
26.55
26.36
25.99
25.32
24.28
22.82
20.91
18.57
15.88
13.04
10.26
7.70
5.37
3.17
0.90
-1.62
-4.51
-7.78
-11.35
-15.06
-18.70
-22.13
-25.28
-28.28
-31.34
-34.80
-38.96
-43.96
-49.64
-55.48
-60.58
-63.88
-64.40
-61.57
-55.39
-46.44
-35.69
-24.20
-12.85
-2.28
7.21
15.50
22.60
28.54
33.30
36.86
39.19
40.33
40.41
39.67
38.41
36.91
35.37
33.88
32.50
31.29
30.32
29.63
29.18
28.83
28.39
27.69
26.62
25.19
23.42
21.38
19.13
16.68
14.06
11.31
8.49
5.64
2.84
0.08
-2.66
-5.43
-8.31
-11.31
-14.38
-17.41
-20.32
-23.10
-25.92
-29.02
-32.69
-37.07
-42.17
-47.74
-53.35
-58.38
-62.09
-63.66
-62.44
-58.02
-50.48
-40.38
-28.65
-16.36
-4.47
6.31
15.61
23.34
29.56
34.41
38.05
40.63
42.25
42.99
42.93
42.19
40.89
39.21
37.34
35.44
33.65
32.08
30.78
29.76
29.02
28.44
27.89
27.19
26.19
24.81
23.07
21.05
18.89
16.68
14.45
12.16
9.73
7.17
4.53
1.92
-0.56
-2.91
-5.20
-7.57
-10.13
-12.86
-15.68
-18.43
-20.98
-23.28
-25.48
-27.84
-30.71
-34.40
-38.99
-44.20
-49.32
-53.36
-55.26
-54.29
-50.18
-43.25
-34.21
-23.99
-13.43
-3.27
6.00
14.01
20.50
25.37
28.62
30.37
30.86
30.33
29.07
27.36
25.47
23.67
22.13
20.95
20.13
19.63
19.41
19.45
19.71
20.12
20.47
20.52
19.99
18.74
16.78
14.28
11.51
8.74
6.15
3.76
1.49
-0.81
-3.30
-6.06
-9.10
-12.34
-15.60
-18.69
-21.47
-23.89
-26.08
-28.34
-31.00
-34.40
-38.65
-43.63
-48.85
-53.59
-57.00
-58.23
-56.69
-52.15
-44.82
-35.35
-24.62
-13.60
-3.13
6.24
14.26
20.91
26.29
30.48
33.52
35.44
36.32
36.34
35.76
34.85
33.75
32.55
31.27
29.94
28.71
27.73
27.10
26.78
26.57
26.20
25.47
24.29
22.75
20.94
18.93
16.68
14.11
11.20
8.04
4.83
1.80
-0.92
-3.36
-5.68
-8.14
-10.93
-14.13
-17.63
-21.19
-24.57
-27.62
-30.37
-33.04
-36.02
-39.68
-44.23
-49.55
-55.11
-60.05
-63.33
-64.02
-61.50
-55.68
-46.96
-36.16
-24.30
-12.41
-1.34
8.34
16.42
22.96
28.21
32.44
35.85
38.48
40.27
41.19
41.23
40.54
39.31
37.78
36.17
34.69
33.52
32.75
32.38
32.30
32.25
31.94
31.19
29.88
28.10
26.00
23.77
21.53
19.36
17.24
15.09
12.85
10.45
7.89
5.25
2.60
-0.01
-2.62
-5.34
-8.31
-11.57
-15.08
-18.66
-22.13
-25.31
-28.17
-30.81
-33.42
-36.30
-39.73
-43.91
-48.77
-53.97
-58.81
-62.32
-63.52
-61.66
-56.48
-48.29
-37.86
-26.24
-14.47
-3.47
6.20
14.23
20.61
25.49
29.09
31.61
33.21
33.95
33.91
33.20
31.98
30.46
28.86
27.40
26.20
25.36
24.90
24.75
24.80
24.86
24.72
24.24
23.35
22.10
20.59
18.90
17.06
15.06
12.85
10.44
7.86
5.20
2.52
-0.16
-2.85
-5.57
-8.37
-11.23
-14.14
-17.08
-20.04
-23.02
-26.01
-28.98
-31.91
-34.89
-38.13
-41.93
-46.50
-51.81
-57.35
-62.24
-65.41
-65.89
-63.13
-57.15
-48.45
-37.84
-26.23
-14.46
-3.20
7.04
15.96
23.38
29.29
33.79
37.05
39.30
40.75
41.61
42.00
41.96
41.48
40.52
39.11
37.42
35.76
34.43
33.64
33.36
33.37
33.31
32.83
31.75
30.06
27.90
25.45
22.92
20.46
18.15
16.00
13.92
11.79
9.45
6.88
4.12
1.35
-1.26
-3.65
-5.92
-8.29
-11.04
-14.28
-17.95
-21.77
-25.41
-28.61
-31.37
-33.90
-36.62
-39.93
-44.12
-49.21
-54.87
-60.42
-64.90
-67.26
-66.58
-62.38
-54.76
-44.44
-32.49
-20.12
-8.29
2.35
11.49
19.05
25.07
29.61
32.79
34.73
35.62
35.64
34.94
33.69
32.05
30.21
28.40
26.83
25.70
25.11
25.06
25.45
26.08
26.72
27.12
27.05
26.40
25.13
23.35
21.21
18.89
16.51
14.10
11.64
9.06
6.36
3.57
0.74
-2.10
-4.97
-7.92
-11.05
-14.37
-17.87
-21.44
-24.96
-28.33
-31.51
-34.52
-37.56
-40.89
-44.79
-49.35
-54.31
-59.01
-62.44
-63.53
-61.48
-56.03
-47.56
-36.90
-25.15
-13.30
-2.07
8.09
17.00
24.52
30.59
35.19
38.39
40.33
41.25
41.38
40.89
39.89
38.47
36.77
35.02
33.43
32.19
31.36
30.87
30.53
30.16
29.60
28.76
27.63
26.25
24.65
22.86
20.86
18.62
16.13
13.39
10.51
7.62
4.83
2.18
-0.40
-3.04
-5.85
-8.91
-12.15
-15.48
-18.78
-22.05
-25.31
-28.61
-31.97
-35.41
-38.92
-42.60
-46.61
-51.08
-55.94
-60.75
-64.65
-66.59
-65.57
-61.05
-53.11
-42.44
-30.19
-17.53
-5.43
5.47
14.91
22.84
29.34
34.48
38.35
41.04
42.69
43.49
43.59
43.16
42.31
41.09
39.55
37.79
35.99
34.34
33.05
32.21
31.77
31.52
31.20
30.58
29.54
28.10
26.38
24.49
22.51
20.45
18.22
15.75
13.06
10.22
7.40
4.75
2.37
0.26
-1.66
-3.56
-5.58
-7.85
-10.46
-13.44
-16.77
-20.32
-23.91
-27.32
-30.36
-33.02
-35.49
-38.17
-41.52
-45.84
-51.05
-56.55
-61.36
-64.32
-64.43
-61.18
-54.66
-45.46
-34.49
-22.74
-11.06
-0.14
9.57
17.74
24.24
29.03
32.21
33.98
34.62
34.39
33.55
32.28
30.75
29.08
27.41
25.87
24.58
23.65
23.15
23.02
23.16
23.34
23.36
23.07
22.35
21.19
19.61
17.69
15.47
13.02
10.41
7.73
5.01
2.25
-0.59
-3.61
-6.83
-10.22
-13.68
-17.10
-20.35
-23.32
-25.97
-28.33
-30.58
-33.03
-36.05
-39.98
-44.89
-50.52
-56.20
-60.97
-63.81
-63.87
-60.68
-54.24
-45.05
-33.96
-21.98
-10.09
0.94
10.60
18.69
25.22
30.34
34.20
36.90
38.51
39.10
38.80
37.81
36.40
34.84
33.33
31.98
30.81
29.83
29.00
28.36
27.93
27.64
27.30
26.69
25.56
23.82
21.51
18.83
16.01
13.22
10.51
7.87
5.23
2.57
-0.17
-3.03
-6.09
-9.43
-13.07
-16.94
-20.86
-24.59
-28.01
-31.12
-34.16
-37.48
-41.47
-46.31
-51.87
-57.62
-62.72
-66.14
-66.92
-64.40
-58.36
-49.15
-37.60
-24.89
-12.28
-0.78
9.04
17.14
23.83
29.51
34.43
38.58
41.71
43.62
44.28
43.88
42.76
41.26
39.57
37.79
35.97
34.24
32.78
31.77
31.27
31.15
31.15
30.95
30.29
29.05
27.24
24.99
22.46
19.76
16.96
14.09
11.19
8.28
5.39
2.52
-0.35
-3.30
-6.36
-9.54
-12.80
-16.04
-19.17
-22.15
-25.02
-27.92
-31.02
-34.49
-38.48
-43.04
-48.03
-53.05
-57.38
-60.12
-60.36
-57.45
-51.31
-42.41
-31.67
-20.19
-8.92
1.52
10.79
18.78
25.41
30.53
34.04
35.92
36.39
35.81
34.63
33.24
31.84
30.54
29.31
28.10
26.94
25.88
25.02
24.45
24.17
24.10
24.00
23.58
22.58
20.88
18.57
15.88
13.11
10.46
7.97
5.57
3.05
0.23
-2.96
-6.49
-10.17
-13.76
-17.03
-19.88
-22.33
-24.61
-27.03
-29.96
-33.66
-38.26
-43.65
-49.43
-54.93
-59.27
-61.53
-60.95
-57.14
-50.22
-40.76
-29.67
-17.91
-6.34
4.44
14.05
22.30
29.09
34.34
38.02
40.20
41.05
40.80
39.74
38.12
36.15
33.97
31.78
29.76
28.14
27.03
26.44
26.19
26.03
25.67
24.90
23.65
21.96
19.94
17.71
15.35
12.89
10.37
7.81
5.28
2.80
0.42
-1.94
-4.39
-7.08
-10.09
-13.39
-16.83
-20.22
-23.40
-26.33
-29.13
-32.02
-35.28
-39.18
-43.88
-49.34
-55.21
-60.76
-64.96
-66.69
-65.07
-59.74
-50.98
-39.68
-27.05
-14.26
-2.21
8.59
17.96
25.92
32.52
37.82
41.81
44.57
46.21
46.91
46.86
46.21
45.06
43.50
41.66
39.75
38.02
36.70
35.89
35.52
35.40
35.26
34.86
34.02
32.71
30.98
28.97
26.82
24.60
22.32
19.89
17.21
14.22
10.98
7.65
4.44
1.54
-1.04
-3.43
-5.85
-8.56
-11.68
-15.19
-18.95
-22.73
-26.36
-29.73
-32.92
-36.09
-39.51
-43.44
-48.04
-53.23
-58.59
-63.39
-66.67
-67.47
-65.12
-59.44
-50.77
-39.88
-27.78
-15.49
-3.87
6.47
15.21
22.27
27.74
31.79
34.63
36.45
37.39
37.60
37.21
36.34
35.11
33.69
32.22
30.85
29.71
28.91
28.48
28.44
28.67
28.99
29.14
28.85
27.92
26.30
24.11
21.61
19.08
16.73
14.57
12.46
10.20
7.65
4.84
1.92
-0.94
-3.61
-6.13
-8.67
-11.43
-14.58
-18.11
-21.89
-25.67
-29.20
-32.32
-35.03
-37.45
-39.88
-42.63
-46.01
-50.13
-54.84
-59.63
-63.75
-66.28
-66.40
-63.53
-57.52
-48.66
-37.67
-25.52
-13.27
-1.80
8.27
16.70
23.55
29.04
33.39
36.77
39.21
40.73
41.39
41.29
40.62
39.53
38.18
36.67
35.18
33.87
32.94
32.47
32.39
32.49
32.47
32.08
31.19
29.83
28.13
26.26
24.31
22.33
20.34
18.32
16.29
14.26
12.14
9.85
7.32
4.56
1.68
-1.13
-3.75
-6.18
-8.64
-11.37
-14.60
-18.36
-22.49
-26.68
-30.66
-34.26
-37.49
-40.51
-43.59
-47.06
-51.17
-56.06
-61.56
-67.18
-72.07
-75.20
-75.59
-72.61
-66.13
-56.56
-44.76
-31.80
-18.78
-6.59
4.15
13.18
20.55
26.51
31.37
35.39
38.70
41.29
43.11
44.08
44.22
43.57
42.27
40.56
38.71
37.05
35.87
35.33
35.42
35.92
36.50
36.81
36.55
35.60
33.98
31.80
29.28
26.61
23.98
21.46
19.01
16.54
13.94
11.15
8.18
5.13
2.09
-0.84
-3.68
-6.48
-9.33
-12.33
-15.55
-19.00
-22.62
-26.31
-29.90
-33.30
-36.50
-39.71
-43.20
-47.31
-52.16
-57.55
-62.81
-66.91
-68.75
-67.43
-62.61
-54.57
-44.07
-32.20
-20.00
-8.29
2.38
11.77
19.80
26.41
31.60
35.36
37.74
38.90
39.09
38.63
37.80
36.83
35.87
34.97
34.19
33.55
33.09
32.83
32.74
32.73
32.70
32.55
32.18
31.49
30.40
28.85
26.86
24.54
22.01
19.40
16.75
14.04
11.24
8.35
5.44
2.63
0.03
-2.30
-4.44
-6.54
-8.80
-11.42
-14.47
-17.93
-21.66
-25.44
-29.08
-32.47
-35.63
-38.71
-41.97
-45.72
-50.20
-55.42
-61.08
-66.51
-70.72
-72.63
-71.34
-66.45
-58.12
-47.11
-34.50
-21.48
-9.03
2.17
11.81
19.84
26.36
31.53
35.48
38.29
39.97
40.55
40.13
38.93
37.25
35.44
33.76
32.35
31.23
30.34
29.60
28.94
28.37
27.85
27.38
26.88
26.23
25.31
23.96
22.10
19.73
16.92
13.85
10.76
7.83
5.17
2.75
0.42
-2.03
-4.80
-7.95
-11.40
-14.99
-18.48
-21.74
-24.76
-27.69
-30.79
-34.40
-38.82
-44.23
-50.60
-57.50
-64.13
-69.34
-71.92
-70.90
-65.87
-57.14
-45.61
-32.50
-19.01
-6.14
5.50
15.58
23.95
30.59
35.57
39.03
41.15
42.14
42.21
41.55
40.35
38.79
37.05
35.29
33.64
32.23
31.18
30.57
30.42
30.60
30.82
30.66
29.73
27.75
24.75
20.96
16.82
12.69
8.81
5.17
1.63
-2.02
-5.88
-9.94
-14.04
-18.01
-21.70
-25.08
-28.21
-31.21
-34.28
-37.61
-41.43
-45.91
-51.02
-56.42
-61.41
-64.99
-66.16
-64.18
-58.85
-50.50
-39.95
-28.18
-16.15
-4.64
5.80
14.85
22.37
28.40
33.07
36.54
38.97
40.47
41.12
41.03
40.33
39.25
37.99
36.69
35.46
34.32
33.23
32.20
31.24
30.37
29.58
28.81
27.89
26.62
24.81
22.36
19.36
16.04
12.68
9.50
6.59
3.83
1.06
-1.91
-5.14
-8.57
-12.07
-15.50
-18.82
-22.08
-25.34
-28.68
-32.11
-35.59
-39.19
-43.05
-47.42
-52.46
-58.03
-63.55
-68.03
-70.25
-69.18
-64.32
-55.86
-44.64
-31.86
-18.71
-6.18
5.10
14.80
22.80
29.14
33.98
37.51
39.96
41.52
42.32
42.45
41.99
41.07
39.85
38.49
37.08
35.68
34.30
33.00
31.86
31.00
30.45
30.14
29.86
29.33
28.32
26.72
24.54
21.88
18.91
15.73
12.51
9.34
6.34
3.56
0.94
-1.67
-4.46
-7.58
-11.05
-14.73
-18.44
-21.97
-25.23
-28.25
-31.20
-34.33
-37.94
-42.21
-47.11
-52.26
-56.89
-60.01
-60.62
-58.05
-52.16
-43.41
-32.75
-21.30
-10.10
0.11
9.00
16.55
22.94
28.36
32.85
36.33
38.63
39.65
39.48
38.41
36.84
35.16
33.65
32.39
31.33
30.39
29.53
28.76
28.14
27.71
27.41
27.03
26.32
25.00
22.96
20.24
17.07
13.71
10.39
7.20
4.13
1.17
-1.72
-4.55
-7.37
-10.27
-13.39
-16.81
-20.50
-24.30
-28.01
-31.47
-34.67
-37.79
-41.09
-44.87
-49.34
-54.49
-59.97
-65.07
-68.79
-70.04
-68.02
-62.43
-53.60
-42.43
-30.06
-17.56
-5.72
5.01
14.46
22.59
29.37
34.80
38.91
41.84
43.75
44.84
45.29
45.18
44.59
43.60
42.32
40.89
39.46
38.09
36.82
35.62
34.44
33.23
31.94
30.52
28.98
27.31
25.59
23.90
22.36
20.95
19.59
18.10
16.27
14.00
11.30
8.36
5.41
2.62
0.04
-2.43
-5.01
-7.94
-11.34
-15.22
-19.40
-23.63
-27.67
-31.40
-34.87
-38.30
-42.02
-46.30
-51.26
-56.74
-62.24
-66.99
-70.05
-70.52
-67.80
-61.69
-52.55
-41.17
-28.60
-15.89
-3.92
6.72
15.74
23.09
28.86
33.19
36.25
38.21
39.28
39.64
39.45
38.81
37.76
36.36
34.69
32.92
31.28
29.98
29.15
28.79
28.71
28.69
28.43
27.74
26.49
24.70
22.52
20.10
17.67
15.36
13.19
11.10
8.96
6.68
4.24
1.71
-0.82
-3.29
-5.71
-8.21
-10.89
-13.81
-16.93
-20.11
-23.18
-26.04
-28.67
-31.19
-33.85
-36.93
-40.66
-45.12
-50.10
-55.06
-59.19
-61.53
-61.23
-57.72
-50.98
-41.51
-30.21
-18.17
-6.34
4.56
14.17
22.35
29.06
34.29
37.99
40.18
40.99
40.68
39.58
37.99
36.10
34.02
31.81
29.55
27.40
25.52
23.99
22.84
21.95
21.20
20.49
19.73
18.90
17.93
16.75
15.32
13.63
11.72
9.67
7.51
5.27
2.92
0.50
-1.88
-4.11
-6.11
-7.98
-9.97
-12.37
-15.33
-18.77
-22.39
-25.86
-28.99
-31.82
-34.58
-37.59
-41.13
-45.31
-50.10
-55.22
-60.15
-64.15
-66.29
-65.72
-61.89
-54.78
-44.93
-33.31
-21.04
-9.15
1.64
10.93
18.59
24.68
29.33
32.72
35.07
36.54
37.29
37.40
36.90
35.81
34.16
32.08
29.75
27.43
25.34
23.68
22.50
21.77
21.33
20.89
20.16
18.84
16.82
14.14
11.04
7.79
4.59
1.47
-1.66
-4.92
-8.35
-11.86
-15.26
-18.32
-20.87
-22.83
-24.25
-25.27
-26.09
-26.88
-27.79
-28.87
-30.15
-31.64
-33.42
-35.65
-38.56
-42.29
-46.74
-51.47
-55.66
-58.29
-58.33
-55.03
-48.14
-37.98
-25.42
-11.60
2.24
15.14
26.47
36.02
43.87
50.30
55.59
59.94
63.43
66.02
67.57
67.95
67.14
65.21
62.38
58.94
55.18
51.34
47.57
43.96
40.59
37.49
34.71
32.20
29.85
27.46
24.86
21.96
18.80
15.55
12.39
9.47
6.78
4.24
1.63
-1.19
-4.29
-7.61
-11.02
-14.34
-17.45
-20.33
-23.07
-25.88
-29.03
-32.77
-37.25
-42.41
-47.93
-53.19
-57.36
-59.55
-59.00
-55.34
-48.68
-39.62
-29.05
-17.97
-7.25
2.51
11.00
18.11
23.81
28.12
31.09
32.78
33.33
32.95
31.89
30.38
28.62
26.74
24.85
23.02
21.37
20.00
19.00
18.39
18.07
17.86
17.51
16.78
15.52
13.73
11.48
8.95
6.31
3.63
0.94
-1.84
-4.79
-7.95
-11.23
-14.53
-17.71
-20.71
-23.57
-26.39
-29.34
-32.56
-36.20
-40.34
-45.01
-50.06
-55.05
-59.24
-61.65
-61.35
-57.77
-50.91
-41.38
-30.23
-18.62
-7.46
2.68
11.59
19.26
25.71
30.93
34.90
37.61
39.17
39.73
39.42
38.37
36.68
34.49
31.98
29.44
27.16
25.34
24.08
23.32
22.91
22.65
22.34
21.79
20.87
19.44
17.49
15.06
12.29
9.40
6.56
3.85
1.23
-1.46
-4.43
-7.80
-11.52
-15.43
-19.24
-22.72
-25.76
-28.40
-30.83
-33.36
-36.33
-40.01
-44.52
-49.62
-54.71
-58.90
-61.12
-60.51
-56.59
-49.47
-39.76
-28.38
-16.35
-4.54
6.41
16.12
24.34
30.96
35.90
39.18
40.85
41.11
40.26
38.66
36.65
34.53
32.49
30.65
29.05
27.77
26.84
26.24
25.90
25.64
25.21
24.44
23.21
21.46
19.25
16.71
13.94
11.08
8.26
5.56
3.01
0.57
-1.91
-4.63
-7.74
-11.28
-15.14
-19.05
-22.72
-25.96
-28.74
-31.26
-33.85
-36.83
-40.50
-44.95
-50.10
-55.62
-60.94
-65.23
-67.54
-66.96
-62.91
-55.35
-44.79
-32.21
-18.77
-5.53
6.74
17.58
26.80
34.33
40.19
44.39
47.04
48.32
48.50
47.92
46.83
45.45
43.86
42.11
40.26
38.42
36.74
35.34
34.22
33.31
32.43
31.43
30.21
28.75
27.06
25.19
23.15
20.90
18.36
15.51
12.38
9.11
5.88
2.86
0.14
-2.34
-4.76
-7.32
-10.19
-13.45
-16.99
-20.64
-24.18
-27.45
-30.37
-32.98
-35.48
-38.15
-41.37
-45.41
-50.35
-55.88
-61.31
-65.60
-67.63
-66.49
-61.75
-53.59
-42.74
-30.28
-17.34
-4.89
6.38
16.08
24.02
30.20
34.74
37.83
39.68
40.50
40.44
39.65
38.23
36.35
34.24
32.16
30.35
29.02
28.26
28.06
28.26
28.62
28.78
28.40
27.28
25.47
23.23
20.93
18.87
17.11
15.47
13.64
11.41
8.74
5.83
2.95
0.27
-2.16
-4.48
-6.84
-9.34
-11.95
-14.62
-17.29
-19.96
-22.69
-25.50
-28.36
-31.27
-34.26
-37.51
-41.25
-45.62
-50.48
-55.27
-59.11
-60.93
-59.81
-55.29
-47.51
-37.15
-25.27
-13.01
-1.34
9.08
17.94
25.15
30.76
34.83
37.43
38.69
38.80
38.11
36.95
35.66
34.38
33.16
31.91
30.63
29.36
28.28
27.56
27.29
27.35
27.45
27.23
26.45
25.03
23.12
20.95
18.75
16.63
14.53
12.36
10.01
7.44
4.70
1.85
-1.07
-4.01
-6.98
-9.95
-12.92
-15.89
-18.90
-22.04
-25.33
-28.75
-32.16
-35.42
-38.47
-41.42
-44.59
-48.33
-52.89
-58.13
-63.44
-67.87
-70.27
-69.69
-65.64
-58.23
-48.10
-36.23
-23.66
-11.30
0.17
10.36
19.08
26.31
32.12
36.66
40.07
42.46
43.90
44.42
44.12
43.12
41.63
39.92
38.23
36.73
35.51
34.54
33.79
33.15
32.53
31.81
30.93
29.82
28.49
26.96
25.25
23.39
21.36
19.11
16.59
13.81
10.79
7.63
4.43
1.31
-1.72
-4.71
-7.80
-11.13
-14.79
-18.72
-22.69
-26.46
-29.82
-32.74
-35.43
-38.24
-41.55
-45.60
-50.38
-55.60
-60.67
-64.82
-67.17
-66.96
-63.63
-57.05
-47.59
-36.07
-23.56
-11.19
0.21
10.13
18.46
25.32
30.89
35.35
38.75
41.10
42.40
42.68
42.07
40.75
38.96
36.94
34.94
33.13
31.65
30.59
29.96
29.72
29.78
29.98
30.14
30.09
29.68
28.84
27.57
25.94
24.02
21.88
19.55
17.09
14.55
12.01
9.53
7.19
4.94
2.69
0.28
-2.46
-5.67
-9.32
-13.29
-17.34
-21.20
-24.71
-27.90
-30.97
-34.28
-38.19
-42.89
-48.31
-54.03
-59.35
-63.34
-65.04
-63.72
-59.02
-51.13
-40.76
-28.93
-16.76
-5.23
5.06
13.82
20.99
26.64
30.87
33.79
35.54
36.28
36.24
35.60
34.56
33.22
31.70
30.08
28.46
26.96
25.71
24.81
24.28
24.04
23.95
23.80
23.40
22.61
21.41
19.87
18.12
16.26
14.29
12.15
9.77
7.14
4.36
1.62
-0.93
-3.22
-5.36
-7.58
-10.08
-12.96
-16.13
-19.35
-22.38
-25.07
-27.43
-29.66
-32.04
-34.86
-38.26
-42.12
-45.99
-49.16
-50.78
-50.12
-46.79
-40.83
-32.72
-23.21
-13.15
-3.28
5.79
13.65
20.06
24.92
28.23
30.11
30.72
30.28
29.02
27.21
25.13
23.03
21.14
19.61
18.50
17.79
17.42
17.29
17.28
17.27
17.11
16.71
15.96
14.76
13.09
11.00
8.66
6.29
4.09
2.10
0.23
-1.74
-4.00
-6.63
-9.56
-12.62
-15.62
-18.51
-21.30
-24.08
-26.94
-29.94
-33.12
-36.51
-40.24
-44.43
-49.20
-54.50
-59.99
-64.99
-68.55
-69.67
-67.62
-62.18
-53.77
-43.31
-31.99
-20.93
-10.93
-2.41
4.56
10.02
14.11
16.93
18.63
19.43
19.65
19.67
19.78
20.14
20.77
21.53
22.35
23.16
24.00
24.93
25.93
26.88
27.55
27.73
27.32
26.33
24.90
23.19
21.31
19.33
17.27
15.18
13.17
11.35
9.77
8.38
7.00
5.42
3.53
1.36
-0.91
-3.09
-5.10
-7.05
-9.20
-11.85
-15.25
-19.44
-24.16
-28.85
-32.68
-34.73
-34.20
-30.65
-24.13
-15.21
-4.86
5.83
15.90
24.64
31.73
37.10
40.84
43.10
44.01
43.73
42.49
40.57
38.29
35.92
33.53
31.08
28.42
25.51
22.45
19.54
17.10
15.35
14.26
13.61
12.98
12.06
10.67
8.86
6.83
4.76
2.72
0.59
-1.84
-4.72
-8.05
-11.65
-15.23
-18.58
-21.64
-24.48
-27.25
-30.02
-32.83
-35.73
-38.87
-42.46
-46.63
-51.17
-55.42
-58.39
-59.01
-56.55
-50.86
-42.42
-32.11
-20.99
-9.96
0.34
9.51
17.35
23.76
28.74
32.30
34.50
35.45
35.29
34.24
32.57
30.58
28.53
26.60
24.89
23.41
22.15
21.11
20.23
19.49
18.76
17.94
16.91
15.60
14.03
12.24
10.27
8.08
5.62
2.79
-0.44
-4.01
-7.72
-11.36
-14.74
-17.74
-20.43
-22.96
-25.62
-28.76
-32.65
-37.46
-43.01
-48.76
-53.83
-57.16
-57.81
-55.22
-49.36
-40.71
-30.10
-18.49
-6.79
4.27
14.15
22.56
29.34
34.50
38.18
40.60
42.02
42.70
42.80
42.37
41.40
39.82
37.68
35.14
32.58
30.38
28.82
27.93
27.46
27.01
26.18
24.78
22.83
20.53
18.09
15.65
13.23
10.72
7.99
4.96
1.61
-2.01
-5.84
-9.78
-13.73
-17.57
-21.14
-24.33
-27.19
-29.94
-32.99
-36.74
-41.41
-46.78
-52.09
-56.28
-58.19
-57.00
-52.43
-44.83
-35.01
-23.94
-12.57
-1.61
8.42
17.15
24.34
29.83
33.59
35.73
36.48
36.16
35.06
33.44
31.51
29.43
27.32
25.30
23.48
21.94
20.77
20.05
19.78
19.86
20.03
19.94
19.27
17.84
15.69
13.06
10.21
7.33
4.42
1.40
-1.86
-5.36
-8.99
-12.60
-16.07
-19.38
-22.58
-25.75
-29.00
-32.44
-36.22
-40.49
-45.26
-50.26
-54.90
-58.26
-59.31
-57.24
-51.71
-43.02
-32.04
-19.91
-7.76
3.56
13.55
22.03
28.92
34.19
37.77
39.66
39.99
39.08
37.35
35.21
32.94
30.64
28.35
26.13
24.13
22.53
21.50
21.04
20.92
20.81
20.35
19.28
17.56
15.31
12.71
9.95
7.10
4.16
1.07
-2.24
-5.80
-9.58
-13.46
-17.26
-20.82
-24.03
-26.93
-29.67
-32.53
-35.81
-39.73
-44.35
-49.48
-54.74
-59.49
-62.90
-64.08
-62.28
-57.10
-48.70
-37.82
-25.53
-12.96
-0.96
10.00
19.77
28.32
35.58
41.36
45.45
47.80
48.61
48.29
47.28
45.91
44.27
42.35
40.12
37.67
35.23
33.10
31.49
30.45
29.83
29.36
28.73
27.72
26.19
24.16
21.72
18.98
16.04
12.98
9.86
6.68
3.48
0.26
-3.03
-6.42
-9.94
-13.60
-17.31
-20.95
-24.36
-27.47
-30.37
-33.30
-36.66
-40.79
-45.83
-51.53
-57.23
-61.96
-64.63
-64.39
-60.78
-53.86
-44.12
-32.37
-19.56
-6.65
5.48
16.13
24.90
31.65
36.49
39.68
41.47
42.07
41.60
40.23
38.25
36.02
33.92
32.21
30.93
29.94
29.06
28.16
27.24
26.39
25.68
25.02
24.20
22.95
21.08
18.59
15.68
12.61
9.58
6.64
3.69
0.62
-2.63
-6.02
-9.40
-12.66
-15.78
-18.79
-21.75
-24.75
-27.86
-31.17
-34.80
-38.85
-43.45
-48.60
-54.12
-59.57
-64.19
-67.03
-67.12
-63.77
-56.77
-46.50
-33.88
-20.14
-6.47
6.17
17.21
26.41
33.77
39.36
43.25
45.55
46.40
46.07
44.93
43.39
41.75
40.14
38.56
36.94
35.31
33.84
32.76
32.22
32.16
32.26
32.11
31.36
29.89
27.83
25.46
23.04
20.70
18.36
15.88
13.10
9.97
6.55
2.97
-0.61
-4.10
-7.47
-10.76
-14.05
-17.41
-20.88
-24.44
-28.03
-31.56
-35.00
-38.34
-41.69
-45.21
-49.16
-53.75
-59.00
-64.61
-69.89
-73.83
-75.34
-73.55
-68.05
-59.07
-47.36
-33.97
-20.04
-6.58
5.71
16.38
25.25
32.35
37.80
41.78
44.44
45.90
46.26
45.68
44.35
42.52
40.41
38.24
36.16
34.33
32.90
31.98
31.59
31.55
31.54
31.18
30.19
28.48
26.18
23.54
20.79
18.03
15.25
12.36
9.32
6.21
3.21
0.46
-2.03
-4.39
-6.82
-9.56
-12.69
-16.17
-19.87
-23.61
-27.29
-30.88
-34.44
-38.17
-42.33
-47.16
-52.79
-59.03
-65.32
-70.72
-74.08
-74.36
-70.89
-63.55
-52.83
-39.67
-25.28
-10.84
2.66
14.58
24.59
32.68
38.96
43.68
47.05
49.27
50.52
50.90
50.49
49.31
47.44
45.02
42.27
39.47
36.94
34.89
33.41
32.44
31.80
31.26
30.57
29.52
28.01
25.99
23.52
20.74
17.83
14.91
12.06
9.28
6.50
3.67
0.74
-2.28
-5.37
-8.53
-11.77
-15.11
-18.57
-22.11
-25.65
-29.13
-32.52
-35.91
-39.44
-43.34
-47.84
-53.05
-58.93
-65.12
-70.90
-75.26
-77.09
-75.46
-69.94
-60.73
-48.65
-34.86
-20.60
-6.87
5.64
16.57
25.76
33.14
38.73
42.62
45.02
46.21
46.52
46.20
45.42
44.22
42.68
40.89
39.08
37.46
36.23
35.45
35.00
34.66
34.16
33.32
32.04
30.29
28.12
25.59
22.75
19.70
16.51
13.27
10.03
6.84
3.72
0.64
-2.43
-5.54
-8.76
-12.17
-15.80
-19.63
-23.54
-27.30
-30.70
-33.63
-36.17
-38.66
-41.56
-45.30
-50.04
-55.57
-61.21
-65.97
-68.78
-68.69
-65.16
-58.10
-47.94
-35.55
-22.01
-8.45
4.20
15.32
24.62
32.07
37.82
42.05
44.90
46.52
47.04
46.64
45.54
43.96
42.13
40.21
38.34
36.64
35.19
34.09
33.32
32.82
32.40
31.86
31.00
29.75
28.10
26.13
23.91
21.47
18.79
15.86
12.72
9.48
6.28
3.24
0.38
-2.34
-5.08
-7.96
-11.07
-14.41
-17.94
-21.52
-25.06
-28.45
-31.68
-34.82
-38.03
-41.55
-45.64
-50.46
-55.96
-61.73
-66.98
-70.61
-71.52
-68.89
-62.47
-52.69
-40.50
-27.06
-13.48
-0.57
11.12
21.25
29.56
35.91
40.27
42.80
43.85
43.82
43.05
41.76
40.03
37.95
35.66
33.42
31.49
30.07
29.21
28.78
28.50
28.12
27.42
26.32
24.83
23.04
21.05
18.96
16.80
14.60
12.30
9.84
7.22
4.41
1.49
-1.52
-4.59
-7.72
-10.93
-14.21
-17.48
-20.67
-23.67
-26.45
-29.07
-31.69
-34.52
-37.82
-41.74
-46.30
-51.25
-56.02
-59.77
-61.51
-60.35
-55.78
-47.82
-37.04
-24.47
-11.31
1.31
12.56
21.99
29.50
35.14
39.03
41.20
41.71
40.66
38.38
35.37
32.19
29.35
27.16
25.67
24.79
24.38
24.27
24.35
24.45
24.41
24.06
23.34
22.24
20.84
19.18
17.23
14.91
12.14
8.96
5.55
2.14
-1.05
-3.94
-6.60
-9.24
-12.06
-15.17
-18.54
-22.03
-25.46
-28.77
-31.98
-35.25
-38.74
-42.65
-47.08
-52.03
-57.27
-62.31
-66.33
-68.30
-67.27
-62.65
-54.45
-43.37
-30.56
-17.29
-4.60
6.86
16.78
25.07
31.69
36.61
39.86
41.58
42.05
41.61
40.59
39.24
37.65
35.89
33.97
31.99
30.09
28.43
27.15
26.29
25.78
25.46
25.08
24.38
23.14
21.24
18.75
15.85
12.79
9.77
6.85
3.97
0.99
-2.17
-5.54
-8.99
-12.40
-15.67
-18.77
-21.74
-24.63
-27.49
-30.43
-33.63
-37.32
-41.68
-46.65
-51.73
-56.04
-58.44
-57.89
-53.78
-46.20
-35.89
-24.01
-11.81
-0.26
10.03
18.83
26.10
31.84
36.05
38.71
39.93
39.92
38.99
37.46
35.54
33.35
30.93
28.35
25.76
23.30
21.15
19.40
18.03
16.97
16.05
15.10
13.98
12.59
10.96
9.20
7.45
5.81
4.29
2.79
1.14
-0.81
-3.11
-5.72
-8.57
-11.53
-14.51
-17.41
-20.18
-22.81
-25.36
-28.06
-31.25
-35.27
-40.33
-46.27
-52.50
-58.02
-61.62
-62.23
-59.19
-52.52
-42.86
-31.31
-19.07
-7.14
3.78
13.39
21.56
28.30
33.65
37.65
40.36
41.92
42.48
42.23
41.35
39.95
38.15
36.04
33.78
31.57
29.64
28.16
27.13
26.44
25.82
25.03
23.90
22.37
20.50
18.34
15.92
13.22
10.27
7.14
4.00
0.96
-1.96
-4.84
-7.81
-10.97
-14.29
-17.63
-20.85
-23.87
-26.71
-29.53
-32.55
-35.99
-40.01
-44.66
-49.73
-54.80
-59.15
-61.88
-62.15
-59.35
-53.33
-44.44
-33.45
-21.36
-9.18
2.29
12.54
21.32
28.56
34.23
38.36
41.05
42.50
43.00
42.91
42.46
41.77
40.79
39.37
37.49
35.27
32.99
30.95
29.37
28.22
27.32
26.40
25.24
23.71
21.82
19.59
17.10
14.39
11.52
8.51
5.43
2.28
-0.92
-4.17
-7.46
-10.73
-13.91
-16.92
-19.77
-22.47
-25.14
-27.92
-31.00
-34.61
-38.92
-43.92
-49.26
-54.21
-57.72
-58.74
-56.52
-50.95
-42.51
-32.12
-20.81
-9.48
1.30
11.23
20.13
27.88
34.30
39.23
42.60
44.47
45.06
44.65
43.56
42.02
40.16
38.07
35.76
33.31
30.80
28.40
26.25
24.44
22.94
21.60
20.16
18.39
16.12
13.35
10.22
6.97
3.84
0.96
-1.64
-4.08
-6.57
-9.30
-12.38
-15.74
-19.21
-22.52
-25.49
-28.06
-30.39
-32.83
-35.82
-39.73
-44.64
-50.21
-55.68
-59.95
-61.93
-60.78
-56.24
-48.62
-38.73
-27.59
-16.16
-5.19
4.88
13.81
21.46
27.78
32.78
36.50
39.09
40.74
41.66
42.02
41.91
41.38
40.37
38.85
36.87
34.60
32.33
30.39
28.98
28.08
27.38
26.44
24.89
22.60
19.78
16.80
14.03
11.62
9.41
7.08
4.29
0.93
-2.90
-6.93
-10.84
-14.44
-17.65
-20.52
-23.14
-25.71
-28.48
-31.80
-35.94
-40.98
-46.58
-51.97
-56.08
-57.83
-56.40
-51.55
-43.61
-33.44
-22.15
-10.85
-0.40
8.67
16.21
22.29
27.10
30.77
33.36
34.84
35.23
34.64
33.31
31.53
29.53
27.48
25.44
23.51
21.83
20.57
19.88
19.74
19.92
20.05
19.71
18.61
16.70
14.15
11.29
8.43
5.76
3.26
0.80
-1.81
-4.67
-7.76
-10.91
-13.89
-16.51
-18.73
-20.70
-22.68
-25.04
-28.08
-31.97
-36.62
-41.64
-46.37
-49.99
-51.64
-50.67
-46.77
-40.04
-31.05
-20.67
-9.94
0.19
9.03
16.24
21.78
25.84
28.63
30.32
31.03
30.85
29.89
28.36
26.44
24.32
22.16
20.08
18.26
16.86
16.02
15.78
15.96
16.21
16.17
15.52
14.14
12.11
9.61
6.87
4.03
1.22
-1.56
-4.34
-7.18
-10.11
-13.14
-16.21
-19.24
-22.15
-24.93
-27.68
-30.57
-33.87
-37.82
-42.48
-47.68
-52.87
-57.20
-59.65
-59.34
-55.79
-49.03
-39.69
-28.72
-17.22
-6.12
3.95
12.65
19.89
25.72
30.25
33.60
35.83
37.03
37.29
36.75
35.60
34.04
32.26
30.37
28.44
26.54
24.75
23.19
21.97
21.09
20.47
19.86
18.98
17.59
15.61
13.12
10.31
7.42
4.57
1.80
-0.99
-3.91
-7.00
-10.19
-13.36
-16.39
-19.22
-21.91
-24.61
-27.52
-30.89
-34.91
-39.68
-45.10
-50.75
-55.94
-59.70
-61.12
-59.52
-54.71
-46.94
-36.89
-25.45
-13.53
-1.95
8.63
17.80
25.38
31.39
36.00
39.43
41.84
43.31
43.87
43.55
42.49
40.88
38.98
37.01
35.15
33.48
32.04
30.83
29.82
28.96
28.11
27.09
25.69
23.77
21.29
18.41
15.33
12.32
9.51
6.88
4.33
1.72
-1.07
-4.11
-7.38
-10.87
-14.53
-18.26
-21.95
-25.49
-28.83
-32.02
-35.24
-38.76
-42.83
-47.54
-52.66
-57.61
-61.51
-63.37
-62.36
-58.08
-50.70
-40.86
-29.55
-17.75
-6.29
4.29
13.67
21.70
28.32
33.53
37.40
40.08
41.75
42.59
42.70
42.09
40.76
38.77
36.34
33.76
31.35
29.38
27.98
27.10
26.62
26.30
25.92
25.23
24.00
22.10
19.56
16.53
13.35
10.34
7.67
5.34
3.12
0.68
-2.21
-5.60
-9.30
-13.02
-16.46
-19.46
-22.03
-24.42
-26.98
-30.09
-34.05
-38.91
-44.34
-49.62
-53.76
-55.67
-54.59
-50.20
-42.75
-32.97
-21.83
-10.32
0.76
10.81
19.46
26.52
31.91
35.62
37.71
38.29
37.59
35.89
33.58
31.04
28.60
26.49
24.80
23.48
22.49
21.75
21.21
20.81
20.44
19.96
19.21
18.05
16.39
14.25
11.71
8.90
6.00
3.11
0.26
-2.65
-5.77
-9.24
-13.07
-17.09
-21.04
-24.63
-27.70
-30.36
-32.89
-35.72
-39.23
-43.68
-49.00
-54.84
-60.45
-64.79
-66.80
-65.59
-60.75
-52.48
-41.55
-29.07
-16.20
-3.90
7.23
16.89
25.01
31.62
36.73
40.37
42.59
43.51
43.35
42.36
40.78
38.81
36.61
34.29
32.05
30.04
28.43
27.28
26.53
26.00
25.52
24.85
23.85
22.40
20.46
18.06
15.36
12.59
9.94
7.49
5.13
2.60
-0.37
-3.95
-8.07
-12.53
-17.03
-21.29
-25.16
-28.57
-31.63
-34.56
-37.71
-41.46
-46.13
-51.72
-57.82
-63.55
-67.80
-69.47
-67.81
-62.58
-54.05
-42.93
-30.13
-16.68
-3.57
8.37
18.61
26.96
33.54
38.66
42.61
45.55
47.45
48.19
47.73
46.22
43.97
41.37
38.80
36.51
34.64
33.22
32.18
31.45
30.89
30.32
29.55
28.43
26.87
24.87
22.49
19.80
16.90
13.84
10.68
7.47
4.22
0.97
-2.28
-5.60
-9.07
-12.74
-16.65
-20.73
-24.87
-28.92
-32.76
-36.34
-39.75
-43.19
-46.93
-51.22
-56.07
-61.16
-65.80
-68.98
-69.66
-67.03
-60.77
-51.10
-38.82
-25.02
-10.86
2.65
14.85
25.34
33.95
40.66
45.53
48.69
50.38
50.88
50.54
49.65
48.40
46.84
44.99
42.87
40.56
38.23
36.05
34.15
32.56
31.21
29.93
28.54
26.85
24.74
22.16
19.15
15.84
12.38
8.95
5.68
2.60
-0.31
-3.17
-6.11
-9.19
-12.44
-15.81
-19.18
-22.47
-25.59
-28.54
-31.40
-34.34
-37.57
-41.33
-45.72
-50.58
-55.38
-59.26
-61.22
-60.35
-56.18
-48.79
-38.76
-27.00
-14.52
-2.23
9.17
19.13
27.31
33.50
37.66
39.95
40.67
40.17
38.84
36.99
34.86
32.68
30.62
28.82
27.32
26.13
25.21
24.52
24.05
23.77
23.60
23.34
22.72
21.50
19.55
16.88
13.71
10.31
6.89
3.58
0.38
-2.80
-6.07
-9.53
-13.19
-16.96
-20.68
-24.17
-27.31
-30.15
-32.89
-35.85
-39.36
-43.69
-48.89
-54.71
-60.60
-65.70
-68.99
-69.45
-66.41
-59.70
-49.76
-37.49
-24.08
-10.68
1.79
12.71
21.79
29.00
34.51
38.62
41.61
43.70
44.97
45.42
45.03
43.87
42.11
39.96
37.65
35.36
33.19
31.30
29.81
28.79
28.23
27.89
27.41
26.43
24.73
22.29
19.34
16.15
12.96
9.84
6.70
3.44
-0.01
-3.64
-7.31
-10.91
-14.35
-17.65
-20.86
-24.04
-27.23
-30.44
-33.78
-37.39
-41.49
-46.19
-51.33
-56.34
-60.35
-62.30
-61.29
-56.86
-49.16
-38.85
-26.95
-14.51
-2.42
8.69
18.44
26.63
33.11
37.77
40.63
41.82
41.66
40.56
38.91
37.05
35.13
33.21
31.26
29.33
27.49
25.88
24.59
23.67
23.02
22.46
21.74
20.58
18.78
16.24
13.10
9.65
6.26
3.21
0.56
-1.87
-4.43
-7.41
-10.93
-14.84
-18.85
-22.64
-26.01
-28.96
-31.62
-34.23
-37.10
-40.47
-44.53
-49.28
-54.40
-59.21
-62.75
-63.97
-62.03
-56.57
-47.85
-36.66
-24.12
-11.40
0.54
11.08
19.97
27.17
32.75
36.82
39.43
40.69
40.71
39.70
37.95
35.78
33.51
31.38
29.53
28.01
26.81
25.88
25.16
24.53
23.88
23.03
21.83
20.21
18.12
15.60
12.78
9.74
6.57
3.27
-0.20
-3.90
-7.88
-12.07
-16.30
-20.31
-23.90
-26.97
-29.65
-32.24
-35.14
-38.73
-43.26
-48.75
-54.95
-61.36
-67.19
-71.53
-73.41
-72.03
-67.01
-58.50
-47.18
-34.14
-20.57
-7.46
4.56
15.22
24.51
32.45
39.01
44.07
47.58
49.56
50.21
49.86
48.83
47.35
45.58
43.61
41.52
39.40
37.36
35.45
33.69
32.04
30.45
28.85
27.12
25.19
22.98
20.49
17.79
15.03
12.32
9.69
6.99
4.00
0.49
-3.64
-8.23
-12.98
-17.48
-21.47
-24.91
-28.08
-31.44
-35.47
-40.50
-46.52
-53.11
-59.46
-64.53
-67.25
-66.77
-62.68
-55.09
-44.64
-32.29
-19.13
-6.13
6.00
16.84
26.21
34.05
40.34
45.09
48.33
50.11
50.61
50.02
48.62
46.68
44.48
42.28
40.28
38.59
37.23
36.12
35.14
34.19
33.21
32.12
30.83
29.15
26.86
23.88
20.29
16.38
12.53
9.03
5.94
3.08
0.11
-3.24
-7.06
-11.19
-15.28
-19.02
-22.28
-25.16
-27.97
-31.09
-34.88
-39.55
-45.16
-51.52
-58.17
-64.39
-69.22
-71.65
-70.81
-66.23
-58.01
-46.77
-33.59
-19.67
-6.15
6.18
16.89
25.89
33.39
39.62
44.75
48.78
51.62
53.14
53.37
52.48
50.76
48.54
46.08
43.59
41.24
39.20
37.61
36.54
35.90
35.44
34.81
33.69
31.90
29.43
26.49
23.32
20.12
17.00
13.99
11.05
8.17
5.33
2.52
-0.31
-3.25
-6.38
-9.75
-13.33
-17.06
-20.81
-24.47
-27.98
-31.32
-34.58
-37.97
-41.76
-46.19
-51.27
-56.67
-61.64
-65.14
-66.12
-63.82
-58.01
-49.06
-37.81
-25.34
-12.70
-0.71
10.13
19.52
27.32
33.46
37.88
40.60
41.72
41.49
40.20
38.21
35.87
33.45
31.19
29.29
27.85
26.89
26.36
26.11
25.97
25.73
25.23
24.34
23.01
21.27
19.18
16.85
14.34
11.70
8.95
6.07
3.09
0.05
-3.01
-6.05
-9.06
-12.09
-15.12
-18.15
-21.14
-24.06
-26.94
-29.88
-33.08
-36.75
-41.05
-45.99
-51.34
-56.57
-60.90
-63.43
-63.32
-60.03
-53.49
-44.13
-32.76
-20.42
-8.07
3.50
13.77
22.43
29.36
34.55
38.05
40.01
40.68
40.30
39.14
37.45
35.46
33.38
31.43
29.78
28.53
27.66
27.08
26.64
26.19
25.64
24.93
24.02
22.83
21.23
19.08
16.33
13.07
9.52
5.99
2.68
-0.33
-3.14
-5.97
-9.01
-12.34
-15.89
-19.48
-22.92
-26.12
-29.10
-32.04
-35.22
-38.94
-43.45
-48.77
-54.66
-60.53
-65.54
-68.71
-69.17
-66.33
-60.10
-50.86
-39.44
-26.91
-14.34
-2.55
7.97
17.09
24.91
31.54
37.03
41.28
44.22
45.85
46.31
45.88
44.81
43.31
41.49
39.45
37.31
35.30
33.63
32.46
31.80
31.47
31.20
30.68
29.67
28.04
25.80
23.09
20.10
17.03
14.02
11.12
8.28
5.45
2.58
-0.36
-3.39
-6.53
-9.81
-13.26
-16.83
-20.43
-23.94
-27.24
-30.34
-33.41
-36.75
-40.67
-45.41
-50.86
-56.50
-61.40
-64.44
-64.62
-61.37
-54.77
-45.50
-34.54
-22.94
-11.54
-0.88
8.72
17.04
23.91
29.20
32.90
35.14
36.18
36.30
35.76
34.73
33.30
31.60
29.77
28.00
26.48
25.30
24.44
23.84
23.40
23.06
22.80
22.56
22.21
21.51
20.20
18.11
15.27
11.90
8.32
4.89
1.78
-1.01
-3.62
-6.25
-9.06
-12.12
-15.37
-18.70
-21.94
-24.99
-27.85
-30.60
-33.47
-36.71
-40.52
-44.97
-49.92
-54.92
-59.27
-62.12
-62.61
-60.11
-54.38
-45.70
-34.84
-22.84
-10.79
0.43
10.30
18.65
25.51
30.97
35.06
37.81
39.28
39.64
39.17
38.16
36.83
35.31
33.69
32.05
30.54
29.31
28.43
27.83
27.33
26.69
25.75
24.47
22.93
21.26
19.56
17.85
16.05
14.06
11.77
9.16
6.31
3.34
0.40
-2.47
-5.33
-8.29
-11.48
-14.97
-18.71
-22.61
-26.51
-30.27
-33.83
-37.20
-40.51
-44.04
-48.05
-52.72
-57.87
-62.98
-67.14
-69.31
-68.62
-64.62
-57.39
-47.49
-35.83
-23.38
-11.08
0.36
10.51
19.13
26.21
31.83
36.10
39.12
40.97
41.76
41.67
40.92
39.79
38.50
37.15
35.77
34.34
32.89
31.51
30.32
29.37
28.57
27.74
26.69
25.32
23.66
21.85
19.96
18.02
15.92
13.55
10.90
8.01
5.00
1.97
-1.05
-4.07
-7.10
-10.11
-13.07
-15.95
-18.78
-21.64
-24.60
-27.73
-31.06
-34.67
-38.70
-43.27
-48.38
-53.77
-58.82
-62.63
-64.24
-62.91
-58.36
-50.80
-40.90
-29.53
-17.60
-5.85
5.11
14.91
23.28
30.11
35.37
39.14
41.54
42.75
42.96
42.34
41.04
39.24
37.14
34.97
32.98
31.35
30.16
29.36
28.87
28.55
28.28
27.93
27.37
26.42
25.01
23.10
20.82
18.32
15.73
13.11
10.42
7.63
4.75
1.85
-1.00
-3.80
-6.63
-9.58
-12.68
-15.88
-19.04
-22.04
-24.83
-27.46
-30.08
-32.89
-36.13
-39.98
-44.54
-49.61
-54.69
-58.92
-61.29
-60.90
-57.28
-50.56
-41.40
-30.77
-19.64
-8.77
1.36
10.48
18.37
24.84
29.68
32.81
34.34
34.57
33.97
32.97
31.91
30.93
30.06
29.26
28.51
27.83
27.21
26.64
26.06
25.37
24.50
23.35
21.87
19.93
17.49
14.52
11.12
7.42
3.62
-0.14
-3.76
-7.23
-10.54
-13.68
-16.64
-19.39
-21.88
-24.13
-26.12
-27.95
-29.80
-31.94
-34.69
-38.26
-42.63
-47.38
-51.79
-54.89
-55.79
-53.82
-48.76
-40.88
-30.85
-19.62
-8.15
2.68
12.31
20.39
26.80
31.59
34.83
36.65
37.21
36.72
35.35
33.32
30.79
27.97
25.08
22.41
20.21
18.65
17.76
17.39
17.28
17.13
16.71
15.86
14.51
12.64
10.31
7.68
4.87
2.00
-0.95
-4.03
-7.35
-10.92
-14.65
-18.40
-22.04
-25.57
-29.16
-33.07
-37.54
-42.63
-48.13
-53.57
-58.21
-61.18
-61.67
-59.07
-53.20
-44.34
-33.25
-20.97
-8.65
2.80
12.77
21.04
27.72
33.02
37.12
40.14
42.08
42.98
42.93
42.08
40.61
38.66
36.38
33.90
31.43
29.20
27.42
26.15
25.25
24.39
23.23
21.55
19.33
16.75
14.03
11.32
8.57
5.61
2.25
-1.59
-5.83
-10.20
-14.44
-18.38
-22.05
-25.66
-29.54
-34.02
-39.24
-45.10
-51.11
-56.47
-60.22
-61.40
-59.36
-53.94
-45.52
-34.91
-23.10
-11.07
0.43
10.94
20.21
28.12
34.61
39.62
43.18
45.38
46.43
46.56
45.99
44.88
43.29
41.26
38.91
36.43
34.08
32.15
30.79
29.98
29.50
29.04
28.23
26.82
24.71
22.01
18.96
15.86
12.93
10.19
7.52
4.62
1.26
-2.65
-6.95
-11.35
-15.49
-19.14
-22.26
-25.03
-27.82
-30.98
-34.83
-39.50
-44.92
-50.72
-56.28
-60.74
-63.11
-62.53
-58.47
-50.95
-40.55
-28.33
-15.49
-3.12
8.02
17.54
25.35
31.52
36.13
39.29
41.08
41.67
41.24
40.04
38.33
36.37
34.40
32.57
30.97
29.59
28.44
27.51
26.83
26.36
25.99
25.46
24.46
22.71
20.11
16.80
13.10
9.41
6.00
2.95
0.16
-2.57
-5.45
-8.57
-11.93
-15.44
-19.01
-22.56
-26.06
-29.50
-32.90
-36.32
-39.92
-43.94
-48.65
-54.13
-60.11
-65.89
-70.37
-72.40
-71.02
-65.81
-57.03
-45.49
-32.33
-18.75
-5.73
6.10
16.43
25.25
32.67
38.83
43.80
47.58
50.13
51.47
51.68
50.91
49.44
47.49
45.31
43.08
40.94
39.05
37.52
36.41
35.65
35.06
34.32
33.12
31.30
28.86
26.01
23.01
20.01
17.06
14.04
10.85
7.44
3.88
0.28
-3.25
-6.70
-10.14
-13.61
-17.12
-20.61
-24.03
-27.34
-30.59
-33.88
-37.36
-41.23
-45.74
-51.03
-57.00
-63.13
-68.45
-71.77
-71.96
-68.38
-61.12
-50.87
-38.74
-25.86
-13.11
-1.08
9.87
19.43
27.39
33.57
37.93
40.63
41.98
42.34
42.02
41.20
39.97
38.38
36.55
34.73
33.27
32.39
32.15
32.30
32.42
32.10
31.11
29.47
27.38
25.11
22.78
20.38
17.83
15.06
12.08
8.99
5.87
2.80
-0.28
-3.44
-6.77
-10.29
-13.92
-17.57
-21.10
-24.47
-27.68
-30.83
-34.03
-37.46
-41.27
-45.61
-50.54
-55.97
-61.50
-66.38
-69.63
-70.24
-67.46
-61.09
-51.56
-39.74
-26.78
-13.73
-1.39
9.75
19.48
27.72
34.49
39.82
43.80
46.56
48.23
48.92
48.70
47.61
45.79
43.47
40.99
38.70
36.88
35.66
34.94
34.50
34.06
33.36
32.25
30.69
28.75
26.54
24.20
21.83
19.48
17.10
14.61
11.93
9.03
5.94
2.75
-0.46
-3.65
-6.82
-9.99
-13.20
-16.47
-19.78
-23.13
-26.50
-29.87
-33.23
-36.59
-40.02
-43.72
-47.92
-52.81
-58.32
-63.93
-68.71
-71.45
-71.07
-66.95
-59.14
-48.38
-35.80
-22.62
-9.83
1.90
12.19
20.91
27.99
33.47
37.43
40.02
41.45
41.93
41.63
40.67
39.15
37.18
34.97
32.77
30.85
29.41
28.52
28.06
27.79
27.40
26.70
25.62
24.22
22.62
20.90
19.05
16.99
14.62
11.89
8.88
5.73
2.62
-0.31
-3.08
-5.76
-8.51
-11.47
-14.67
-18.04
-21.43
-24.69
-27.75
-30.67
-33.64
-36.93
-40.78
-45.25
-50.20
-55.13
-59.30
-61.77
-61.69
-58.44
-51.93
-42.60
-31.30
-19.10
-6.99
4.25
14.14
22.45
29.12
34.18
37.74
39.93
40.91
40.88
40.02
38.54
36.66
34.64
32.70
31.03
29.72
28.73
27.97
27.32
26.72
26.17
25.62
25.02
24.22
23.06
21.41
19.32
16.92
14.38
11.82
9.23
6.52
3.60
0.46
-2.80
-6.08
-9.33
-12.57
-15.86
-19.25
-22.72
-26.17
-29.53
-32.76
-35.99
-39.46
-43.44
-48.17
-53.65
-59.53
-65.07
-69.24
-71.00
-69.56
-64.64
-56.53
-45.97
-33.94
-21.41
-9.19
2.14
12.20
20.81
27.91
33.55
37.86
41.03
43.21
44.53
45.03
44.73
43.68
42.04
40.06
38.04
36.24
34.82
33.74
32.86
31.94
30.73
28.96
26.43
23.00
18.73
13.83
8.74
3.98
0.00
-2.98
-5.02
-6.41
-7.59
-8.96
-10.80
-13.16
-15.95
-18.97
-21.96
-24.75
-27.26
-29.51
-31.67
-34.00
-36.82
-40.44
-44.99
-50.30
-55.83
-60.66
-63.71
-64.03
-60.99
-54.55
-45.19
-33.77
-21.32
-8.84
2.90
13.41
22.48
30.10
36.33
41.28
44.95
47.35
48.47
48.45
47.51
45.99
44.20
42.33
40.48
38.67
36.91
35.29
33.89
32.79
31.96
31.28
30.57
29.61
28.24
26.37
24.01
21.25
18.23
15.08
11.88
8.62
5.25
1.69
-2.06
-5.93
-9.72
-13.27
-16.47
-19.32
-21.95
-24.54
-27.28
-30.33
-33.81
-37.86
-42.57
-47.94
-53.73
-59.33
-63.86
-66.30
-65.80
-61.97
-54.98
-45.45
-34.30
-22.43
-10.60
0.62
10.76
19.54
26.75
32.38
36.56
39.50
41.42
42.44
42.59
41.90
40.44
38.39
36.02
33.64
31.48
29.72
28.36
27.36
26.60
25.96
25.32
24.59
23.68
22.55
21.15
19.45
17.43
15.07
12.40
9.49
6.44
3.36
0.30
-2.76
-5.89
-9.11
-12.39
-15.60
-18.60
-21.31
-23.78
-26.15
-28.60
-31.34
-34.50
-38.22
-42.51
-47.23
-51.97
-56.03
-58.50
-58.49
-55.41
-49.15
-40.16
-29.31
-17.61
-6.02
4.78
14.38
22.57
29.26
34.39
37.92
39.90
40.46
39.90
38.56
36.82
34.92
33.03
31.21
29.50
27.94
26.59
25.49
24.65
23.99
23.40
22.75
21.96
20.93
19.61
17.94
15.91
13.56
10.99
8.33
5.73
3.25
0.82
-1.70
-4.50
-7.70
-11.28
-15.07
-18.80
-22.27
-25.36
-28.14
-30.80
-33.60
-36.78
-40.54
-44.96
-49.95
-55.23
-60.22
-64.10
-65.95
-64.94
-60.64
-53.11
-42.96
-31.15
-18.76
-6.75
4.16
13.59
21.43
27.76
32.75
36.56
39.28
40.98
41.67
41.42
40.38
38.82
37.02
35.25
33.67
32.34
31.21
30.21
29.25
28.27
27.19
25.95
24.51
22.86
21.02
19.02
16.91
14.71
12.39
9.87
7.11
4.08
0.85
-2.49
-5.82
-9.10
-12.35
-15.59
-18.79
-21.86
-24.69
-27.26
-29.73
-32.46
-35.84
-40.17
-45.44
-51.22
-56.83
-61.38
-64.03
-64.10
-61.20
-55.30
-46.70
-36.06
-24.24
-12.17
-0.66
9.74
18.73
26.25
32.32
37.01
40.35
42.41
43.31
43.24
42.44
41.16
39.57
37.80
35.92
34.00
32.12
30.39
28.88
27.60
26.48
25.43
24.35
23.19
21.91
20.48
18.85
16.94
14.73
12.23
9.57
6.92
4.39
1.95
-0.51
-3.17
-6.15
-9.42
-12.83
-16.22
-19.44
-22.49
-25.49
-28.56
-31.85
-35.44
-39.41
-43.81
-48.61
-53.59
-58.29
-61.97
-63.75
-62.86
-58.83
-51.71
-42.03
-30.69
-18.75
-7.17
3.39
12.55
20.26
26.64
31.84
35.96
38.99
40.85
41.52
41.06
39.65
37.62
35.29
33.00
31.01
29.49
28.52
28.06
27.98
28.06
28.03
27.66
26.80
25.46
23.77
21.87
19.84
17.69
15.35
12.76
9.97
7.14
4.43
1.91
-0.50
-3.01
-5.87
-9.17
-12.80
-16.49
-19.93
-22.95
-25.61
-28.16
-30.91
-34.17
-38.12
-42.76
-47.89
-53.06
-57.57
-60.52
-61.02
-58.42
-52.57
-43.88
-33.23
-21.72
-10.32
0.30
9.80
18.03
24.86
30.17
33.83
35.84
36.40
35.89
34.71
33.21
31.59
29.94
28.29
26.66
25.14
23.83
22.83
22.18
21.84
21.70
21.58
21.23
20.42
18.95
16.81
14.13
11.16
8.23
5.51
3.06
0.76
-1.59
-4.14
-6.92
-9.88
-12.90
-15.89
-18.80
-21.60
-24.30
-26.91
-29.52
-32.31
-35.54
-39.36
-43.65
-47.93
-51.41
-53.19
-52.56
-49.17
-43.11
-34.84
-25.04
-14.46
-3.84
6.15
14.99
22.27
27.80
31.54
33.56
34.09
33.41
31.92
29.97
27.90
25.88
23.98
22.17
20.48
18.99
17.87
17.20
16.97
16.96
16.85
16.31
15.13
13.31
10.97
8.32
5.54
2.72
-0.17
-3.20
-6.42
-9.84
-13.41
-16.99
-20.49
-23.86
-27.13
-30.43
-33.95
-37.91
-42.48
-47.71
-53.34
-58.80
-63.20
-65.56
-65.06
-61.28
-54.33
-44.82
-33.60
-21.61
-9.65
1.62
11.75
20.41
27.42
32.79
36.65
39.25
40.85
41.64
41.72
41.14
39.94
38.25
36.30
34.33
32.56
31.10
29.95
28.99
28.08
27.07
25.81
24.22
22.21
19.79
17.03
14.01
10.86
7.62
4.30
0.84
-2.80
-6.65
-10.64
-14.69
-18.70
-22.61
-26.41
-30.20
-34.15
-38.46
-43.31
-48.72
-54.37
-59.61
-63.50
-65.02
-63.37
-58.25
-49.94
-39.25
-27.23
-14.90
-3.02
7.92
17.72
26.26
33.48
39.35
43.87
47.16
49.38
50.72
51.30
51.15
50.28
48.72
46.59
44.14
41.64
39.39
37.58
36.27
35.33
34.53
33.59
32.29
30.53
28.36
25.90
23.28
20.51
17.59
14.52
11.36
8.23
5.21
2.26
-0.81
-4.23
-8.07
-12.23
-16.41
-20.31
-23.79
-26.92
-30.00
-33.37
-37.34
-42.10
-47.63
-53.64
-59.57
-64.52
-67.48
-67.56
-64.24
-57.52
-47.96
-36.46
-24.05
-11.66
-0.02
10.39
19.33
26.71
32.58
37.02
40.14
42.03
42.84
42.70
41.83
40.43
38.73
36.92
35.17
33.62
32.37
31.45
30.82
30.33
29.85
29.29
28.59
27.72
26.63
25.23
23.45
21.27
18.77
16.07
13.30
10.52
7.71
4.81
1.76
-1.44
-4.75
-8.12
-11.53
-14.96
-18.35
-21.62
-24.72
-27.65
-30.57
-33.79
-37.62
-42.27
-47.65
-53.38
-58.71
-62.78
-64.67
-63.70
-59.55
-52.33
-42.64
-31.36
-19.48
-7.85
2.93
12.55
20.88
27.88
33.48
37.62
40.31
41.71
42.08
41.72
40.91
39.81
38.50
37.03
35.45
33.89
32.49
31.37
30.58
30.08
29.71
29.27
28.55
27.40
25.79
23.79
21.50
19.04
16.46
13.74
10.85
7.81
4.76
1.87
-0.73
-3.04
-5.24
-7.64
-10.50
-13.91
-17.74
-21.71
-25.49
-28.95
-32.16
-35.39
-38.98
-43.23
-48.28
-53.96
-59.81
-65.09
-68.82
-70.06
-68.10
-62.71
-54.18
-43.28
-31.06
-18.52
-6.47
4.54
14.21
22.38
29.00
34.11
37.84
40.39
41.98
42.79
42.88
42.30
41.08
39.35
37.36
35.41
33.74
32.47
31.58
30.95
30.41
29.84
29.15
28.29
27.21
25.81
24.02
21.79
19.10
16.03
12.74
9.39
6.14
3.09
0.26
-2.38
-4.87
-7.28
-9.68
-12.12
-14.69
-17.42
-20.31
-23.32
-26.34
-29.31
-32.22
-35.20
-38.50
-42.35
-46.83
-51.65
-56.18
-59.47
-60.53
-58.60
-53.44
-45.35
-35.09
-23.64
-11.95
-0.82
9.25
17.94
25.11
30.76
34.96
37.88
39.73
40.71
40.95
40.55
39.55
38.04
36.16
34.16
32.34
30.95
30.10
29.74
29.63
29.46
28.95
27.89
26.26
24.20
21.90
19.58
17.39
15.33
13.34
11.29
9.08
6.70
4.17
1.57
-1.02
-3.60
-6.18
-8.85
-11.71
-14.82
-18.18
-21.72
-25.30
-28.76
-32.03
-35.12
-38.21
-41.55
-45.42
-49.97
-55.06
-60.20
-64.54
-67.09
-66.98
-63.70
-57.29
-48.27
-37.50
-25.88
-14.23
-3.18
6.86
15.60
22.89
28.63
32.88
35.72
37.35
37.94
37.71
36.86
35.55
33.92
32.10
30.24
28.52
27.11
26.14
25.60
25.37
25.25
25.01
24.53
23.69
22.49
20.92
19.03
16.88
14.53
12.05
9.48
6.80
4.00
1.08
-1.90
-4.85
-7.73
-10.56
-13.43
-16.41
-19.50
-22.62
-25.61
-28.42
-31.07
-33.78
-36.83
-40.49
-44.87
-49.80
-54.80
-59.16
-62.00
-62.49
-60.09
-54.67
-46.53
-36.34
-25.02
-13.49
-2.62
6.95
14.81
20.83
25.10
27.95
29.81
31.07
32.06
32.94
33.76
34.48
35.01
35.28
35.27
35.02
34.63
34.21
33.89
33.65
33.42
33.03
32.35
31.28
29.80
27.95
25.76
23.22
20.34
17.17
13.86
10.60
7.53
4.67
1.89
-1.03
-4.29
-7.92
-11.78
-15.62
-19.20
-22.43
-25.40
-28.34
-31.55
-35.27
-39.61
-44.54
-49.83
-55.11
-59.84
-63.30
-64.75
-63.55
-59.35
-52.24
-42.78
-31.82
-20.32
-9.15
1.10
10.11
17.75
23.99
28.83
32.25
34.32
35.16
35.00
34.17
32.94
31.53
30.06
28.58
27.16
25.86
24.78
23.99
23.46
23.12
22.79
22.33
21.59
20.54
19.15
17.43
15.40
13.11
10.60
7.93
5.17
2.36
-0.45
-3.23
-5.96
-8.68
-11.43
-14.28
-17.21
-20.16
-23.01
-25.69
-28.28
-31.01
-34.26
-38.35
-43.33
-48.81
-53.99
-57.81
-59.22
-57.61
-52.88
-45.49
-36.24
-26.00
-15.49
-5.20
4.53
13.41
21.13
27.36
31.92
34.83
36.28
36.61
36.14
35.10
33.62
31.80
29.74
27.61
25.63
24.03
22.96
22.45
22.38
22.50
22.53
22.18
21.25
19.67
17.48
14.84
11.92
8.88
5.86
2.90
-0.03
-2.98
-6.04
-9.28
-12.73
-16.36
-20.07
-23.74
-27.22
-30.44
-33.41
-36.25
-39.27
-42.83
-47.22
-52.46
-58.18
-63.58
-67.57
-69.04
-67.21
-61.79
-53.11
-41.99
-29.48
-16.65
-4.33
6.90
16.77
25.17
32.04
37.42
41.40
44.13
45.82
46.69
46.84
46.35
45.22
43.56
41.55
39.53
37.76
36.43
35.47
34.71
33.93
33.01
31.99
30.92
29.84
28.63
27.11
25.07
22.46
19.37
15.98
12.54
9.18
5.96
2.80
-0.40
-3.73
-7.24
-10.93
-14.78
-18.71
-22.63
-26.45
-30.15
-33.81
-37.64
-41.88
-46.72
-52.13
-57.81
-63.20
-67.47
-69.75
-69.24
-65.45
-58.28
-48.17
-35.97
-22.78
-9.71
2.35
12.88
21.74
28.99
34.79
39.28
42.53
44.56
45.44
45.30
44.34
42.79
40.89
38.86
36.87
35.13
33.79
32.94
32.55
32.47
32.47
32.30
31.74
30.67
29.03
26.85
24.20
21.17
17.88
14.50
11.17
8.02
5.10
2.34
-0.41
-3.32
-6.51
-10.01
-13.69
-17.33
-20.72
-23.73
-26.36
-28.77
-31.26
-34.20
-37.92
-42.54
-47.89
-53.39
-58.09
-60.90
-60.86
-57.39
-50.52
-40.81
-29.25
-16.89
-4.67
6.73
16.88
25.54
32.61
37.99
41.66
43.69
44.22
43.51
41.86
39.63
37.10
34.57
32.23
30.23
28.67
27.57
26.92
26.65
26.61
26.61
26.39
25.70
24.36
22.33
19.67
16.58
13.30
10.06
7.04
4.29
1.75
-0.74
-3.34
-6.18
-9.31
-12.71
-16.26
-19.88
-23.46
-26.96
-30.41
-33.92
-37.64
-41.80
-46.58
-52.04
-58.00
-63.97
-69.14
-72.57
-73.30
-70.72
-64.62
-55.35
-43.69
-30.67
-17.31
-4.46
7.28
17.58
26.29
33.37
38.86
42.89
45.60
47.21
47.89
47.79
46.99
45.56
43.60
41.30
38.96
36.83
35.16
34.01
33.30
32.84
32.39
31.74
30.72
29.25
27.31
24.94
22.25
19.40
16.54
13.74
11.00
8.27
5.46
2.52
-0.58
-3.83
-7.22
-10.77
-14.47
-18.28
-22.10
-25.82
-29.35
-32.70
-35.99
-39.52
-43.58
-48.40
-53.95
-59.86
-65.39
-69.52
-71.18
-69.57
-64.32
-55.64
-44.27
-31.28
-17.83
-4.91
6.80
17.02
25.68
32.91
38.82
43.47
46.86
49.00
49.99
49.99
49.24
47.99
46.45
44.80
43.14
41.57
40.12
38.76
37.45
36.08
34.62
33.04
31.35
29.55
27.53
25.20
22.52
19.53
16.42
13.39
10.62
8.12
5.80
3.51
1.13
-1.41
-4.08
-6.84
-9.67
-12.57
-15.58
-18.76
-22.10
-25.54
-28.98
-32.35
-35.64
-39.01
-42.69
-46.95
-51.85
-57.05
-61.79
-65.05
-65.79
-63.31
-57.47
-48.67
-37.73
-25.67
-13.46
-1.90
8.42
17.20
24.35
29.90
33.95
36.57
37.84
37.85
36.76
34.86
32.56
30.20
28.09
26.36
25.04
24.05
23.33
22.77
22.27
21.71
20.96
19.95
18.62
16.95
14.99
12.80
10.48
8.13
5.86
3.72
1.67
-0.39
-2.62
-5.18
-8.11
-11.35
-14.75
-18.09
-21.14
-23.80
-26.13
-28.33
-30.73
-33.72
-37.56
-42.33
-47.78
-53.32
-58.07
-61.03
-61.33
-58.41
-52.24
-43.29
-32.39
-20.55
-8.70
2.48
12.55
21.29
28.55
34.28
38.42
41.06
42.37
42.63
42.13
41.11
39.68
37.88
35.75
33.46
31.25
29.37
27.98
27.08
26.46
25.90
25.20
24.24
23.03
21.54
19.72
17.49
14.83
11.83
8.71
5.70
2.89
0.26
-2.38
-5.27
-8.58
-12.34
-16.40
-20.51
-24.41
-27.90
-30.98
-33.80
-36.69
-39.98
-43.99
-48.82
-54.31
-59.98
-65.09
-68.71
-69.93
-68.05
-62.75
-54.21
-43.11
-30.45
-17.37
-4.86
6.38
16.06
24.22
31.06
36.76
41.34
44.69
46.68
47.26
46.61
45.09
43.13
41.08
39.12
37.29
35.57
33.97
32.57
31.44
30.62
29.98
29.31
28.36
26.97
25.13
22.91
20.47
17.92
15.32
12.67
9.92
7.04
4.02
0.90
-2.29
-5.50
-8.69
-11.85
-14.98
-18.05
-21.02
-23.90
-26.70
-29.57
-32.73
-36.46
-40.94
-46.11
-51.58
-56.63
-60.36
-61.93
-60.72
-56.56
-49.65
-40.55
-30.00
-18.80
-7.70
2.68
11.89
19.66
25.86
30.49
33.63
35.44
36.08
35.79
34.84
33.47
31.89
30.26
28.62
27.03
25.54
24.23
23.21
22.50
22.04
21.66
21.15
20.34
19.15
17.55
15.62
13.42
11.00
8.39
5.62
2.69
-0.43
-3.79
-7.44
-11.29
-15.17
-18.84
-22.07
-24.77
-27.08
-29.32
-31.94
-35.36
-39.84
-45.28
-51.21
-56.79
-60.98
-62.78
-61.49
-56.94
-49.40
-39.60
-28.43
-16.75
-5.27
5.46
15.07
23.29
29.92
34.92
38.33
40.29
41.03
40.81
39.93
38.63
37.07
35.40
33.69
32.03
30.50
29.23
28.29
27.66
27.24
26.84
26.27
25.38
24.11
22.42
20.38
18.01
15.37
12.51
9.49
6.34
3.06
-0.39
-4.08
-7.97
-11.99
-15.95
-19.66
-23.02
-26.04
-28.89
-31.83
-35.15
-39.09
-43.73
-48.97
-54.41
-59.44
-63.20
-64.85
-63.67
-59.38
-52.12
-42.52
-31.45
-19.84
-8.51
2.01
11.39
19.51
26.34
31.84
36.03
38.92
40.60
41.25
41.09
40.39
39.35
38.07
36.61
35.00
33.33
31.75
30.41
29.39
28.66
28.07
27.44
26.60
25.42
23.84
21.83
19.41
16.64
13.62
10.51
7.44
4.50
1.66
-1.18
-4.13
-7.30
-10.67
-14.16
-17.64
-20.98
-24.09
-27.01
-29.91
-33.08
-36.83
-41.36
-46.52
-51.81
-56.35
-59.17
-59.37
-56.49
-50.53
-41.97
-31.60
-20.32
-9.01
1.67
11.25
19.44
26.15
31.35
35.09
37.49
38.74
39.10
38.82
38.10
37.02
35.61
33.88
31.96
30.07
28.45
27.27
26.48
25.95
25.46
24.86
24.07
23.07
21.84
20.28
18.34
15.99
13.30
10.43
7.53
4.69
1.95
-0.78
-3.58
-6.54
-9.68
-12.95
-16.23
-19.43
-22.50
-25.47
-28.45
-31.59
-35.04
-38.90
-43.27
-48.13
-53.31
-58.42
-62.84
-65.77
-66.38
-64.04
-58.51
-50.02
-39.24
-27.13
-14.70
-2.85
7.82
16.98
24.59
30.70
35.47
39.03
41.53
43.13
44.01
44.35
44.23
43.70
42.72
41.28
39.45
37.45
35.56
34.07
33.12
32.67
32.49
32.26
31.69
30.61
29.01
27.01
24.76
22.38
19.94
17.42
14.80
12.09
9.32
6.57
3.87
1.21
-1.47
-4.26
-7.20
-10.29
-13.44
-16.58
-19.60
-22.50
-25.34
-28.24
-31.35
-34.80
-38.74
-43.19
-48.06
-53.04
-57.54
-60.83
-62.08
-60.65
-56.23
-48.98
-39.52
-28.73
-17.54
-6.76
3.08
11.74
19.10
25.14
29.84
33.19
35.20
35.93
35.54
34.23
32.28
30.00
27.72
25.72
24.21
23.25
22.76
22.60
22.55
22.47
22.26
21.88
21.29
20.42
19.18
17.50
15.40
12.94
10.33
7.73
5.26
2.92
0.57
-1.92
-4.68
-7.67
-10.74
-13.68
-16.28
-18.49
-20.36
-22.12
-24.01
-26.29
-29.15
-32.75
-37.11
-42.10
-47.33
-52.13
-55.60
-56.81
-55.06
-50.13
-42.37
-32.61
-21.90
-11.21
-1.21
7.76
15.61
22.28
27.70
31.77
34.40
35.69
35.88
35.27
34.19
32.83
31.29
29.61
27.86
26.18
24.74
23.68
23.05
22.81
22.75
22.64
22.22
21.29
19.80
17.83
15.56
13.17
10.82
8.49
6.12
3.58
0.81
-2.19
-5.36
-8.66
-12.09
-15.65
-19.34
-23.09
-26.82
-30.41
-33.82
-37.12
-40.54
-44.38
-48.92
-54.25
-60.10
-65.80
-70.38
-72.83
-72.39
-68.78
-62.27
-53.54
-43.48
-32.90
-22.48
-12.72
-4.01
3.34
9.14
13.31
15.92
17.20
17.42
16.92
15.95
14.70
13.32
11.95
10.75
9.92
9.63
10.02
11.05
12.55
14.26
15.85
17.10
17.84
18.06
17.81
17.20
16.32
15.30
14.26
13.35
12.66
12.23
11.95
11.68
11.22
10.45
9.32
7.88
6.23
4.46
2.67
0.91
-0.84
-2.65
-4.74
-7.40
-10.84
-14.96
-19.26
-22.80
-24.48
-23.41
-19.22
-12.17
-3.07
7.07
17.31
26.95
35.55
42.87
48.77
53.15
55.94
57.15
56.84
55.17
52.36
48.68
44.41
39.85
35.26
30.87
26.86
23.38
20.58
18.57
17.36
16.88
16.89
17.08
17.11
16.70
15.68
14.03
11.84
9.27
6.46
3.48
0.34
-2.98
-6.54
-10.36
-14.35
-18.35
-22.14
-25.49
-28.30
-30.70
-33.02
-35.70
-39.09
-43.22
-47.76
-51.98
-54.99
-55.96
-54.28
-49.73
-42.46
-32.93
-21.83
-10.02
1.67
12.50
21.89
29.51
35.24
39.06
41.04
41.34
40.20
38.02
35.29
32.49
29.95
27.80
25.98
24.39
22.97
21.73
20.73
19.97
19.35
18.63
17.58
16.04
14.03
11.68
9.10
6.32
3.28
-0.14
-3.95
-8.03
-12.21
-16.31
-20.21
-23.94
-27.55
-31.15
-34.84
-38.71
-42.88
-47.36
-52.00
-56.38
-59.82
-61.48
-60.62
-56.80
-50.02
-40.72
-29.72
-18.01
-6.55
3.88
12.81
20.14
25.97
30.51
33.92
36.23
37.44
37.51
36.56
34.81
32.57
30.11
27.64
25.26
23.00
20.91
19.08
17.58
16.48
15.73
15.18
14.57
13.64
12.14
9.93
7.04
3.63
-0.03
-3.68
-7.13
-10.34
-13.41
-16.48
-19.69
-23.20
-27.17
-31.80
-37.28
-43.63
-50.52
-57.20
-62.58
-65.55
-65.31
-61.60
-54.78
-45.64
-35.16
-24.24
-13.62
-3.80
4.85
12.07
17.70
21.71
24.19
25.42
25.74
25.49
24.97
24.39
23.83
23.32
22.84
22.40
22.04
21.80
21.65
21.54
21.29
20.73
19.73
18.22
16.21
13.78
10.96
7.76
4.12
0.01
-4.52
-9.30
-14.11
-18.83
-23.46
-28.19
-33.33
-39.03
-45.16
-51.20
-56.27
-59.38
-59.73
-56.91
-51.02
-42.58
-32.29
-20.94
-9.23
2.21
12.82
22.07
29.59
35.16
38.83
40.85
41.58
41.33
40.34
38.73
36.59
34.05
31.31
28.58
26.09
23.93
22.06
20.35
18.63
16.77
14.76
12.63
10.43
8.17
5.70
2.85
-0.56
-4.58
-9.06
-13.73
-18.33
-22.69
-26.87
-31.06
-35.50
-40.40
-45.78
-51.52
-57.33
-62.74
-67.10
-69.64
-69.52
-66.11
-59.16
-48.98
-36.41
-22.59
-8.68
4.39
16.09
26.18
34.65
41.55
46.94
50.85
53.32
54.43
54.34
53.23
51.29
48.73
45.75
42.57
39.43
36.56
34.08
31.98
30.09
28.21
26.14
23.78
21.13
18.21
15.04
11.54
7.64
3.36
-1.24
-5.96
-10.62
-15.09
-19.35
-23.41
-27.31
-31.15
-35.12
-39.50
-44.66
-50.79
-57.66
-64.54
-70.22
-73.32
-72.75
-68.02
-59.39
-47.71
-34.18
-19.92
-5.88
7.34
19.33
29.83
38.65
45.67
50.87
54.35
56.28
56.91
56.46
55.10
53.00
50.34
47.31
44.15
41.10
38.40
36.17
34.45
33.19
32.19
31.21
29.98
28.30
26.06
23.28
20.05
16.49
12.70
8.71
4.55
0.23
-4.19
-8.59
-12.89
-17.05
-21.05
-24.92
-28.75
-32.62
-36.68
-41.16
-46.29
-52.25
-58.96
-65.93
-72.22
-76.60
-77.88
-75.21
-68.41
-57.92
-44.74
-30.05
-15.02
-0.58
12.62
24.24
34.09
42.13
48.39
52.94
55.84
57.20
57.20
56.08
54.14
51.66
48.82
45.76
42.57
39.43
36.55
34.20
32.55
31.59
31.12
30.75
30.10
28.86
26.93
24.42
21.53
18.49
15.44
12.41
9.36
6.22
2.92
-0.56
-4.23
-8.08
-12.08
-16.19
-20.34
-24.44
-28.43
-32.30
-36.14
-40.14
-44.58
-49.73
-55.70
-62.26
-68.74
-74.10
-77.12
-76.73
-72.30
-63.83
-51.99
-37.88
-22.78
-7.88
5.92
18.15
28.67
37.56
44.92
50.79
55.08
57.71
58.69
58.19
56.56
54.21
51.51
48.76
46.13
43.75
41.69
39.95
38.42
36.93
35.30
33.40
31.23
28.86
26.43
24.03
21.69
19.33
16.83
14.07
10.97
7.59
4.11
0.73
-2.42
-5.36
-8.28
-11.41
-14.90
-18.73
-22.72
-26.61
-30.25
-33.63
-36.91
-40.34
-44.13
-48.42
-53.26
-58.62
-64.30
-69.88
-74.67
-77.73
-78.05
-74.81
-67.67
-56.89
-43.34
-28.22
-12.81
1.85
15.09
26.54
36.06
43.63
49.28
53.12
55.41
56.48
56.66
56.19
55.14
53.47
51.13
48.21
45.02
41.98
39.51
37.84
36.91
36.39
35.85
34.90
33.36
31.28
28.85
26.32
23.81
21.34
18.76
15.90
12.66
9.09
5.34
1.65
-1.75
-4.76
-7.47
-10.09
-12.88
-16.02
-19.56
-23.37
-27.25
-31.06
-34.71
-38.21
-41.65
-45.18
-48.98
-53.20
-57.90
-62.91
-67.71
-71.48
-73.18
-71.86
-66.91
-58.30
-46.58
-32.79
-18.17
-3.91
9.09
20.25
29.33
36.31
41.36
44.70
46.56
47.17
46.76
45.52
43.62
41.25
38.60
35.91
33.41
31.34
29.82
28.81
28.18
27.69
27.14
26.39
25.36
24.03
22.36
20.31
17.87
15.04
11.92
8.64
5.38
2.27
-0.66
-3.45
-6.20
-9.05
-12.10
-15.39
-18.90
-22.52
-26.14
-29.63
-32.97
-36.17
-39.34
-42.62
-46.22
-50.30
-54.90
-59.83
-64.58
-68.36
-70.18
-69.14
-64.70
-56.86
-46.15
-33.53
-20.12
-7.03
4.88
15.02
23.11
29.14
33.35
36.06
37.65
38.39
38.49
38.04
37.05
35.53
33.54
31.23
28.82
26.66
25.05
24.19
24.08
24.49
25.07
25.44
25.37
24.77
23.69
22.21
20.35
18.10
15.41
12.29
8.83
5.22
1.67
-1.66
-4.73
-7.69
-10.76
-14.15
-17.91
-21.91
-25.87
-29.56
-32.87
-35.91
-38.95
-42.28
-46.10
-50.49
-55.33
-60.30
-64.89
-68.34
-69.75
-68.27
-63.35
-54.99
-43.74
-30.65
-16.91
-3.59
8.56
19.16
28.09
35.33
40.87
44.73
46.97
47.81
47.59
46.71
45.47
43.98
42.19
40.04
37.50
34.74
32.04
29.67
27.79
26.38
25.30
24.31
23.24
21.95
20.40
18.53
16.32
13.81
11.07
8.25
5.45
2.79
0.26
-2.25
-4.87
-7.76
-11.01
-14.58
-18.37
-22.18
-25.85
-29.26
-32.45
-35.59
-38.97
-42.89
-47.58
-53.05
-58.98
-64.68
-69.17
-71.41
-70.52
-66.09
-58.23
-47.58
-35.07
-21.73
-8.48
3.92
14.96
24.28
31.75
37.39
41.37
43.89
45.15
45.34
44.61
43.17
41.26
39.14
37.04
35.08
33.32
31.74
30.33
29.09
28.01
27.08
26.20
25.23
24.01
22.43
20.45
18.09
15.37
12.33
9.06
5.61
2.13
-1.26
-4.54
-7.77
-11.08
-14.63
-18.39
-22.22
-25.85
-29.05
-31.80
-34.32
-37.03
-40.36
-44.57
-49.61
-55.09
-60.29
-64.29
-66.14
-65.08
-60.68
-52.99
-42.53
-30.18
-17.00
-4.03
7.92
18.29
26.83
33.54
38.57
42.11
44.35
45.44
45.50
44.69
43.18
41.23
39.11
37.04
35.20
33.67
32.40
31.30
30.21
29.01
27.68
26.25
24.77
23.25
21.59
19.64
17.25
14.41
11.22
7.89
4.60
1.44
-1.65
-4.75
-7.95
-11.23
-14.53
-17.73
-20.80
-23.75
-26.64
-29.58
-32.61
-35.78
-39.19
-43.01
-47.41
-52.48
-58.02
-63.42
-67.69
-69.70
-68.48
-63.60
-55.27
-44.26
-31.64
-18.48
-5.68
6.18
16.70
25.69
33.09
38.93
43.31
46.38
48.28
49.09
48.88
47.74
45.78
43.24
40.46
37.79
35.51
33.80
32.64
31.87
31.26
30.54
29.56
28.23
26.53
24.47
22.07
19.35
16.41
13.36
10.36
7.53
4.88
2.33
-0.26
-3.04
-6.05
-9.27
-12.64
-16.07
-19.52
-22.98
-26.45
-29.94
-33.47
-37.15
-41.14
-45.61
-50.59
-55.82
-60.73
-64.43
-65.97
-64.56
-59.84
-51.96
-41.55
-29.50
-16.79
-4.28
7.37
17.70
26.44
33.43
38.65
42.17
44.15
44.81
44.39
43.15
41.35
39.18
36.85
34.56
32.48
30.79
29.60
28.92
28.58
28.31
27.82
26.95
25.65
24.05
22.28
20.41
18.40
16.09
13.39
10.27
6.87
3.41
0.09
-2.95
-5.74
-8.44
-11.23
-14.26
-17.56
-21.02
-24.46
-27.67
-30.57
-33.25
-35.95
-39.02
-42.76
-47.33
-52.54
-57.88
-62.51
-65.45
-65.80
-63.00
-56.87
-47.73
-36.28
-23.44
-10.22
2.42
13.76
23.34
31.01
36.86
41.16
44.17
46.13
47.15
47.24
46.43
44.77
42.45
39.74
36.97
34.46
32.42
30.95
29.99
29.36
28.88
28.36
27.69
26.76
25.48
23.77
21.56
18.90
15.90
12.79
9.78
7.02
4.51
2.16
-0.16
-2.62
-5.30
-8.25
-11.46
-14.89
-18.44
-21.96
-25.31
-28.37
-31.17
-33.87
-36.74
-40.09
-44.09
-48.62
-53.22
-57.14
-59.49
-59.45
-56.51
-50.61
-42.08
-31.60
-19.99
-8.11
3.24
13.41
21.92
28.48
33.07
35.81
36.99
36.92
35.93
34.34
32.41
30.36
28.38
26.60
25.07
23.80
22.77
21.93
21.27
20.78
20.42
20.09
19.69
19.02
17.93
16.34
14.22
11.69
8.88
5.94
2.96
-0.03
-3.08
-6.21
-9.43
-12.74
-16.05
-19.32
-22.46
-25.48
-28.40
-31.32
-34.43
-37.95
-42.08
-46.88
-52.14
-57.35
-61.69
-64.23
-64.17
-61.03
-54.84
-46.04
-35.36
-23.66
-11.71
-0.13
10.59
20.10
28.09
34.40
38.95
41.85
43.30
43.61
43.08
41.96
40.42
38.58
36.57
34.54
32.66
31.09
29.88
28.97
28.24
27.53
26.71
25.71
24.49
23.04
21.33
19.33
17.06
14.57
11.94
9.24
6.52
3.75
0.89
-2.13
-5.34
-8.73
-12.27
-15.89
-19.53
-23.08
-26.44
-29.54
-32.44
-35.32
-38.51
-42.34
-47.03
-52.47
-58.12
-63.10
-66.33
-66.85
-64.07
-57.98
-49.03
-38.05
-25.98
-13.71
-1.94
8.82
18.18
25.94
32.08
36.73
40.13
42.50
43.96
44.48
44.01
42.58
40.41
37.88
35.40
33.34
31.80
30.75
30.06
29.57
29.16
28.71
28.08
27.13
25.75
23.95
21.80
19.40
16.87
14.30
11.73
9.16
6.56
3.89
1.06
-1.99
-5.28
-8.78
-12.36
-15.84
-19.05
-21.94
-24.57
-27.12
-29.80
-32.87
-36.51
-40.82
-45.74
-50.93
-55.79
-59.45
-60.96
-59.57
-54.91
-47.12
-36.89
-25.16
-12.96
-1.18
9.55
18.84
26.46
32.29
36.34
38.67
39.44
38.95
37.49
35.45
33.16
30.91
28.88
27.19
25.88
24.89
24.17
23.64
23.22
22.88
22.55
22.16
21.59
20.66
19.26
17.33
14.96
12.30
9.50
6.66
3.77
0.77
-2.37
-5.67
-9.06
-12.50
-15.91
-19.27
-22.58
-25.83
-29.01
-32.18
-35.50
-39.21
-43.59
-48.74
-54.45
-60.12
-64.78
-67.39
-67.05
-63.33
-56.33
-46.69
-35.29
-23.10
-10.96
0.51
10.88
19.90
27.41
33.38
37.85
40.89
42.64
43.28
43.06
42.26
41.12
39.83
38.47
37.08
35.66
34.27
32.99
31.90
31.05
30.37
29.69
28.77
27.41
25.48
22.97
20.04
16.88
13.73
10.73
7.93
5.25
2.55
-0.29
-3.32
-6.55
-9.94
-13.47
-17.08
-20.73
-24.29
-27.69
-30.90
-34.03
-37.39
-41.37
-46.24
-52.01
-58.23
-64.03
-68.29
-69.93
-68.20
-62.88
-54.28
-43.15
-30.46
-17.25
-4.43
7.30
17.52
26.08
33.02
38.53
42.75
45.79
47.68
48.44
48.15
46.98
45.19
43.08
40.93
38.91
37.13
35.58
