1566457416.00
64.000000
-0.00
-0.00
-0.00
-0.00
-0.00
-0.00
-0.00
-0.00
-0.00
-0.00
0.00
0.01
0.01
-0.00
-0.03
-0.05
-0.05
0.00
0.13
0.36
0.66
1.01
1.37
1.72
2.06
2.40
2.79
3.24
3.80
4.42
5.06
5.66
6.20
6.68
7.15
7.68
8.31
9.14
10.09
11.04
11.88
12.56
13.14
13.76
14.65
15.96
17.91
20.32
22.90
25.38
27.58
29.57
31.68
34.32
37.81
42.54
48.15
54.10
59.83
64.97
69.58
74.14
79.34
85.71
93.76
103.00
112.62
121.73
129.77
136.75
143.30
150.75
157.77
166.64
177.95
191.79
206.97
220.57
228.25
225.36
208.53
176.87
132.76
80.05
23.07
-34.94
-92.44
-149.16
-205.23
-260.37
-313.74
-363.87
-409.83
-450.91
-486.50
-515.74
-537.23
-549.22
-549.96
-538.37
-514.21
-478.67
-433.88
-382.45
-327.02
-269.84
-212.63
-156.66
-102.95
-52.37
-5.90
35.58
71.43
101.35
125.50
144.38
158.69
169.15
176.37
180.75
182.57
182.07
179.51
175.23
169.65
163.18
156.15
148.81
141.30
133.69
126.02
118.33
110.69
103.16
95.80
88.68
81.83
75.25
68.95
62.95
57.25
51.86
46.78
42.03
37.59
33.45
29.61
26.07
22.81
19.83
17.11
14.67
12.48
10.54
8.83
7.35
6.07
4.97
4.05
3.27
2.62
2.09
1.65
1.30
1.01
0.79
0.61
0.47
0.37
0.28
0.22
0.18
0.14
0.12
0.10
0.10
0.10
0.10
0.11
0.13
0.16
0.19
0.22
0.26
0.30
0.34
0.38
0.43
0.48
0.52
0.57
0.62
0.68
0.73
0.80
0.87
0.94
1.02
1.11
1.22
1.33
1.46
1.60
1.76
1.94
2.14
2.37
2.61
2.88
3.18
3.51
3.87
4.26
4.68
5.15
5.64
6.18
6.76
7.37
8.03
8.74
9.48
10.28
11.11
11.99
12.92
13.90
14.93
16.03
17.20
18.41
19.67
20.93
22.13
23.19
24.01
24.48
24.47
23.85
22.56
20.55
17.83
14.46
10.54
6.25
1.78
-2.66
-6.84
-10.57
-13.71
-16.15
-17.84
-18.79
-19.03
-18.67
-17.80
-16.57
-15.08
-13.43
-11.69
-9.92
-8.14
-6.33
-4.53
-2.77
-1.01
0.76
2.57
4.44
6.44
8.60
11.00
13.55
16.19
18.91
21.70
24.58
27.56
30.67
33.99
37.70
41.61
45.65
49.82
54.14
58.63
63.36
68.40
73.89
80.03
86.50
93.15
99.89
106.68
113.48
120.31
127.21
134.28
141.76
149.14
156.11
162.40
167.71
171.62
173.54
172.53
167.00
159.88
151.88
143.41
134.70
125.90
117.14
108.57
100.37
92.73
85.98
79.65
73.52
67.39
61.17
54.81
48.34
41.91
35.74
30.13
24.77
19.51
14.17
8.62
2.77
-3.27
-9.30
-15.02
-20.13
-24.82
-29.36
-34.11
-39.43
-45.51
-52.29
-59.49
-66.73
-73.70
-80.56
-87.70
-95.66
-104.84
-115.38
-126.98
-139.05
-151.03
-162.52
-173.79
-185.24
-197.67
-211.64
-227.51
-245.59
-265.72
-287.71
-310.59
-332.74
-351.55
-363.76
-366.51
-357.98
-338.60
-310.69
-278.07
-244.81
-214.32
-189.08
-170.58
-160.03
-157.96
-163.71
-174.59
-185.67
-191.09
-185.87
-168.21
-140.05
-106.25
-72.07
-40.94
-13.59
11.11
34.49
56.87
77.29
94.25
106.74
114.63
118.47
118.97
116.62
111.56
103.98
94.08
82.10
68.66
55.05
43.27
35.83
34.50
39.20
47.47
55.52
59.68
58.00
50.83
39.97
27.76
16.19
6.84
0.63
-2.19
-2.61
-2.91
-6.05
-14.44
-28.33
-45.70
-62.94
-76.48
-84.35
-86.30
-83.18
-75.49
-62.75
-44.03
-19.24
9.83
39.31
64.45
81.40
88.91
88.78
84.87
81.35
80.90
83.64
87.66
90.44
90.29
87.13
82.20
77.08
72.59
68.39
63.34
56.17
46.61
35.94
26.45
20.30
18.22
18.56
18.15
13.81
4.36
-8.44
-20.83
-29.09
-32.19
-32.24
-33.36
-39.26
-51.39
-68.51
-87.72
-105.84
-119.99
-127.63
-126.44
-114.46
-91.19
-58.65
-21.26
15.37
46.28
69.04
83.74
92.24
96.84
99.50
101.51
103.48
105.46
106.57
105.45
100.88
92.71
81.94
70.55
60.44
52.44
46.74
43.09
41.43
41.89
43.91
45.78
44.73
38.43
26.48
10.90
-4.81
-17.40
-25.76
-30.94
-35.04
-39.86
-45.68
-51.95
-58.47
-66.41
-77.70
-93.19
-111.07
-126.83
-134.93
-131.56
-116.43
-92.64
-64.85
-36.40
-8.58
18.77
45.31
68.69
84.99
90.87
86.07
74.36
62.21
55.48
56.89
64.67
74.09
80.28
80.32
74.37
65.02
55.71
49.12
46.07
45.48
44.91
42.05
35.87
27.34
18.57
11.62
6.96
3.08
-2.63
-12.09
-24.99
-38.67
-49.54
-55.59
-57.92
-60.40
-67.34
-80.65
-98.23
-114.97
-125.33
-125.89
-116.70
-100.16
-79.03
-55.01
-28.71
-0.76
26.84
50.93
68.46
78.27
81.82
82.14
81.99
82.43
82.49
80.45
75.15
66.76
56.62
46.47
37.83
31.54
27.72
25.78
24.91
24.29
23.34
21.90
19.97
17.04
12.29
4.94
-5.27
-17.25
-28.97
-38.51
-45.43
-50.79
-56.50
-63.84
-72.70
-81.82
-90.17
-97.99
-106.58
-116.40
-125.58
-129.48
-122.59
-101.71
-68.45
-29.30
7.16
34.52
51.05
59.77
65.71
72.67
80.98
88.08
90.87
87.73
79.92
70.73
63.48
59.93
59.48
59.80
58.10
52.87
44.35
34.58
26.07
20.56
18.04
17.05
15.60
12.51
8.21
4.21
2.02
1.77
2.07
0.81
-3.97
-13.06
-26.28
-42.95
-62.61
-84.33
-105.58
-122.17
-128.73
-121.22
-99.04
-66.29
-30.23
1.87
25.84
41.63
52.03
60.25
67.67
73.70
76.92
76.90
74.70
72.44
71.90
73.39
75.86
77.27
75.82
70.30
60.74
48.13
34.48
22.39
14.31
11.84
14.48
19.91
24.94
26.83
24.31
17.81
8.93
-0.69
-9.58
-16.97
-22.54
-26.88
-31.62
-39.43
-52.92
-72.94
-97.22
-120.35
-135.68
-138.20
-127.14
-106.11
-80.99
-56.58
-34.34
-12.98
9.72
34.23
58.47
78.97
93.06
100.11
101.31
98.22
91.61
81.64
68.70
54.62
42.36
34.95
33.81
38.07
45.04
51.55
55.31
55.22
51.46
44.80
36.40
27.52
19.31
12.33
6.24
0.37
-6.04
-13.17
-20.73
-28.55
-36.95
-46.62
-57.94
-70.61
-83.52
-95.32
-104.85
-111.27
-113.57
-110.26
-99.71
-81.18
-56.00
-28.00
-2.19
17.23
29.07
35.35
39.87
45.57
52.86
59.69
63.07
61.54
56.07
49.43
44.36
41.91
41.22
40.42
37.94
33.80
29.22
25.62
23.85
23.88
24.87
25.82
25.79
23.78
19.44
13.15
6.15
-0.13
-5.12
-10.15
-17.99
-31.30
-50.73
-73.90
-96.19
-113.03
-121.78
-122.29
-116.02
-104.08
-86.62
-63.41
-35.57
-6.43
19.02
36.69
45.45
47.83
48.66
52.12
59.62
69.35
77.80
82.08
81.67
78.24
74.37
71.88
70.21
67.03
59.64
46.58
29.08
11.03
-2.37
-7.14
-2.37
8.59
19.73
24.94
21.08
9.36
-5.66
-18.92
-27.83
-33.18
-38.03
-45.13
-54.86
-65.28
-73.67
-78.76
-81.48
-83.94
-87.29
-90.67
-91.41
-87.21
-77.85
-65.16
-51.67
-38.55
-24.75
-8.13
12.34
34.99
56.07
71.74
80.48
83.35
83.30
82.70
82.19
80.68
76.78
70.14
61.91
54.32
49.21
47.35
48.08
49.81
50.51
48.21
41.75
31.22
18.36
6.01
-2.96
-7.21
-7.77
-7.38
-9.04
-14.55
-23.93
-35.81
-48.66
-61.59
-74.20
-86.43
-97.91
-108.30
-117.51
-125.48
-131.55
-133.93
-129.44
-115.02
-89.55
-54.94
-16.30
20.41
50.43
71.97
86.01
94.86
100.57
103.92
104.96
103.66
100.52
96.30
91.29
85.07
77.03
67.00
55.86
45.37
37.01
31.24
27.41
24.70
22.70
21.60
21.26
20.72
18.10
11.93
2.36
-8.72
-18.58
-25.56
-30.28
-35.29
-43.17
-54.95
-69.58
-84.75
-98.87
-111.72
-123.59
-133.91
-140.34
-139.56
-129.13
-108.88
-81.04
-49.25
-16.98
12.96
38.41
57.56
69.20
73.34
71.68
66.96
61.58
56.89
52.36
46.82
40.00
33.19
28.77
28.47
31.99
36.81
39.69
38.64
33.91
28.01
24.01
23.89
27.55
32.52
35.01
31.50
20.25
2.49
-18.18
-37.19
-50.93
-58.68
-62.71
-67.19
-75.63
-89.07
-104.87
-118.17
-124.29
-120.59
-107.16
-86.12
-60.23
-31.93
-3.14
24.25
48.13
66.61
78.64
84.72
86.47
85.56
82.63
77.41
69.70
60.58
52.68
48.79
49.66
53.31
56.01
54.68
48.93
40.82
33.06
26.69
20.46
11.85
-0.48
-15.03
-28.54
-38.04
-43.04
-45.52
-48.32
-53.16
-59.71
-66.19
-71.46
-75.75
-80.55
-87.07
-95.15
-103.50
-110.57
-115.10
-116.25
-112.98
-103.65
-86.82
-62.50
-32.98
-2.32
25.26
47.17
63.33
75.45
85.42
94.19
101.48
106.41
108.45
107.62
104.14
98.00
88.86
77.19
64.50
53.07
45.08
41.04
39.83
39.41
38.29
36.16
33.45
30.15
25.00
16.04
2.52
-13.74
-28.62
-37.67
-39.14
-35.16
-30.99
-32.38
-42.59
-61.24
-85.13
-110.28
-133.41
-151.77
-162.71
-163.14
-150.88
-126.22
-93.12
-58.03
-27.46
-5.05
9.78
20.73
31.96
46.08
63.16
81.43
98.89
114.04
125.81
133.02
134.36
129.03
117.40
101.43
83.70
66.65
51.62
39.05
28.99
21.66
17.60
17.11
19.96
25.21
31.24
36.36
38.81
37.09
30.19
18.50
3.74
-11.52
-25.05
-35.97
-45.54
-55.92
-68.97
-84.75
-101.52
-116.73
-128.59
-136.52
-140.51
-139.65
-131.61
-113.60
-84.42
-46.29
-4.97
32.34
59.95
75.72
81.51
81.15
78.23
74.74
71.15
67.75
65.30
64.81
66.45
69.16
70.89
69.82
65.23
57.80
48.63
38.73
28.97
20.59
15.32
14.56
18.17
23.59
26.55
23.21
12.19
-4.64
-23.36
-40.77
-56.15
-70.91
-86.77
-103.94
-120.15
-132.26
-138.39
-139.00
-135.83
-129.88
-119.71
-102.19
-75.26
-40.19
-2.37
30.90
54.16
66.43
71.10
73.16
76.12
80.43
84.34
85.95
84.63
81.08
76.14
70.05
62.60
54.03
45.85
40.09
38.39
40.57
44.60
47.49
46.68
41.04
31.07
18.40
4.94
-7.62
-18.58
-28.05
-36.87
-45.74
-54.78
-63.37
-70.72
-76.86
-83.02
-91.19
-102.72
-116.75
-130.12
-138.24
-137.31
-126.04
-105.99
-80.64
-53.46
-26.46
-0.04
25.87
50.77
73.02
90.42
101.70
107.22
108.92
109.35
110.22
111.80
112.99
112.50
109.49
103.71
95.60
85.40
73.58
60.68
47.56
35.56
25.83
19.11
15.57
14.83
16.03
17.69
17.57
13.08
2.71
-13.34
-32.35
-50.22
-63.36
-70.61
-73.92
-77.35
-84.65
-97.18
-113.24
-129.01
-140.78
-146.23
-144.84
-136.54
-120.98
-97.39
-65.70
-27.96
11.39
46.66
72.97
88.16
93.27
91.73
87.75
84.66
84.06
85.73
88.13
89.04
86.80
81.24
73.85
67.03
62.55
60.15
57.66
52.48
43.94
34.17
27.27
26.48
31.76
39.05
42.06
35.97
20.22
-1.26
-22.26
-37.73
-46.25
-49.92
-52.57
-57.45
-65.93
-77.63
-91.46
-106.26
-120.86
-133.36
-140.59
-139.05
-126.39
-102.66
-70.86
-35.69
-2.04
26.51
48.07
62.29
69.95
72.43
71.66
69.47
67.36
65.98
65.37
65.32
65.74
66.68
67.70
67.53
64.18
56.32
44.37
30.95
19.73
13.52
12.81
15.64
18.98
20.12
17.83
12.30
4.49
-4.56
-14.17
-23.81
-33.39
-42.93
-52.98
-64.43
-78.07
-93.95
-110.79
-126.02
-136.15
-137.89
-128.82
-108.47
-78.63
-43.28
-7.78
22.62
44.43
57.08
62.70
64.90
66.64
68.94
70.88
70.75
67.85
63.06
58.37
55.11
52.94
49.63
42.95
32.62
20.83
11.48
7.78
10.45
17.36
24.74
29.25
29.18
24.69
16.89
7.15
-3.52
-14.34
-24.73
-34.35
-43.41
-52.58
-62.65
-74.38
-87.80
-102.40
-117.14
-130.43
-140.09
-142.99
-136.04
-117.12
-86.77
-48.93
-10.07
22.90
45.79
58.55
64.97
70.24
77.75
87.67
97.04
102.35
101.59
95.40
86.36
77.06
68.85
61.82
55.60
50.27
46.16
43.06
39.98
35.32
28.16
19.03
9.84
2.71
-1.47
-3.16
-3.81
-4.75
-6.65
-9.88
-14.85
-22.50
-33.73
-48.86
-67.03
-86.53
-105.35
-121.60
-133.21
-137.57
-131.95
-114.61
-86.47
-51.77
-16.89
12.32
33.12
46.72
56.86
66.71
77.21
86.65
92.52
93.45
90.37
85.58
81.03
77.10
72.76
66.85
59.24
50.83
42.81
35.75
29.47
24.04
20.54
20.85
26.23
35.67
45.43
50.58
47.11
34.13
14.34
-7.47
-26.82
-41.24
-50.72
-57.17
-62.99
-70.62
-82.13
-98.67
-119.71
-142.53
-161.89
-171.42
-165.92
-143.80
-107.84
-64.60
-21.95
13.71
38.99
54.19
61.77
65.11
66.81
68.33
69.86
70.86
70.51
68.31
64.47
59.86
55.77
53.36
52.70
52.92
52.61
50.71
47.13
42.60
37.80
32.44
25.26
14.82
0.73
-15.41
-30.30
-40.57
-44.28
-41.95
-36.26
-30.73
-28.31
-30.56
-37.78
-49.43
-64.41
-80.75
-95.57
-105.33
-106.93
-98.72
-81.40
-57.74
-31.56
-6.37
15.48
32.97
46.08
55.38
61.70
65.91
68.73
70.44
70.62
68.69
64.51
59.03
54.04
51.12
50.62
51.21
50.85
48.02
42.57
35.73
29.08
23.30
17.88
11.72
4.00
-4.95
-13.91
-21.36
-26.07
-27.57
-26.34
-24.08
-23.53
-28.05
-40.18
-60.36
-86.13
-112.80
-135.23
-149.76
-155.15
-151.97
-141.54
-124.54
-101.03
-71.47
-37.87
-4.15
25.11
46.84
60.74
69.20
75.57
82.04
88.48
93.44
95.21
93.35
88.93
83.62
78.32
73.21
67.73
61.56
55.31
49.67
44.99
40.83
36.39
31.37
26.37
22.18
18.49
14.13
7.56
-1.35
-10.55
-16.76
-17.76
-14.33
-10.37
-10.88
-19.26
-35.49
-56.83
-79.73
-102.05
-122.72
-140.53
-152.50
-154.22
-142.07
-116.01
-80.45
-42.80
-9.89
15.16
33.33
47.97
61.99
75.87
87.75
95.33
97.61
95.48
91.32
87.58
85.57
85.26
85.46
84.36
80.57
73.61
64.15
53.77
44.47
37.75
33.99
32.64
32.52
32.38
31.28
28.50
23.22
14.97
3.99
-8.65
-21.26
-32.24
-40.95
-47.99
-54.76
-62.50
-71.71
-82.10
-93.11
-104.41
-115.91
-127.05
-136.07
-139.74
-134.38
-117.48
-89.60
-54.54
-18.31
13.14
36.29
50.90
59.14
63.73
66.57
68.11
68.35
67.65
66.73
66.24
65.72
63.80
58.84
50.62
40.72
31.97
26.66
25.22
26.32
28.04
29.29
30.02
30.26
29.10
24.57
15.12
0.94
-15.18
-28.96
-36.95
-38.24
-35.02
-31.53
-31.74
-37.43
-48.14
-61.79
-76.07
-89.34
-100.50
-108.65
-112.87
-112.31
-106.26
-94.40
-76.46
-52.74
-24.26
6.60
36.46
61.64
79.48
89.31
92.53
91.49
88.31
84.06
78.88
72.75
66.08
59.86
54.90
51.01
47.42
43.35
38.96
35.42
33.70
33.54
33.22
30.48
24.44
16.49
9.47
5.70
5.03
4.46
-0.17
-11.81
-30.42
-52.94
-74.92
-93.10
-106.71
-117.19
-126.55
-135.66
-143.58
-148.13
-147.16
-139.26
-124.21
-102.68
-76.19
-47.20
-18.83
6.18
26.47
42.74
57.21
71.92
87.17
100.91
109.99
112.06
107.26
98.30
88.58
80.32
73.51
66.63
58.24
48.23
38.02
29.40
23.67
21.23
21.60
23.79
26.42
27.81
26.31
21.16
12.77
2.75
-6.89
-14.75
-20.67
-25.46
-30.07
-35.40
-42.06
-50.95
-63.27
-79.62
-98.96
-117.63
-130.38
-132.58
-122.77
-103.57
-79.91
-56.37
-34.68
-13.69
8.85
33.62
58.33
79.06
92.21
96.45
93.16
85.24
75.82
67.17
60.76
57.09
56.02
56.68
57.66
57.73
56.58
54.82
53.19
51.47
48.35
42.59
34.50
26.51
21.99
22.73
27.29
31.12
29.37
19.65
3.52
-14.70
-30.73
-42.49
-50.94
-58.66
-68.19
-80.74
-96.35
-114.35
-133.78
-152.98
-169.00
-177.57
-174.08
-155.75
-123.36
-81.55
-37.34
2.09
32.08
51.63
62.98
70.16
76.81
84.83
93.41
99.75
100.69
94.36
81.53
65.37
50.29
39.98
35.52
34.93
34.12
29.48
19.76
7.44
-2.86
-6.68
-2.58
6.98
17.03
22.53
21.10
13.35
1.80
-11.34
-25.21
-40.03
-55.77
-71.16
-84.25
-93.59
-99.98
-105.72
-113.11
-122.23
-129.87
-131.12
-122.06
-102.17
-74.44
-43.54
-13.08
15.41
42.07
67.02
88.87
105.11
113.41
113.58
107.89
100.13
93.55
89.39
86.81
84.07
79.95
74.22
67.42
59.69
50.89
40.50
28.65
16.72
6.70
0.54
-1.10
1.17
5.38
9.17
10.65
8.46
2.20
-7.53
-19.35
-31.57
-42.82
-53.00
-63.38
-75.62
-90.63
-107.24
-122.40
-132.19
-133.48
-125.11
-108.06
-84.54
-57.34
-29.20
-2.51
20.52
38.48
50.81
58.20
62.21
64.60
66.72
68.91
70.84
71.83
71.43
69.62
66.75
63.10
59.06
54.84
50.45
45.95
41.28
36.92
33.46
31.69
31.90
33.45
34.60
33.07
27.10
16.14
1.61
-13.79
-26.96
-35.77
-39.87
-40.77
-41.26
-44.31
-52.05
-64.97
-81.66
-99.03
-113.18
-120.72
-119.70
-110.15
-93.65
-72.64
-49.32
-25.13
-0.94
22.66
44.73
64.10
79.47
90.06
95.66
96.51
92.98
85.74
75.95
65.62
57.35
53.07
53.14
55.59
56.85
53.36
43.85
30.16
16.58
7.67
5.78
10.18
17.54
24.14
27.38
26.49
21.81
13.92
3.33
-9.26
-22.17
-33.18
-40.63
-44.66
-47.60
-52.80
-62.67
-76.96
-92.56
-104.80
-109.92
-106.50
-95.56
-79.56
-60.71
-40.20
-18.26
4.95
28.40
49.84
66.43
75.84
77.20
71.88
62.71
53.36
46.83
44.61
46.11
49.39
52.34
53.61
53.14
51.70
49.78
46.79
41.52
33.13
22.46
12.06
5.08
3.33
5.75
8.97
8.99
3.62
-6.43
-18.20
-28.78
-37.13
-44.66
-53.87
-66.21
-80.82
-95.03
-105.94
-111.90
-113.03
-110.03
-103.11
-91.33
-73.43
-49.25
-20.66
8.38
33.53
51.51
61.28
64.29
63.27
61.02
59.18
58.08
57.04
55.24
52.35
48.86
45.76
43.90
43.41
43.45
42.78
40.38
36.16
30.80
25.33
20.32
15.63
10.98
6.15
1.54
-2.18
-4.74
-6.64
-9.11
-13.41
-20.35
-29.75
-40.63
-51.75
-62.10
-71.25
-79.40
-86.75
-92.65
-95.55
-93.13
-83.44
-66.10
-42.95
-17.89
4.71
21.64
32.10
37.67
41.16
44.92
49.77
54.86
58.64
59.90
58.56
55.43
51.82
48.64
46.03
43.38
39.83
34.99
29.30
23.72
19.22
15.93
13.30
10.37
6.97
3.90
2.69
4.55
9.15
14.73
18.67
19.11
15.72
9.54
1.80
-7.02
-17.37
-29.82
-43.86
-57.66
-68.82
-75.88
-78.96
-79.18
-77.41
-73.05
-64.40
-50.07
-30.61
-8.91
11.04
25.94
35.07
39.87
42.90
45.87
49.10
51.70
52.79
52.22
50.44
47.97
44.73
40.36
34.75
28.59
22.96
19.08
17.30
17.14
17.85
18.83
20.03
21.45
22.97
24.00
23.77
21.83
18.03
12.58
5.45
-3.45
-14.13
-25.89
-37.20
-46.46
-52.87
-57.04
-60.84
-66.51
-75.05
-85.59
-95.54
-101.53
-100.75
-91.56
-74.17
-50.23
-22.77
4.65
28.47
45.94
55.92
59.01
57.40
53.74
50.34
48.12
46.98
46.31
45.52
44.32
42.32
39.10
34.11
27.45
19.90
12.94
7.88
5.49
5.46
6.50
7.21
6.59
4.46
1.29
-2.19
-5.49
-8.38
-10.83
-12.70
-13.83
-14.12
-13.79
-13.41
-13.92
-16.63
-22.83
-33.05
-46.96
-62.84
-78.12
-89.65
-94.47
-90.52
-77.20
-55.86
-29.46
-2.03
22.63
41.92
54.94
62.35
65.60
66.37
65.93
64.87
63.10
59.96
54.62
46.74
36.92
26.95
19.06
14.95
14.65
16.68
18.77
19.44
18.47
16.59
14.62
12.38
9.00
3.74
-3.02
-9.59
-14.07
-15.66
-15.43
-15.65
-18.37
-24.24
-32.37
-41.22
-49.88
-58.74
-68.60
-79.81
-91.06
-99.66
-102.82
-99.00
-88.79
-74.09
-57.11
-38.86
-19.36
1.78
24.16
46.16
65.42
79.56
87.24
88.24
83.46
74.39
63.00
51.43
41.63
34.94
31.57
30.50
30.09
28.99
26.87
24.44
22.81
22.75
24.03
25.93
27.57
28.38
28.01
25.88
21.09
12.84
0.94
-13.38
-27.92
-40.20
-48.40
-52.03
-51.94
-49.81
-47.78
-48.00
-52.38
-62.14
-76.80
-93.77
-108.73
-116.79
-114.43
-100.96
-78.76
-51.96
-24.45
1.54
25.55
47.90
68.27
85.32
97.18
102.45
101.08
94.48
84.86
74.79
66.40
61.10
59.27
59.88
60.81
59.61
54.55
45.60
34.79
24.78
17.68
13.96
12.29
11.18
9.67
7.75
5.66
2.95
-1.63
-9.27
-19.73
-31.13
-40.55
-45.86
-46.99
-46.19
-46.75
-51.54
-61.67
-76.14
-92.75
-108.46
-120.16
-124.92
-120.45
-105.75
-81.91
-52.07
-20.46
8.85
33.63
53.11
67.54
77.05
81.17
79.46
72.47
62.26
51.85
44.33
41.26
42.27
45.55
48.92
50.66
49.77
45.95
39.13
30.14
20.55
12.81
9.18
10.25
14.23
17.28
15.54
6.85
-7.75
-24.87
-40.27
-51.00
-56.51
-58.04
-57.95
-58.20
-60.36
-65.58
-75.22
-89.78
-107.77
-125.12
-136.00
-135.30
-121.08
-95.51
-63.50
-30.46
-0.12
26.20
48.37
66.31
79.18
86.18
87.65
85.45
82.04
79.13
76.86
74.02
69.75
64.36
59.46
56.28
54.81
53.46
50.08
43.43
33.80
23.04
13.34
6.44
2.94
2.44
3.64
4.51
2.62
-4.10
-16.25
-32.50
-49.99
-65.58
-77.38
-85.50
-91.58
-97.35
-103.41
-108.83
-111.90
-111.48
-107.58
-101.04
-92.42
-81.01
-65.05
-42.99
-15.10
15.96
46.01
70.94
88.53
98.81
103.33
103.94
101.94
97.86
92.11
85.36
78.51
72.34
67.08
62.49
58.36
54.65
51.41
48.14
43.88
37.50
28.78
18.64
8.90
1.12
-4.52
-8.94
-13.64
-19.28
-25.46
-31.18
-35.96
-40.47
-46.13
-54.14
-64.33
-75.27
-85.28
-93.48
-100.19
-106.06
-110.74
-112.24
-107.66
-94.67
-73.14
-45.63
-16.36
10.56
32.31
47.85
57.72
63.14
65.71
66.86
67.79
69.00
70.19
70.56
69.53
67.32
64.87
63.01
61.42
58.65
52.98
44.20
34.31
26.61
23.86
26.26
31.32
35.25
35.11
30.29
22.31
13.29
4.50
-3.95
-12.68
-21.79
-30.56
-37.79
-42.98
-46.86
-51.29
-58.30
-68.79
-82.21
-96.69
-109.65
-118.05
-119.04
-110.11
-89.95
-59.50
-22.43
15.31
47.41
69.24
79.43
79.83
74.13
66.07
58.53
52.75
48.80
46.21
44.01
41.05
36.57
30.77
25.02
21.21
20.56
22.39
24.49
24.24
20.61
14.95
10.14
8.59
10.41
13.52
14.55
11.22
3.37
-7.28
-18.53
-28.86
-38.25
-47.60
-57.64
-68.36
-78.91
-88.29
-95.45
-99.32
-98.50
-91.35
-76.64
-54.56
-27.49
0.63
25.62
44.86
58.09
66.76
72.71
76.89
78.87
77.82
73.34
65.94
56.80
46.90
36.87
26.90
17.51
9.69
4.34
1.97
2.06
3.63
5.80
8.02
9.70
9.61
5.99
-2.60
-15.51
-29.87
-41.03
-45.04
-40.64
-30.31
-19.37
-13.61
-17.11
-30.92
-53.30
-80.32
-106.89
-127.24
-135.84
-129.13
-107.09
-74.04
-37.23
-3.99
21.19
38.03
49.24
58.05
66.01
72.19
75.03
73.97
70.53
67.43
66.53
67.26
67.13
63.44
55.44
44.76
34.54
27.17
23.28
21.96
21.92
22.82
24.87
28.14
31.39
32.46
29.30
21.39
10.21
-1.62
-11.82
-19.52
-25.17
-29.84
-34.39
-39.40
-45.57
-54.13
-66.05
-80.93
-96.24
-107.81
-111.63
-105.97
-91.97
-72.87
-51.85
-30.70
-9.66
11.53
32.40
51.22
65.64
73.85
75.62
72.44
66.84
61.39
57.91
56.96
58.10
60.23
61.85
62.00
60.50
58.14
55.98
54.24
52.07
47.80
40.43
30.68
20.95
13.92
10.95
11.15
11.84
10.24
5.28
-1.82
-8.82
-13.98
-17.43
-20.89
-26.08
-33.58
-42.33
-50.55
-56.80
-61.23
-65.24
-70.82
-79.14
-89.82
-100.89
-109.07
-110.77
-103.00
-84.91
-58.44
-28.25
-0.13
21.29
34.49
41.47
46.03
51.24
57.60
63.15
65.33
62.96
57.36
51.31
47.42
46.49
47.11
47.10
44.81
40.16
34.18
28.44
23.90
20.76
18.85
17.94
18.05
18.94
20.02
19.90
17.45
11.74
2.75
-8.77
-21.64
-34.49
-46.03
-55.23
-61.66
-65.50
-68.05
-71.34
-77.30
-86.40
-96.66
-103.80
-103.09
-91.91
-71.54
-46.66
-23.06
-4.65
8.20
18.10
28.39
40.53
53.34
63.94
69.93
71.01
69.11
67.00
66.63
68.16
69.93
69.57
65.25
56.54
44.72
32.26
21.72
14.71
11.11
9.18
6.90
3.32
-1.00
-4.41
-5.56
-4.63
-3.17
-3.05
-5.20
-9.02
-13.19
-17.15
-21.82
-29.15
-40.32
-54.38
-68.48
-79.49
-86.13
-89.50
-92.15
-95.40
-97.83
-95.69
-85.32
-65.79
-39.85
-12.71
10.62
27.63
38.82
46.30
51.99
56.53
59.75
61.47
62.14
62.49
62.85
62.79
61.40
58.17
53.55
48.66
44.81
42.47
41.42
40.78
39.65
37.37
33.56
28.31
22.21
16.21
11.55
9.17
9.02
9.84
9.97
7.82
2.63
-5.46
-15.85
-27.80
-40.51
-53.07
-64.28
-73.00
-78.82
-82.55
-86.12
-91.46
-99.13
-107.30
-112.36
-110.83
-101.20
-84.74
-64.48
-43.19
-21.76
0.45
24.15
48.12
69.21
83.57
88.95
86.34
79.29
71.74
65.81
61.01
55.23
46.78
35.75
23.83
13.37
6.10
2.85
3.83
8.65
16.52
25.58
33.14
36.51
34.51
28.20
20.38
14.18
10.91
9.70
8.11
4.00
-3.16
-11.91
-20.33
-27.44
-33.71
-40.76
-49.73
-60.56
-72.06
-82.91
-92.00
-98.67
-102.08
-100.75
-92.97
-77.62
-55.25
-28.45
-0.99
23.39
42.15
54.52
61.00
62.80
61.35
57.89
53.27
48.08
42.44
36.37
30.42
25.62
23.00
22.87
24.26
25.23
24.03
19.98
14.10
8.39
4.69
3.55
4.30
5.51
5.83
4.66
2.07
-1.45
-5.47
-9.60
-13.43
-16.53
-18.79
-20.66
-23.24
-27.88
-35.48
-45.78
-57.03
-66.28
-70.17
-66.32
-54.18
-35.42
-13.57
7.29
23.96
35.19
41.74
45.51
48.46
51.40
54.02
55.01
53.30
48.83
42.63
36.49
31.83
29.06
27.47
25.67
22.57
17.92
12.43
7.32
3.47
1.11
-0.21
-1.31
-2.79
-4.87
-7.39
-10.03
-12.38
-14.11
-14.99
-15.06
-14.69
-14.50
-15.32
-17.62
-21.44
-26.40
-31.90
-37.55
-43.17
-48.37
-52.42
-53.99
-51.63
-44.47
-32.77
-18.13
-2.83
10.81
21.22
28.10
32.01
34.20
35.89
37.86
40.27
42.81
44.74
45.46
44.77
42.90
40.32
37.45
34.23
30.36
25.62
20.40
15.62
12.34
11.09
11.44
12.25
12.34
11.06
8.57
5.53
2.51
-0.36
-3.40
-6.88
-10.68
-14.25
-16.95
-18.84
-20.68
-23.55
-28.31
-35.00
-42.66
-49.77
-54.67
-55.95
-52.84
-45.33
-34.11
-20.53
-6.18
7.41
19.13
28.47
35.28
39.52
41.20
40.33
37.25
32.72
27.79
23.45
20.37
18.80
18.51
19.08
19.94
20.48
20.36
19.47
18.06
16.69
15.80
15.50
15.35
14.57
12.36
8.30
2.60
-4.04
-10.68
-16.49
-21.01
-24.15
-26.16
-27.57
-29.18
-31.90
-36.35
-42.54
-49.44
-55.27
-57.92
-55.79
-48.52
-37.08
-23.40
-9.50
3.15
13.88
22.55
29.07
33.35
35.41
35.55
34.53
33.10
31.79
30.67
29.56
28.42
27.30
26.27
25.19
23.63
21.12
17.63
13.70
10.21
8.04
7.39
7.70
8.04
7.58
5.95
3.21
-0.40
-4.67
-9.43
-14.44
-19.35
-23.73
-27.34
-30.48
-33.77
-37.88
-43.11
-49.10
-54.60
-58.03
-57.86
-53.16
-43.93
-31.03
-16.02
-0.81
12.90
23.98
32.09
37.57
41.13
43.37
44.39
43.91
41.64
37.71
32.79
27.97
24.11
21.60
19.98
18.41
16.27
13.46
10.58
8.37
7.30
7.31
7.98
8.62
8.86
8.56
7.70
6.30
4.20
1.34
-2.07
-5.48
-8.32
-10.33
-11.89
-14.02
-17.74
-23.65
-31.53
-40.43
-48.93
-55.44
-58.50
-57.06
-50.68
-39.87
-26.11
-11.68
1.14
10.74
16.79
20.15
22.38
24.85
28.18
32.27
36.43
39.84
41.77
41.71
39.32
34.77
28.65
22.21
16.81
13.57
12.76
13.77
15.42
16.41
16.03
14.14
11.16
7.73
4.36
1.33
-1.24
-3.41
-5.32
-7.13
-9.06
-11.19
-13.40
-15.62
-17.87
-20.46
-23.94
-28.59
-34.28
-40.16
-45.00
-47.57
-47.22
-43.87
-37.97
-30.03
-20.62
-10.40
-0.29
8.52
14.96
18.62
20.14
20.90
22.34
25.15
28.87
32.19
33.77
32.87
29.75
25.44
21.04
17.38
14.77
13.08
11.98
11.13
10.21
8.97
7.26
4.98
2.28
-0.63
-3.52
-6.19
-8.58
-10.64
-12.44
-14.14
-16.11
-18.71
-22.11
-26.02
-29.82
-32.95
-35.32
-37.42
-39.90
-42.82
-45.20
-45.26
-41.29
-32.72
-20.72
-7.72
3.84
12.63
18.80
23.38
27.49
31.45
34.95
37.38
38.31
37.67
35.55
32.21
28.02
23.60
19.72
17.04
15.73
15.36
15.13
14.42
13.08
11.43
9.94
8.65
7.14
4.89
1.59
-2.42
-6.52
-10.02
-12.54
-14.24
-15.41
-16.34
-17.25
-18.34
-20.10
-23.17
-28.06
-34.62
-41.91
-48.21
-51.73
-51.24
-46.44
-37.98
-27.13
-15.30
-3.85
6.07
13.72
18.84
21.78
23.39
24.63
26.18
28.12
30.04
31.45
32.03
31.70
30.53
28.71
26.36
23.82
21.53
19.99
19.45
19.63
19.73
18.94
16.93
14.01
11.01
8.58
6.63
4.36
0.75
-4.63
-11.13
-17.25
-21.49
-23.00
-22.08
-19.85
-17.76
-17.06
-18.44
-22.10
-27.76
-34.58
-41.14
-45.64
-46.52
-42.98
-35.45
-25.28
-14.17
-3.46
5.91
13.62
19.36
22.86
24.21
24.05
23.51
23.79
25.49
28.20
30.71
31.72
30.55
27.50
23.52
19.70
16.64
14.53
13.16
12.35
11.94
11.74
11.58
11.14
10.30
9.09
7.68
6.21
4.71
2.96
0.71
-2.14
-5.42
-8.77
-11.95
-14.94
-17.87
-20.75
-23.43
-25.78
-27.83
-30.03
-33.00
-36.99
-41.30
-44.31
-44.07
-39.26
-30.07
-18.12
-5.89
4.51
12.08
17.12
20.65
23.44
25.65
26.88
26.69
25.00
22.29
19.28
16.40
13.63
10.71
7.55
4.49
2.27
1.47
2.17
3.91
5.88
7.32
8.05
8.26
8.25
8.14
7.60
6.17
3.52
-0.18
-4.33
-8.09
-10.81
-12.20
-12.49
-12.47
-13.22
-15.76
-20.52
-27.05
-34.01
-39.67
-42.45
-41.48
-36.86
-29.34
-19.94
-9.76
0.33
9.43
16.68
21.53
23.89
24.18
23.35
22.26
21.35
20.68
20.12
19.53
19.06
18.88
18.94
18.80
17.74
15.21
11.27
6.83
3.06
1.04
1.04
2.51
4.50
6.07
6.71
6.15
4.42
1.53
-2.06
-5.73
-8.70
-10.54
-11.58
-12.77
-15.16
-19.16
-24.21
-29.32
-33.88
-38.20
-42.94
-48.25
-52.85
-54.16
-49.66
-38.70
-23.12
-6.56
7.26
16.53
21.79
24.94
27.80
30.85
33.28
34.03
32.83
30.30
27.61
25.51
23.93
22.40
20.72
19.21
18.56
19.08
20.13
20.46
18.94
15.47
11.06
7.39
5.58
5.67
6.65
7.34
7.19
6.32
5.25
3.96
1.96
-1.48
-6.62
-12.92
-19.37
-25.35
-31.16
-37.80
-46.19
-56.06
-65.84
-72.94
-75.06
-71.07
-60.95
-45.72
-27.13
-7.36
11.04
25.75
35.22
39.30
39.38
37.56
35.70
34.50
33.49
31.94
29.55
27.14
25.94
26.75
29.15
31.93
33.70
33.76
32.47
30.42
28.09
25.23
21.17
15.55
8.75
1.98
-3.45
-6.92
-9.11
-11.21
-14.12
-17.61
-20.30
-20.75
-18.51
-15.02
-12.66
-13.90
-19.99
-30.67
-44.65
-60.31
-76.01
-89.69
-98.59
-99.78
-91.36
-73.82
-50.15
-24.81
-1.81
16.82
31.20
42.54
51.45
57.81
61.08
61.12
58.81
55.46
52.12
48.82
44.87
39.27
31.66
22.66
13.47
5.61
0.28
-1.61
0.00
4.31
9.81
14.50
16.61
15.41
11.28
5.30
-1.47
-8.50
-15.85
-23.45
-30.77
-36.89
-41.05
-43.36
-45.14
-48.45
-54.88
-64.55
-75.63
-85.19
-90.14
-88.39
-79.18
-63.01
-41.19
-15.99
9.57
32.21
49.02
58.79
62.28
61.65
59.23
56.43
53.25
49.26
44.50
39.91
36.70
35.33
34.61
32.36
27.05
19.16
11.37
7.12
8.42
14.24
20.75
23.60
20.26
11.59
1.17
-6.96
-10.58
-10.35
-8.99
-9.44
-13.19
-20.03
-28.85
-38.99
-50.34
-62.72
-75.05
-84.86
-89.01
-85.08
-72.54
-53.17
-30.33
-7.89
10.97
24.54
32.71
36.71
38.41
39.51
40.92
42.56
43.52
43.09
41.18
38.57
36.47
35.59
35.65
35.58
34.10
30.46
24.85
18.04
11.36
5.87
2.24
0.82
1.63
4.16
7.39
10.05
10.95
9.43
5.96
1.60
-2.33
-5.22
-7.39
-9.81
-13.48
-18.99
-26.31
-35.23
-45.44
-56.30
-66.59
-74.11
-76.28
-71.14
-58.34
-39.66
-18.45
1.63
17.89
29.02
35.20
37.36
36.81
34.86
32.68
31.21
30.67
30.67
30.57
29.90
28.60
26.96
25.39
23.86
22.06
19.71
16.82
13.91
11.65
10.29
9.61
9.15
8.60
8.07
7.81
7.78
7.20
5.18
1.22
-4.20
-9.55
-13.15
-14.16
-13.11
-11.70
-11.94
-15.30
-22.03
-31.27
-41.33
-50.18
-55.74
-56.24
-50.86
-39.90
-25.03
-8.90
5.83
17.13
24.23
27.47
27.86
26.49
24.39
22.48
21.49
21.89
23.67
26.08
28.04
28.65
27.45
24.68
21.09
17.30
13.78
10.80
8.74
8.11
9.25
11.81
14.49
15.59
13.58
8.20
0.69
-6.83
-12.28
-14.75
-14.81
-13.99
-13.82
-15.04
-17.53
-20.95
-25.17
-30.25
-36.02
-41.31
-44.21
-42.71
-36.02
-25.17
-12.73
-1.55
6.62
11.80
15.34
18.74
22.52
26.01
28.10
28.21
26.79
25.04
24.00
23.82
23.89
23.29
21.58
19.01
16.30
14.09
12.63
11.66
10.81
9.76
8.44
6.84
4.89
2.50
-0.52
-4.02
-7.66
-10.91
-13.45
-15.21
-16.47
-17.55
-18.77
-20.53
-23.34
-27.77
-34.00
-41.53
-48.78
-53.58
-53.74
-48.21
-37.58
-24.02
-10.38
0.95
8.99
14.22
18.06
21.96
26.60
31.67
36.25
39.12
39.43
37.14
33.01
28.35
24.35
21.68
20.14
19.10
18.02
16.89
16.13
16.18
16.93
17.64
17.23
14.98
11.11
6.45
2.17
-1.16
-3.64
-5.81
-8.05
-10.29
-12.13
-13.29
-13.99
-15.03
-17.32
-21.40
-26.96
-33.01
-38.24
-41.52
-42.24
-40.32
-36.03
-29.88
-22.55
-14.79
-7.36
-0.79
4.73
9.39
13.60
17.62
21.36
24.41
26.31
26.66
25.47
23.06
19.93
16.71
14.12
12.73
12.86
14.26
16.16
17.54
17.78
17.07
16.24
16.26
17.35
18.89
19.54
18.21
14.81
10.21
5.78
2.53
0.61
-0.56
-1.78
-3.47
-5.57
-7.79
-10.28
-13.61
-18.61
-25.64
-34.06
-42.10
-47.48
-48.32
-43.93
-35.24
-24.30
-13.34
-3.92
3.42
8.98
13.38
16.93
19.71
21.46
21.86
20.78
18.30
15.09
12.18
10.78
11.63
14.51
18.16
20.74
20.88
18.25
13.80
9.09
5.40
3.10
1.67
0.36
-1.24
-2.93
-4.35
-5.36
-6.08
-6.79
-7.51
-8.11
-8.66
-9.65
-11.90
-16.13
-22.21
-29.09
-35.19
-39.32
-41.06
-40.83
-39.42
-37.03
-33.34
-27.66
-19.71
-10.18
-0.42
8.17
14.82
19.58
22.98
25.43
26.90
27.22
26.27
24.42
22.48
21.10
20.61
20.77
21.05
20.99
20.37
19.10
17.22
14.71
11.65
8.39
5.49
3.62
3.07
3.70
4.82
5.64
5.58
4.37
2.14
-1.07
-5.26
-10.23
-15.31
-19.56
-22.25
-23.73
-25.57
-29.91
-37.94
-48.68
-58.73
-63.74
-60.51
-48.71
-31.15
-12.25
4.02
15.56
22.37
25.59
26.37
25.46
23.34
20.69
18.45
17.46
18.00
19.67
21.76
23.48
24.58
24.99
24.70
23.64
21.77
19.16
16.33
13.89
12.41
11.81
11.58
11.06
9.78
7.78
5.24
2.29
-1.30
-5.78
-10.91
-15.94
-19.62
-21.14
-20.59
-19.27
-18.90
-20.86
-25.46
-31.99
-39.30
-46.17
-51.66
-54.76
-54.24
-49.14
-39.43
-26.53
-13.02
-1.58
6.31
10.96
14.08
17.44
21.78
26.54
30.41
32.70
33.67
34.37
35.61
37.32
38.59
38.06
35.11
30.10
24.21
18.96
15.39
13.75
13.82
14.87
16.18
17.05
17.03
15.82
13.64
11.11
8.85
7.33
6.20
4.79
2.31
-1.59
-6.55
-12.01
-17.52
-23.07
-28.98
-35.43
-42.27
-48.84
-54.44
-58.36
-59.99
-58.70
-53.65
-44.19
-30.67
-14.72
0.96
13.44
21.03
23.80
23.44
22.12
21.42
21.56
21.74
21.14
19.53
17.51
16.03
15.73
16.52
17.57
17.88
16.72
13.95
10.02
5.77
2.27
0.31
0.33
2.33
5.70
9.56
12.70
14.02
12.91
9.26
3.80
-2.36
-7.88
-11.76
-13.64
-14.01
-14.16
-15.63
-19.65
-26.76
-36.40
-46.97
-56.26
-61.98
-62.33
-56.61
-45.34
-30.11
-13.14
3.16
16.76
26.38
31.63
33.08
31.87
29.44
26.83
24.60
22.63
20.54
18.30
16.26
15.16
15.46
16.73
17.72
17.17
14.54
10.68
7.31
6.06
7.23
9.83
12.03
12.31
10.53
7.58
4.81
2.83
1.32
-0.58
-3.38
-6.87
-10.22
-12.88
-15.27
-18.57
-24.00
-31.81
-40.65
-48.09
-51.79
-50.41
-44.24
-34.88
-24.26
-13.95
-4.65
3.67
11.31
18.38
24.58
29.25
31.68
31.58
29.29
25.69
22.00
19.13
17.52
16.94
16.86
16.64
16.06
15.28
14.69
14.60
14.93
15.18
14.76
13.25
10.64
7.42
4.19
1.52
-0.27
-1.20
-1.59
-1.95
-2.83
-4.62
-7.41
-10.84
-14.17
-16.64
-17.91
-18.25
-18.51
-19.62
-22.00
-25.27
-28.39
-30.22
-29.94
-27.31
-22.61
-16.45
-9.55
-2.73
3.29
8.02
11.36
13.77
15.84
18.06
20.31
22.09
22.73
22.02
20.26
18.19
16.44
15.28
14.50
13.85
13.30
13.11
13.57
14.65
15.80
16.14
14.89
11.89
7.66
3.11
-0.97
-4.24
-6.86
-9.10
-11.02
-12.38
-12.74
-12.00
-10.63
-9.52
-9.77
-12.01
-16.33
-22.08
-28.30
-33.70
-37.04
-37.29
-33.87
-26.99
-17.78
-7.77
1.56
9.43
15.79
21.04
25.47
28.98
31.04
31.23
29.66
27.09
24.42
22.24
20.39
18.25
15.24
11.33
7.13
3.43
0.85
-0.35
-0.29
0.69
2.24
3.97
5.23
5.27
3.46
-0.33
-5.61
-11.28
-16.09
-19.09
-20.02
-19.22
-17.54
-16.01
-15.56
-16.95
-20.46
-25.73
-31.64
-36.58
-38.90
-37.45
-32.11
-23.54
-13.06
-2.13
7.97
16.29
22.31
25.97
27.67
28.12
27.95
27.54
26.77
25.25
22.79
19.68
16.70
14.58
13.51
12.90
11.71
9.39
6.17
3.24
1.93
2.87
5.36
7.81
8.56
6.79
2.90
-1.92
-6.60
-10.59
-13.94
-16.89
-19.36
-20.95
-21.41
-21.05
-20.83
-21.94
-24.98
-29.36
-33.44
-35.29
-33.44
-27.54
-18.38
-7.48
3.37
12.61
19.08
22.49
23.30
22.70
22.07
22.43
23.85
25.72
27.07
27.15
25.89
23.78
21.45
19.31
17.40
15.66
14.12
13.08
12.69
12.81
12.88
12.24
10.44
7.60
4.27
0.97
-1.93
-4.42
-6.58
-8.42
-9.94
-11.10
-12.27
-13.96
-16.56
-19.98
-23.76
-27.31
-30.43
-33.42
-36.57
-39.63
-41.43
-40.40
-35.35
-26.43
-15.33
-4.32
4.74
11.30
16.10
20.33
24.75
29.23
32.85
34.76
34.83
33.65
32.22
31.19
30.53
29.71
27.96
24.97
20.83
16.01
11.12
6.76
3.47
1.65
1.34
2.00
2.65
2.06
-0.47
-4.92
-10.26
-15.11
-18.31
-19.53
-19.27
-18.33
-17.36
-16.58
-16.11
-16.18
-17.39
-20.30
-24.95
-30.42
-35.07
-37.18
-35.59
-30.19
-21.70
-11.46
-0.94
8.53
16.05
21.15
23.78
24.30
23.19
20.94
18.10
15.24
13.07
12.25
13.13
15.29
17.70
19.04
18.59
16.67
14.59
13.80
14.97
17.54
20.13
21.33
20.50
17.97
14.63
11.21
7.93
4.51
0.52
-4.11
-9.09
-13.82
-17.69
-20.36
-21.81
-22.35
-22.54
-23.20
-25.13
-28.72
-33.64
-38.56
-41.64
-41.28
-36.77
-28.58
-18.10
-7.04
3.25
11.87
18.35
22.32
23.55
22.19
19.05
15.45
12.81
11.88
12.46
13.59
14.17
13.75
12.54
11.30
10.58
10.54
10.88
11.11
10.84
10.03
8.77
7.17
5.26
3.11
0.92
-1.10
-2.75
-4.13
-5.41
-6.88
-8.60
-10.45
-12.27
-14.07
-16.10
-18.74
-22.15
-26.16
-30.08
-32.89
-33.54
-31.18
-25.55
-17.00
-6.69
3.73
12.39
17.91
19.94
19.29
17.54
16.28
16.30
17.32
18.42
18.75
18.09
16.94
16.05
15.68
15.50
14.79
13.15
10.82
8.66
7.47
7.33
7.42
6.54
3.94
-0.21
-4.82
-8.63
-10.91
-11.83
-12.00
-12.05
-12.12
-12.04
-11.78
-11.64
-12.31
-14.28
-17.45
-21.10
-24.33
-26.50
-27.51
-27.39
-26.00
-22.83
-17.49
-10.23
-2.15
5.28
10.94
14.69
17.37
19.93
22.82
25.55
27.24
27.29
25.83
23.69
21.65
20.01
18.50
16.80
14.90
13.25
12.31
12.13
12.14
11.68
10.40
8.61
7.02
6.13
5.71
4.88
2.79
-0.82
-5.25
-9.27
-11.79
-12.48
-11.78
-10.50
-9.34
-8.64
-8.60
-9.49
-11.72
-15.57
-20.81
-26.54
-31.58
-34.80
-35.59
-33.97
-30.28
-24.91
-18.19
-10.51
-2.64
4.41
9.66
12.64
13.83
14.23
14.90
16.30
18.14
19.83
20.85
21.02
20.54
19.61
18.18
16.18
13.56
10.56
7.68
5.30
3.51
2.13
0.98
0.22
0.17
1.04
2.39
3.34
2.91
0.85
-2.09
-4.77
-6.32
-6.80
-6.91
-7.54
-8.88
-10.54
-12.06
-13.52
-15.79
-19.81
-25.54
-31.54
-35.33
-34.75
-29.19
-19.99
-9.80
-1.04
5.14
9.07
11.95
14.79
17.81
20.45
21.75
21.15
18.72
15.23
11.63
8.90
7.63
7.85
9.13
10.72
11.81
11.88
10.83
8.98
7.01
5.41
4.46
3.98
3.55
2.81
1.70
0.42
-0.81
-1.85
-2.90
-4.10
-5.37
-6.33
-6.52
-5.91
-4.99
-4.68
-5.88
-9.14
-14.26
-20.36
-26.18
-30.39
-31.96
-30.40
-26.02
-19.82
-13.26
-7.46
-2.92
0.61
3.86
7.12
10.11
12.08
12.59
11.87
10.92
10.88
12.13
14.21
15.85
15.99
14.32
11.67
9.21
7.98
8.14
9.07
10.01
10.40
10.32
10.17
10.34
10.79
11.20
11.25
10.77
9.95
8.74
6.89
3.94
-0.18
-4.81
-8.80
-11.03
-11.53
-11.47
-12.76
-16.74
-23.27
-30.74
-36.96
-40.29
-40.47
-38.20
-34.29
-29.03
-22.09
-13.32
-3.34
6.31
13.93
18.54
20.31
20.34
19.93
19.71
19.64
19.23
18.22
16.72
15.21
13.94
12.87
11.87
10.95
10.47
11.08
12.87
15.34
17.35
17.85
16.53
13.97
11.30
9.21
7.68
5.91
3.22
-0.32
-3.93
-6.52
-7.91
-8.86
-10.78
-14.45
-19.61
-24.91
-29.09
-31.88
-34.08
-36.69
-39.88
-42.37
-42.08
-37.52
-28.79
-17.79
-7.36
0.52
5.36
8.20
10.54
13.35
16.56
19.36
21.09
21.59
21.38
21.00
20.74
20.41
19.45
17.48
14.48
10.97
7.66
5.21
3.80
3.36
3.54
4.04
4.55
4.83
4.77
4.29
3.63
2.81
1.94
0.95
-0.06
-0.85
-1.07
-0.65
-0.15
-0.61
-3.35
-9.19
-18.04
-28.53
-38.38
-45.23
-47.48
-44.76
-37.84
-28.17
-17.26
-6.39
3.58
12.07
18.57
22.79
24.54
24.07
22.00
19.29
16.96
15.61
15.26
15.33
15.16
14.30
12.85
11.33
10.46
10.43
10.97
11.35
10.85
9.40
7.62
6.65
7.09
8.64
9.78
8.77
4.84
-1.35
-7.69
-12.13
-13.76
-13.34
-12.69
-13.39
-15.80
-19.13
-22.44
-25.52
-29.14
-33.95
-39.60
-44.10
-44.75
-39.74
-29.35
-15.98
-2.75
7.90
15.36
20.33
23.92
26.69
28.40
28.68
27.54
25.65
23.75
22.26
21.00
19.47
17.38
14.84
12.37
10.44
9.24
8.56
8.16
7.75
7.20
6.38
5.16
3.65
2.12
1.10
0.92
1.58
2.46
2.73
1.76
-0.41
-3.18
-5.80
-7.79
-9.24
-10.60
-12.32
-14.54
-17.02
-19.48
-21.67
-23.51
-24.88
-25.48
-24.85
-22.58
-18.49
-12.94
-6.58
-0.26
5.42
10.20
14.07
17.23
19.84
22.05
23.81
24.88
24.75
23.00
19.55
14.80
9.91
6.13
4.39
4.81
6.51
8.27
8.98
8.33
6.73
4.88
3.23
1.76
0.14
-1.83
-3.95
-5.70
-6.62
-6.75
-6.56
-6.71
-7.64
-9.37
-11.67
-14.24
-17.01
-19.96
-22.98
-25.70
-27.57
-28.12
-27.17
-24.79
-21.05
-16.01
-9.73
-2.52
4.80
11.15
15.53
17.63
17.98
17.54
17.25
17.56
18.32
19.05
19.39
19.21
18.57
17.57
16.13
14.29
12.19
10.16
8.55
7.47
6.85
6.54
6.48
6.65
7.00
7.11
6.33
4.10
0.50
-3.73
-7.53
-10.11
-11.61
-12.87
-15.06
-18.86
-24.10
-29.90
-35.27
-39.50
-42.04
-42.55
-40.39
-35.07
-26.55
-15.67
-4.18
6.03
13.47
17.76
19.48
19.79
19.72
19.92
20.60
21.58
22.64
23.48
23.69
22.87
20.91
18.13
15.24
13.08
11.98
11.64
11.25
10.06
8.00
5.70
4.11
3.75
4.47
5.29
5.14
3.48
0.69
-2.30
-4.69
-6.23
-7.40
-8.89
-11.11
-13.98
-17.20
-20.59
-24.19
-28.21
-32.66
-36.92
-39.87
-40.30
-37.37
-31.09
-22.20
-12.01
-1.78
7.46
15.14
21.10
25.48
28.49
30.30
30.88
30.09
28.08
25.40
22.91
21.49
21.46
22.44
23.39
23.26
21.51
18.46
15.09
12.45
11.06
10.76
10.99
11.08
10.70
9.95
9.06
8.29
7.62
6.85
5.59
3.37
-0.15
-4.94
-10.43
-15.62
-19.46
-21.32
-21.38
-20.71
-20.81
-22.91
-27.41
-33.62
-40.11
-45.20
-47.60
-46.61
-42.16
-34.68
-24.99
-14.14
-3.40
6.14
13.78
19.42
23.49
26.39
28.27
28.85
27.68
24.78
20.95
17.61
15.96
16.39
18.08
19.51
19.42
17.55
14.68
12.08
10.54
10.01
9.76
8.98
7.60
6.25
5.73
6.35
7.54
8.08
6.92
3.71
-1.08
-6.46
-11.52
-15.71
-18.88
-21.07
-22.48
-23.46
-24.64
-26.86
-30.72
-36.14
-42.16
-47.23
-49.59
-48.32
-43.37
-35.57
-26.08
-16.02
-6.26
2.62
10.30
16.74
22.14
26.91
31.32
35.21
37.98
38.80
37.27
33.66
28.91
24.15
20.06
16.74
13.84
11.03
8.32
6.10
4.74
4.34
4.76
5.90
7.72
10.16
12.91
15.16
15.90
14.39
10.61
5.31
-0.38
-5.60
-10.02
-13.82
-17.38
-20.79
-24.01
-26.99
-30.09
-33.93
-38.82
-44.31
-49.01
-50.95
-48.52
-41.28
-30.07
-16.88
-4.09
6.51
13.98
18.52
20.95
22.37
23.65
25.22
27.12
28.99
30.36
30.76
30.01
28.34
26.23
24.25
22.76
21.70
20.72
19.44
17.75
15.90
14.31
13.24
12.62
12.11
11.28
10.03
8.43
6.56
4.31
1.34
-2.48
-6.87
-11.10
-14.49
-16.77
-18.34
-20.12
-22.84
-26.85
-31.99
-37.85
-44.03
-49.93
-54.47
-56.19
-53.72
-46.41
-35.10
-21.72
-8.56
2.78
11.96
19.62
26.61
33.21
39.03
43.13
44.86
44.08
41.34
37.37
32.78
27.98
23.24
18.79
14.85
11.60
9.13
7.24
5.91
5.08
4.97
5.71
7.20
8.90
10.04
9.87
8.10
4.95
1.04
-2.98
-6.72
-10.02
-12.86
-15.30
-17.51
-19.91
-23.16
-27.81
-33.83
-40.44
-46.04
-49.02
-48.16
-43.14
-34.50
-23.30
-10.86
1.54
12.70
21.70
28.19
32.20
34.32
35.21
35.40
34.99
33.77
31.56
28.47
24.83
21.15
17.66
14.23
10.59
6.79
3.35
1.12
0.95
2.95
6.36
9.75
11.62
11.04
8.09
3.69
-0.82
-4.36
-6.58
-7.90
-9.17
-11.44
-15.56
-21.88
-30.16
-39.35
-47.73
-53.46
-55.09
-52.10
-45.00
-34.97
-23.48
-11.86
-1.05
8.30
15.69
20.87
23.99
25.39
25.71
25.56
25.25
24.92
24.70
24.77
25.20
25.81
25.84
24.45
21.18
16.25
10.83
6.29
3.64
2.94
3.26
3.29
2.17
-0.14
-2.78
-4.68
-5.38
-5.15
-4.80
-5.19
-6.86
-9.85
-14.11
-19.59
-26.20
-33.56
-40.76
-46.30
-48.61
-46.51
-39.80
-29.50
-17.27
-5.04
5.81
14.50
21.07
25.94
29.67
32.57
34.50
35.01
33.66
30.53
26.41
22.40
19.56
18.20
17.88
17.64
16.65
14.63
11.90
9.29
7.57
7.07
7.57
8.32
8.45
7.23
4.33
-0.17
-5.76
-11.79
-17.63
-22.89
-27.57
-32.05
-36.73
-41.66
-46.25
-49.27
-49.34
-45.53
-37.92
-27.65
-16.41
-5.92
2.80
9.45
14.38
18.00
20.72
22.75
24.16
24.99
25.23
24.81
23.78
22.38
21.17
20.63
20.75
20.86
19.99
17.55
13.85
10.00
7.30
6.21
6.06
5.36
2.86
-1.44
-6.29
-9.87
-10.89
-9.65
-7.89
-7.89
-11.18
-18.00
-26.94
-35.86
-42.47
-45.08
-43.00
-36.50
-26.78
-15.54
-4.48
5.21
13.07
19.24
24.04
27.50
29.39
29.50
28.07
25.93
24.18
23.49
23.61
23.58
22.36
19.73
16.34
13.39
11.71
11.31
11.44
11.27
10.49
9.27
8.02
6.84
5.45
3.50
0.98
-1.71
-4.08
-6.11
-8.50
-12.21
-17.76
-24.77
-31.95
-37.77
-41.15
-41.74
-39.76
-35.55
-29.33
-21.36
-12.22
-2.97
5.11
11.11
14.92
17.39
19.46
21.65
23.55
24.24
23.13
20.45
17.38
15.17
14.53
15.01
15.55
15.14
13.47
11.13
8.96
7.52
6.78
6.30
5.55
4.35
2.79
0.94
-1.17
-3.41
-5.44
-6.82
-7.37
-7.44
-8.00
-10.25
-14.93
-21.91
-30.06
-37.60
-42.79
-44.32
-41.69
-35.09
-25.34
-13.89
-2.42
7.35
14.25
18.00
19.30
19.26
18.85
18.36
17.38
15.42
12.57
9.77
8.23
8.69
10.57
12.16
11.66
8.24
2.73
-2.86
-6.43
-7.00
-4.97
-1.78
1.11
2.87
3.19
2.31
0.32
-2.75
-6.77
-11.49
-16.31
-20.78
-24.63
-27.98
-31.07
-33.97
-36.41
-37.74
-37.08
-33.76
-27.49
-18.60
-8.07
2.62
11.87
18.50
22.18
23.49
23.66
23.90
24.79
26.11
27.03
26.70
24.94
22.35
20.00
18.81
18.90
19.51
19.35
17.46
13.74
9.08
4.85
2.24
1.61
2.48
3.76
4.31
3.44
1.05
-2.38
-6.09
-9.34
-11.70
-13.23
-14.28
-15.48
-17.37
-20.18
-23.69
-27.34
-30.52
-32.75
-33.70
-32.91
-29.85
-24.12
-15.83
-5.97
3.94
12.26
18.04
21.34
22.95
23.81
24.42
24.69
24.35
23.31
21.90
20.68
19.82
19.13
18.08
16.26
13.73
10.96
8.51
6.69
5.41
4.37
3.23
1.86
0.19
-1.88
-4.37
-7.11
-9.54
-10.99
-10.97
-9.73
-8.21
-7.70
-9.11
-12.40
-16.74
-20.89
-24.06
-26.19
-27.81
-29.39
-30.86
-31.43
-30.07
-26.06
-19.52
-11.29
-2.71
5.01
11.19
15.72
18.80
20.87
22.30
23.33
24.02
24.24
23.78
22.50
20.44
17.78
14.87
11.88
8.88
5.82
2.82
0.32
-1.08
-0.81
1.20
4.33
7.46
9.49
9.83
8.69
6.76
4.78
3.08
1.53
-0.25
-2.67
-5.73
-9.13
-12.31
-14.76
-16.17
-16.56
-16.16
-15.46
-14.84
-14.55
-14.68
-15.15
-15.71
-16.09
-16.06
-15.32
-13.74
-11.22
-7.86
-3.86
0.41
4.45
7.73
9.76
10.29
9.47
7.77
5.84
4.24
3.27
2.88
2.88
3.11
3.52
4.06
4.59
4.89
4.74
4.11
3.26
2.55
2.22
2.21
2.17
1.73
0.73
-0.81
-2.65
-4.56
-6.30
-7.67
-8.45
-8.41
-7.62
-6.34
-5.10
-4.46
-4.66
-5.61
-6.99
-8.43
-9.61
-10.32
-10.38
-9.62
-7.87
-5.21
-1.98
1.37
4.36
6.80
8.74
10.38
11.78
12.72
12.94
12.26
10.85
9.12
7.48
6.16
5.16
4.33
3.61
3.01
2.60
2.35
2.11
1.62
0.81
-0.21
-1.09
-1.59
-1.64
-1.47
-1.38
-1.53
-1.84
-2.04
-1.99
-1.67
-1.35
-1.29
-1.71
-2.72
-4.30
-6.55
-9.45
-12.84
-16.21
-18.72
-19.52
-18.07
-14.44
-9.26
-3.46
1.99
6.38
9.39
11.00
11.48
11.29
10.96
10.93
11.27
11.80
12.00
11.53
10.31
8.61
6.87
5.39
4.23
3.20
2.21
1.36
0.88
0.91
1.25
1.42
0.94
-0.27
-1.97
-3.57
-4.68
-5.21
-5.49
-5.82
-6.25
-6.61
-6.64
-6.44
-6.46
-7.17
-8.65
-10.39
-11.70
-12.12
-11.81
-11.44
-11.52
-11.94
-11.85
-10.27
-6.72
-1.76
3.27
6.97
8.63
8.58
7.85
7.38
7.58
8.11
8.36
7.92
6.89
5.76
5.07
5.06
5.59
6.23
6.52
6.22
5.36
4.12
2.83
1.73
0.98
0.60
0.48
0.48
0.39
0.13
-0.24
-0.53
-0.61
-0.40
-0.07
0.19
0.32
0.45
0.88
1.76
2.85
3.55
2.95
0.44
-3.96
-9.30
-14.10
-16.94
-17.02
-14.47
-10.13
-5.16
-0.42
3.57
6.71
9.03
10.47
10.95
10.48
9.29
7.86
6.74
6.35
6.81
7.72
8.50
8.45
7.15
4.62
1.45
-1.55
-3.55
-4.16
-3.50
-2.09
-0.59
0.51
0.96
0.82
0.25
-0.60
-1.48
-2.24
-2.75
-3.06
-3.45
-4.31
-5.92
-8.10
-10.26
-11.64
-11.92
-11.30
-10.54
-10.47
-11.43
-13.07
-14.49
-14.77
-13.46
-10.71
-7.11
-3.19
0.69
4.50
8.17
11.54
14.36
16.44
17.81
18.70
19.30
19.45
18.79
16.98
13.96
10.18
6.39
3.32
1.36
0.56
0.64
1.33
2.26
3.14
3.70
3.81
3.44
2.73
1.78
0.63
-0.93
-3.05
-5.65
-8.27
-10.28
-11.22
-11.11
-10.53
-10.31
-10.96
-12.57
-14.75
-16.90
-18.60
-19.62
-19.93
-19.51
-18.38
-16.45
-13.84
-10.71
-7.16
-3.32
0.82
5.02
9.05
12.53
15.38
17.79
20.20
23.01
26.08
28.85
30.39
30.00
27.59
23.77
19.44
15.44
12.19
9.69
7.77
6.27
5.13
4.26
3.45
2.40
1.05
-0.38
-1.48
-1.82
-1.47
-1.04
-1.34
-3.00
-6.07
-10.00
-13.96
-17.39
-20.25
-22.94
-25.83
-28.86
-31.46
-32.84
-32.41
-29.98
-25.91
-20.63
-14.60
-8.16
-1.73
4.25
9.27
13.00
15.46
16.92
17.89
18.77
19.68
20.57
21.10
20.90
19.60
17.14
13.72
10.07
7.06
5.41
5.31
6.28
7.46
8.16
8.23
8.00
7.88
7.94
7.66
6.31
3.48
-0.57
-4.93
-8.51
-10.66
-11.43
-11.50
-11.63
-12.31
-13.68
-15.65
-18.11
-21.13
-24.62
-28.00
-30.24
-30.08
-26.69
-20.14
-11.49
-2.43
5.44
11.09
14.59
16.76
18.65
21.02
23.92
26.72
28.43
28.27
26.03
22.32
18.26
14.81
12.41
10.77
9.25
7.32
5.10
3.12
2.08
2.19
3.05
3.94
4.22
3.67
2.57
1.34
0.10
-1.34
-3.32
-5.93
-8.90
-11.72
-14.01
-15.75
-17.31
-19.19
-21.60
-24.43
-27.28
-29.68
-31.31
-31.84
-30.89
-28.08
-23.17
-16.43
-8.66
-0.96
5.80
11.20
15.54
19.23
22.40
24.92
26.51
27.18
27.39
27.80
28.49
28.86
27.74
24.20
18.44
11.87
6.58
4.13
4.86
7.69
10.94
13.17
13.73
12.69
10.36
7.04
3.02
-1.24
-5.05
-7.71
-9.00
-9.40
-9.71
-10.74
-12.69
-15.23
-17.87
-20.41
-23.13
-26.47
-30.57
-34.83
-38.29
-40.07
-39.69
-37.15
-32.68
-26.29
-17.92
-7.84
3.18
13.76
22.31
27.72
29.73
29.01
26.83
24.48
22.95
22.83
24.19
26.67
29.33
30.87
30.17
26.78
21.41
15.52
10.74
7.96
7.12
7.35
7.73
7.76
7.57
7.51
7.69
7.85
7.30
5.43
1.99
-2.78
-8.24
-13.46
-17.47
-19.49
-19.28
-17.30
-14.83
-13.38
-14.19
-17.62
-23.03
-29.07
-34.33
-37.73
-38.74
-37.20
-33.29
-27.25
-19.57
-11.09
-2.86
4.15
9.42
13.08
15.78
18.28
21.06
23.96
26.57
28.39
29.18
29.05
28.14
26.48
24.01
20.88
17.49
14.44
12.24
10.88
9.99
8.97
7.54
5.86
4.29
3.07
2.06
0.97
-0.52
-2.32
-4.00
-5.20
-5.91
-6.60
-7.88
-10.07
-12.99
-16.14
-18.95
-21.23
-23.05
-24.64
-26.10
-27.42
-28.46
-29.02
-28.97
-27.89
-25.35
-20.88
-14.44
-6.60
1.54
8.72
14.07
17.44
19.30
20.27
20.83
21.02
20.76
20.10
19.33
18.80
18.44
17.82
16.26
13.40
9.60
5.74
2.77
1.14
0.60
0.61
0.82
1.37
2.65
4.78
7.15
8.64
8.12
5.25
0.68
-4.30
-8.51
-11.41
-13.29
-14.74
-16.26
-17.90
-19.42
-20.74
-21.99
-23.49
-25.41
-27.43
-28.76
-28.51
-25.97
-21.06
-14.35
-6.71
0.80
7.38
12.53
16.11
18.32
19.64
20.62
21.52
22.25
22.40
21.40
19.13
15.94
12.70
10.22
9.02
8.91
9.33
9.60
9.36
8.78
8.34
8.43
9.11
10.01
10.38
9.65
7.44
3.90
-0.40
-4.69
-8.28
-10.99
-13.06
-15.00
-17.16
-19.48
-21.51
-22.71
-22.78
-21.95
-20.91
-20.43
-20.97
-22.20
-23.13
-22.49
-19.35
-13.66
-6.17
1.74
8.81
14.26
18.05
20.45
21.83
22.42
22.22
21.38
20.16
18.90
17.68
16.22
14.04
10.72
6.44
1.99
-1.48
-3.00
-2.24
0.27
3.43
6.04
7.34
7.22
6.21
5.07
4.22
3.71
3.10
1.89
-0.15
-2.78
-5.48
-7.74
-9.37
-10.64
-11.91
-13.45
-15.11
-16.53
-17.32
-17.51
-17.48
-17.82
-18.86
-20.37
-21.56
-21.38
-19.03
-14.30
-7.70
-0.32
6.71
12.47
16.58
18.96
19.73
19.15
17.47
15.19
12.88
11.04
10.02
9.73
9.94
10.26
10.44
10.33
9.92
9.12
7.90
6.24
4.28
2.27
0.62
-0.46
-0.84
-0.53
0.34
1.61
3.02
4.25
4.90
4.68
3.55
1.73
-0.48
-2.69
-4.75
-6.56
-8.19
-9.69
-11.07
-12.37
-13.57
-14.80
-16.06
-17.17
-17.78
-17.38
-15.61
-12.39
-8.01
-3.07
1.74
5.90
9.12
11.31
12.54
12.98
12.83
12.27
11.35
10.03
8.25
6.07
3.84
2.05
1.14
1.06
1.40
1.60
1.48
1.34
1.80
3.11
4.96
6.28
6.06
3.95
0.51
-3.04
-5.66
-6.94
-7.34
-7.55
-8.09
-8.90
-9.53
-9.64
-9.15
-8.53
-8.28
-8.80
-10.10
-11.83
-13.48
-14.43
-14.28
-12.82
-10.16
-6.68
-2.98
0.58
3.82
6.85
9.96
13.16
16.12
18.13
18.53
17.08
14.29
11.20
8.85
7.85
8.00
8.62
8.99
8.79
8.19
7.60
7.25
7.09
6.80
6.12
4.97
3.49
1.92
0.29
-1.41
-3.26
-5.21
-6.98
-8.38
-9.31
-9.87
-10.26
-10.64
-11.04
-11.48
-12.06
-13.06
-14.78
-17.29
-20.32
-23.16
-25.00
-25.17
-23.42
-19.91
-15.06
-9.40
-3.38
2.46
7.65
11.75
14.63
16.66
18.40
20.42
22.68
24.74
25.82
25.32
23.23
19.99
16.36
13.00
10.30
8.43
7.38
7.07
7.16
7.06
6.11
4.04
1.07
-1.86
-3.82
-4.34
-3.88
-3.40
-3.81
-5.41
-7.65
-9.71
-10.89
-11.19
-11.15
-11.43
-12.45
-14.19
-16.40
-18.80
-21.20
-23.26
-24.47
-24.15
-21.70
-16.99
-10.70
-3.95
2.14
6.79
9.89
11.74
12.93
13.89
14.79
15.60
16.22
16.68
16.91
16.87
16.46
15.56
14.28
12.90
11.75
11.10
10.92
11.13
11.53
11.98
12.37
12.54
12.28
11.40
9.88
7.86
5.61
3.45
1.35
-0.85
-3.34
-6.13
-8.89
-11.24
-12.86
-13.78
-14.25
-14.69
-15.40
-16.57
-18.26
-20.41
-22.66
-24.41
-24.98
-23.71
-20.53
-15.80
-10.40
-5.20
-0.77
2.83
5.88
8.66
11.37
13.87
16.03
17.70
18.76
19.15
18.70
17.43
15.55
13.51
11.82
10.73
10.01
9.08
7.38
4.76
1.63
-1.29
-3.41
-4.69
-5.57
-6.59
-7.99
-9.41
-10.27
-10.14
-9.11
-7.81
-7.03
-7.24
-8.46
-10.26
-12.17
-14.06
-16.10
-18.63
-21.72
-24.92
-27.40
-28.12
-26.37
-21.90
-15.21
-7.06
1.48
9.52
16.23
21.27
24.55
26.22
26.55
25.64
23.70
20.90
17.78
15.12
13.57
13.29
13.70
13.78
12.75
10.62
8.28
6.99
7.55
9.69
12.23
13.68
13.26
11.21
8.41
5.86
3.91
2.36
0.69
-1.35
-3.81
-6.36
-8.81
-11.07
-13.17
-14.98
-16.35
-17.26
-17.75
-18.36
-19.72
-22.29
-25.99
-30.21
-33.87
-35.88
-35.43
-32.11
-26.11
-18.07
-8.95
0.17
8.24
14.62
19.03
21.50
22.41
22.20
21.52
20.99
21.10
21.97
23.23
24.26
24.32
23.15
20.92
18.30
16.00
14.39
13.38
12.54
11.43
9.94
8.40
7.22
6.64
6.45
6.14
5.21
3.43
0.96
-1.90
-4.95
-8.16
-11.58
-15.19
-18.66
-21.50
-23.30
-23.97
-23.87
-23.65
-23.97
-25.29
-27.61
-30.42
-32.89
-33.94
-32.64
-28.51
-21.67
-12.99
-3.76
4.77
11.66
16.68
20.05
22.40
24.20
25.75
27.01
27.76
27.81
27.10
25.73
23.69
21.00
17.70
14.04
10.57
8.16
7.50
8.61
10.70
12.46
12.70
11.04
8.09
4.92
2.50
1.01
-0.01
-1.12
-2.45
-3.59
-3.97
-3.42
-2.52
-2.29
-3.55
-6.40
-10.11
-13.59
-16.07
-17.53
-18.54
-19.86
-21.99
-24.95
-28.32
-31.52
-33.91
-34.91
-33.89
-30.40
-24.34
-16.19
-7.10
1.56
8.75
14.02
17.73
20.40
22.46
23.80
24.15
23.49
22.11
20.76
19.96
19.62
19.10
17.62
14.88
11.35
7.95
5.44
4.04
3.37
2.87
2.24
1.60
1.17
1.14
1.30
1.27
0.75
-0.34
-1.85
-3.63
-5.54
-7.61
-9.72
-11.65
-13.16
-14.15
-14.81
-15.55
-16.68
-18.25
-20.07
-21.69
-22.83
-23.29
-22.83
-21.15
-17.85
-12.81
-6.46
0.28
6.24
10.55
12.99
14.10
14.66
15.31
16.15
16.85
17.03
16.55
15.68
14.80
14.19
13.81
13.48
13.09
12.60
12.20
12.03
12.17
12.43
12.49
11.82
10.12
7.29
3.63
-0.21
-3.52
-5.73
-6.74
-6.98
-7.21
-8.13
-10.03
-12.62
-15.29
-17.55
-19.35
-21.12
-23.30
-26.03
-28.89
-31.15
-32.00
-31.15
-28.66
-24.78
-19.55
-12.89
-4.80
4.22
13.05
20.33
25.13
27.27
27.49
26.73
25.77
24.89
24.02
23.11
22.23
21.57
21.00
20.07
18.13
14.82
10.53
6.25
3.11
1.64
1.59
2.19
2.72
2.94
3.21
3.92
5.04
5.94
5.66
3.40
-0.96
-6.74
-12.83
-18.09
-21.67
-23.37
-23.51
-22.88
-22.56
-23.41
-25.67
-28.74
-31.32
-31.93
-29.64
-24.41
-17.14
-9.06
-1.22
5.77
11.65
16.29
19.58
21.50
22.41
22.90
23.49
24.25
24.61
23.72
21.08
17.13
12.97
10.04
9.00
9.56
10.51
10.65
9.54
7.61
5.74
4.57
4.13
3.86
3.33
2.51
1.81
1.66
2.03
2.16
1.14
-1.50
-5.38
-9.41
-12.39
-13.83
-14.14
-14.37
-15.62
-18.35
-22.38
-27.02
-31.54
-35.33
-37.91
-38.81
-37.45
-33.34
-26.45
-17.29
-6.97
3.07
11.49
17.42
20.55
21.15
20.14
18.61
17.71
18.10
19.68
21.78
23.37
23.64
22.37
19.87
16.70
13.34
10.16
7.42
5.50
4.95
5.82
7.71
9.55
10.13
8.74
5.56
1.49
-2.40
-5.55
-8.10
-10.56
-13.41
-16.67
-19.99
-23.01
-25.75
-28.45
-31.26
-33.90
-35.35
-34.55
-30.73
-24.04
-15.37
-5.96
3.11
11.14
17.62
22.35
25.23
26.40
26.38
25.60
24.46
22.86
20.49
17.14
13.23
9.79
8.00
8.46
10.70
13.40
15.15
15.15
13.61
11.43
9.40
7.82
6.47
4.99
3.21
1.35
-0.36
-1.92
-3.72
-6.28
-9.71
-13.57
-16.99
-19.32
-20.40
-20.79
-21.40
-23.11
-26.40
-31.05
-36.39
-41.25
-44.19
-43.72
-38.82
-29.45
-17.02
-4.11
6.53
13.05
15.40
15.16
14.45
14.86
16.72
19.48
22.25
24.70
26.95
29.23
31.36
32.55
31.92
29.08
24.66
19.95
16.32
14.55
14.44
15.27
16.20
16.66
16.32
14.85
11.92
7.32
1.38
-4.94
-10.40
-13.85
-14.79
-13.70
-11.69
-10.16
-10.16
-12.20
-16.26
-22.07
-29.17
-36.90
-44.19
-49.51
-51.43
-48.96
-42.08
-31.71
-19.46
-7.14
3.80
12.48
18.74
22.96
25.78
27.82
29.48
30.95
32.06
32.54
32.05
30.49
27.98
24.83
21.40
17.93
14.62
11.68
9.34
7.77
6.98
6.90
7.51
8.78
10.69
12.96
14.81
15.32
13.70
9.90
4.74
-0.37
-4.10
-6.08
-6.94
-7.95
-10.09
-13.46
-17.37
-21.00
-24.23
-27.75
-32.48
-38.66
-45.20
-50.04
-51.13
-47.53
-39.82
-29.69
-18.85
-8.33
1.68
11.15
19.71
26.41
30.27
31.06
29.51
27.06
24.97
23.88
23.50
23.28
22.90
22.26
21.57
20.80
19.81
18.39
16.59
14.61
12.55
10.32
7.70
4.79
2.35
1.34
2.43
5.09
7.73
8.41
5.92
0.60
-6.07
-12.30
-17.22
-21.00
-24.60
-28.75
-33.54
-38.32
-42.26
-44.83
-45.72
-44.69
-41.32
-35.30
-26.77
-16.66
-6.55
2.04
8.35
12.68
16.02
19.47
23.41
27.45
30.75
32.48
32.26
30.26
26.99
23.14
19.27
15.90
13.38
11.75
10.78
10.01
9.25
8.65
8.68
9.67
11.41
12.92
12.85
10.33
5.48
-0.53
-6.14
-10.18
-12.50
-13.86
-15.36
-17.68
-20.97
-24.85
-29.10
-33.69
-38.76
-43.99
-48.28
-50.01
-47.69
-40.84
-30.27
-17.81
-5.50
5.12
13.42
19.29
22.94
24.54
24.32
22.85
20.99
19.72
19.69
21.02
23.31
25.99
28.54
30.59
31.81
31.86
30.64
28.42
25.85
23.55
21.69
19.75
16.84
12.42
6.96
1.80
-1.61
-2.59
-1.84
-1.07
-1.93
-5.12
-9.82
-14.43
-17.42
-18.23
-17.52
-16.66
-17.01
-19.33
-23.77
-29.97
-37.24
-44.57
-50.47
-53.21
-51.32
-44.54
-33.92
-21.70
-10.34
-1.38
4.95
9.44
13.07
16.40
19.39
21.95
24.29
26.75
29.57
32.34
34.20
34.42
32.92
30.45
27.99
26.18
24.80
23.29
21.20
18.87
17.20
16.82
17.62
18.58
18.54
16.88
14.00
10.87
8.29
6.42
4.68
2.32
-0.95
-4.90
-8.96
-12.71
-16.19
-19.68
-23.23
-26.56
-29.19
-30.91
-32.12
-33.64
-36.06
-39.11
-41.63
-42.09
-39.39
-33.49
-25.23
-16.02
-7.13
0.59
6.64
10.96
13.62
15.05
16.00
17.10
18.69
20.37
21.32
20.84
18.95
16.36
14.17
13.05
12.90
13.04
12.81
12.08
11.29
11.04
11.42
11.96
11.86
10.58
8.23
5.42
2.96
1.13
-0.22
-1.52
-3.00
-4.55
-5.96
-7.09
-8.23
-9.92
-12.51
-16.13
-20.29
-24.36
-27.99
-31.02
-33.59
-35.74
-37.23
-37.61
-36.34
-33.14
-27.93
-20.88
-12.22
-2.36
7.90
17.49
25.09
29.79
31.39
30.53
28.39
26.02
24.04
22.44
20.95
19.48
18.20
17.54
17.63
18.22
18.76
18.74
18.09
17.13
16.25
15.59
14.77
13.24
10.53
6.69
2.26
-2.16
-6.16
-9.72
-12.90
-15.68
-17.87
-19.12
-19.61
-19.91
-20.85
-22.97
-26.11
-29.55
-32.49
-34.55
-35.84
-36.66
-36.91
-35.98
-32.99
-27.49
-19.68
-10.44
-0.78
8.33
16.26
22.58
26.87
28.84
28.47
26.21
23.06
20.11
18.10
17.15
16.91
16.69
15.98
14.64
12.86
11.05
9.55
8.75
8.74
9.56
11.02
12.72
14.09
14.45
13.29
10.53
6.71
2.72
-0.52
-2.63
-3.78
-4.57
-5.61
-7.10
-8.91
-10.77
-12.63
-14.63
-17.09
-20.23
-23.98
-28.12
-32.22
-35.81
-38.27
-39.09
-37.73
-34.08
-28.49
-21.66
-14.43
-7.26
-0.22
6.87
13.88
20.25
24.93
26.96
26.13
23.15
19.57
17.00
16.40
17.72
19.95
21.87
22.61
22.08
20.70
19.09
17.71
16.57
15.48
14.22
12.67
10.88
8.98
6.95
4.69
2.05
-1.04
-4.43
-7.82
-10.81
-13.02
-14.25
-14.62
-14.53
-14.58
-15.43
-17.44
-20.73
-24.99
-29.75
-34.33
-37.99
-39.91
-39.32
-35.75
-29.24
-20.47
-10.81
-1.70
5.83
11.55
16.04
20.13
24.33
28.47
31.76
33.40
33.07
31.12
28.19
24.79
20.96
16.62
11.86
7.27
3.87
2.39
2.80
4.24
5.47
5.48
4.10
1.88
-0.45
-2.44
-4.05
-5.57
-7.19
-8.91
-10.64
-12.26
-13.81
-15.28
-16.52
-17.32
-17.73
-18.14
-19.35
-22.06
-26.32
-31.19
-34.98
-35.98
-33.29
-27.25
-19.08
-10.20
-1.52
6.76
14.55
21.64
27.35
30.85
31.81
30.61
28.27
25.77
23.72
21.97
20.05
17.59
14.50
11.06
7.54
4.22
1.27
-1.01
-2.19
-1.97
-0.45
1.69
3.64
4.62
4.51
3.69
2.85
2.38
2.23
1.87
0.75
-1.28
-4.00
-6.97
-9.86
-12.89
-16.46
-20.93
-26.28
-32.11
-37.58
-41.86
-44.12
-43.70
-40.12
-33.23
-23.49
-11.97
-0.21
10.28
18.52
24.35
28.04
29.83
29.71
27.56
23.61
18.74
14.47
12.09
12.16
14.21
16.93
19.04
19.74
19.09
17.62
16.06
14.85
14.21
14.08
14.14
14.00
13.09
11.07
7.95
4.23
0.52
-2.71
-5.46
-8.08
-10.91
-14.02
-16.98
-19.36
-20.94
-22.22
-24.19
-27.77
-33.32
-39.96
-45.87
-49.01
-47.83
-42.16
-33.07
-22.40
-11.85
-2.45
5.63
12.71
18.97
24.28
28.21
30.52
31.25
30.75
29.43
27.65
25.56
23.39
21.40
19.94
19.14
18.82
18.55
17.96
17.03
15.94
14.86
13.70
12.21
10.22
8.12
6.51
6.00
6.54
7.36
7.40
5.91
2.92
-0.85
-4.48
-7.39
-9.51
-11.23
-12.97
-15.06
-17.76
-21.56
-26.91
-33.73
-41.16
-47.47
-50.68
-49.40
-43.48
-33.98
-22.71
-11.46
-1.41
6.89
13.37
18.31
21.98
24.87
27.23
29.21
30.62
31.17
30.54
28.80
26.41
23.99
21.90
19.94
17.40
13.69
8.88
3.84
0.03
-1.42
-0.40
2.29
5.31
7.49
8.44
8.20
6.93
4.54
0.89
-3.79
-8.58
-12.24
-13.86
-13.54
-12.52
-12.40
-14.29
-18.33
-23.80
-29.72
-35.36
-40.26
-43.81
-44.94
-42.28
-34.88
-23.02
-8.54
5.78
17.26
24.54
27.93
28.86
29.02
29.39
29.87
29.77
28.58
26.28
23.54
21.18
19.76
19.36
19.55
19.80
19.71
19.11
17.98
16.45
14.67
12.98
11.78
11.30
11.42
11.57
11.13
9.58
6.72
2.64
-2.52
-8.54
-15.16
-21.79
-27.59
-31.80
-34.11
-35.01
-35.68
-37.49
-41.01
-45.81
-50.44
-53.08
-52.47
-48.24
-40.77
-30.74
-18.97
-6.30
6.14
16.96
24.74
28.68
29.00
27.03
24.56
23.16
23.47
25.04
26.93
28.16
28.40
27.87
27.07
26.20
25.17
23.81
21.99
20.03
18.35
17.32
16.96
16.84
16.39
15.10
12.96
10.13
7.00
3.88
0.91
-1.91
-4.77
-7.80
-11.23
-15.08
-19.19
-23.16
-26.61
-29.54
-32.38
-35.82
-40.14
-44.80
-48.42
-49.23
-46.07
-38.82
-28.67
-17.27
-6.12
3.91
12.39
19.09
23.78
26.33
27.19
27.27
27.63
28.76
30.22
31.10
30.64
28.90
26.69
24.91
23.85
22.92
21.21
18.22
14.53
11.52
10.24
10.78
11.86
11.83
9.69
5.81
1.58
-1.54
-3.01
-3.51
-4.14
-5.70
-8.12
-10.66
-12.58
-13.77
-14.91
-16.89
-20.25
-24.77
-29.73
-34.45
-38.68
-42.50
-45.73
-47.64
-46.96
-42.68
-34.51
-23.35
-10.94
0.78
10.33
17.06
21.18
23.44
24.76
25.82
26.79
27.47
27.33
25.89
23.11
19.51
16.02
13.50
12.37
12.30
12.68
13.01
13.28
13.68
14.30
14.85
14.66
13.23
10.54
7.22
4.13
1.81
0.06
-1.95
-5.01
-9.38
-14.36
-18.83
-21.83
-23.33
-24.30
-26.08
-29.74
-35.29
-41.54
-46.75
-49.30
-48.36
-43.95
-36.49
-26.49
-14.49
-1.30
11.67
22.80
30.61
34.43
34.79
33.08
30.87
29.22
28.41
27.90
27.02
25.21
22.41
18.93
15.27
12.08
9.77
8.62
8.41
8.66
8.82
8.68
8.27
7.88
7.66
7.28
6.29
4.28
1.43
-1.53
-3.68
-4.58
-4.63
-4.94
-6.80
-10.80
-16.70
-23.46
-30.19
-36.51
-42.44
-47.88
-52.02
-53.29
-50.16
-42.11
-30.35
-17.37
-5.85
2.63
8.21
12.07
15.60
19.35
23.04
26.04
28.13
29.57
30.78
31.82
32.19
31.35
29.23
26.27
23.26
20.57
18.00
15.13
11.90
9.00
7.42
7.76
9.60
11.80
13.11
12.97
11.63
9.70
7.46
4.58
0.70
-4.25
-9.47
-13.92
-16.89
-18.63
-19.89
-21.48
-23.64
-26.04
-28.46
-31.12
-34.66
-39.43
-44.66
-48.52
-48.79
-43.94
-34.13
-21.05
-6.99
6.10
17.15
25.82
31.95
35.27
35.65
33.56
30.17
27.18
25.89
26.56
28.21
29.29
28.65
26.01
22.16
18.20
14.97
12.71
11.22
10.37
10.05
10.17
10.42
10.24
9.11
7.00
4.49
2.43
1.24
0.57
-0.48
-2.76
-6.35
-10.49
-14.03
-16.25
-17.44
-18.62
-20.92
-24.77
-29.74
-34.92
-39.43
-42.85
-44.90
-45.29
-43.40
-38.59
-30.74
-20.42
-8.88
2.47
12.57
20.85
27.12
31.33
33.44
33.53
32.10
29.99
28.11
26.91
26.13
24.92
22.50
18.65
13.87
9.15
5.40
3.11
2.46
3.34
5.46
8.16
10.33
10.52
7.64
1.72
-5.74
-12.29
-15.78
-15.52
-12.84
-10.15
-9.55
-11.75
-15.90
-20.56
-24.94
-29.31
-34.43
-40.66
-47.00
-51.47
-51.80
-46.88
-37.09
-24.23
-10.67
1.60
11.29
17.95
21.80
23.58
24.36
25.26
26.98
29.43
31.77
32.84
31.84
28.65
23.97
18.86
14.15
10.39
7.84
6.67
7.10
9.31
13.06
17.52
21.49
23.82
23.91
21.84
18.21
13.59
8.42
2.92
-2.67
-7.99
-12.59
-16.09
-18.29
-19.35
-19.78
-20.26
-21.74
-25.07
-30.76
-38.44
-46.68
-53.27
-55.96
-53.39
-45.79
-34.84
-22.72
-11.11
-0.59
9.07
18.08
25.99
31.52
33.54
31.78
27.35
22.39
18.96
18.13
19.58
22.04
24.19
25.32
25.55
25.45
25.50
25.54
25.10
23.63
20.88
17.09
12.77
8.44
4.55
1.31
-1.21
-3.16
-4.84
-6.75
-9.28
-12.57
-16.33
-19.81
-22.38
-23.94
-25.06
-26.76
-29.86
-34.39
-39.52
-43.85
-46.12
-45.59
-42.18
-36.13
-27.90
-18.04
-7.38
2.97
11.88
18.58
23.09
26.01
28.12
29.78
30.73
30.49
28.81
26.07
23.20
21.05
20.00
19.63
19.09
17.75
15.67
13.44
11.94
11.81
13.14
15.48
18.07
20.17
21.07
20.43
18.18
14.71
10.73
6.88
3.55
0.61
-2.43
-5.96
-10.04
-14.31
-18.36
-22.00
-25.57
-29.66
-34.63
-40.14
-45.20
-48.70
-49.83
-48.35
-44.43
-38.28
-29.94
-19.56
-7.82
4.01
14.21
21.39
25.14
26.15
25.78
25.23
24.97
24.70
23.66
21.45
18.35
15.28
13.08
12.08
12.04
12.29
12.30
11.92
11.29
10.56
9.76
9.06
8.63
8.78
9.52
10.36
10.27
8.33
4.39
-0.72
-5.60
-9.16
-11.36
-13.25
-16.04
-20.24
-25.17
-29.58
-32.59
-34.26
-35.36
-36.52
-37.35
-36.59
-32.79
-25.37
-15.12
-3.90
6.26
14.14
19.46
22.66
24.48
25.53
26.25
26.95
27.81
28.75
29.30
28.77
26.57
22.59
17.14
11.06
5.11
0.10
-3.49
-5.21
-4.81
-2.39
1.42
5.27
7.85
8.20
6.38
3.31
0.13
-2.22
-3.57
-4.36
-5.22
-6.43
-8.03
-10.07
-12.74
-16.49
-21.67
-28.24
-35.50
-42.29
-47.39
-49.82
-49.10
-45.11
-38.07
-28.38
-16.84
-4.67
6.72
16.03
22.57
26.48
28.53
29.58
30.08
30.04
29.24
27.90
26.62
26.06
26.44
27.14
27.02
25.14
21.47
16.96
12.97
10.41
9.26
8.93
8.85
9.00
9.72
11.17
12.70
12.97
10.77
5.84
-0.77
-7.25
-12.07
-14.78
-16.12
-17.40
-19.52
-22.44
-25.27
-27.17
-28.02
-28.70
-30.56
-34.53
-40.25
-46.09
-49.65
-48.76
-42.47
-31.38
-17.34
-2.95
9.48
18.50
23.94
26.70
28.22
29.60
31.12
32.34
32.62
31.66
29.84
27.97
26.63
25.71
24.57
22.39
18.87
14.40
9.84
5.97
3.23
1.74
1.57
2.76
5.20
8.17
10.41
10.65
8.33
3.99
-0.91
-4.97
-7.51
-8.90
-9.98
-11.35
-12.79
-13.55
-13.14
-12.11
-11.86
-14.09
-19.51
-27.31
-35.40
-41.36
-43.52
-41.49
-35.94
-27.89
-18.25
-7.76
2.82
12.40
19.80
24.21
25.61
24.79
22.95
20.99
19.16
17.11
14.52
11.47
8.64
6.87
6.73
8.08
10.12
11.89
12.83
12.94
12.67
12.42
12.28
11.97
11.06
9.33
6.86
3.99
1.06
-1.83
-4.86
-8.29
-12.15
-16.14
-19.77
-22.42
-23.80
-24.11
-24.08
-24.72
-26.99
-31.11
-36.28
-40.87
-42.91
-41.14
-35.43
-26.86
-16.99
-7.24
1.56
9.14
15.45
20.28
23.48
25.13
25.70
25.91
26.20
26.54
26.44
25.50
23.76
21.63
19.73
18.36
17.32
16.17
14.69
13.10
11.86
11.35
11.51
11.93
12.02
11.41
10.06
8.00
5.26
1.74
-2.48
-6.99
-11.04
-14.01
-15.60
-16.32
-17.19
-19.01
-22.06
-25.75
-29.14
-31.52
-32.83
-33.55
-33.98
-34.00
-32.71
-29.15
-23.03
-15.00
-6.37
1.70
8.87
15.49
21.92
28.01
32.76
34.97
34.07
30.65
26.23
22.42
20.15
19.33
19.13
18.76
17.88
16.65
15.28
13.82
12.04
9.70
6.74
3.42
0.11
-2.91
-5.45
-7.52
-9.10
-10.17
-10.87
-11.47
-12.41
-14.06
-16.54
-19.47
-22.28
-24.43
-25.83
-26.91
-28.30
-30.52
-33.45
-36.46
-38.58
-38.86
-36.72
-31.98
-24.95
-16.20
-6.66
2.83
11.48
18.87
24.80
29.15
31.90
32.76
31.64
28.82
25.18
22.03
20.60
21.43
24.05
27.24
29.54
30.00
28.44
25.39
21.61
17.78
14.29
11.32
8.96
7.13
5.79
4.63
3.16
1.02
-1.88
-5.14
-8.11
-10.19
-11.51
-12.68
-14.55
-17.70
-21.96
-26.74
-31.46
-35.90
-40.06
-43.88
-46.62
-47.22
-44.66
-38.69
-29.98
-19.87
-9.70
-0.09
8.89
17.40
25.07
31.14
34.69
35.35
33.67
30.82
28.04
26.10
25.00
24.11
22.60
20.08
16.66
13.04
10.07
8.41
8.17
8.90
9.88
10.39
10.16
9.15
7.79
6.32
4.78
2.82
-0.03
-3.98
-8.86
-14.05
-18.83
-22.84
-26.31
-29.92
-34.38
-39.79
-45.34
-49.53
-50.80
-48.25
-41.81
-32.29
-20.84
-8.66
3.08
13.24
20.83
25.33
26.79
26.00
24.01
21.69
19.38
16.96
14.38
11.91
10.21
9.93
11.19
13.30
15.23
16.24
16.32
16.24
16.92
18.72
21.07
22.66
22.06
18.50
12.26
4.36
-3.62
-10.35
-15.02
-17.46
-18.15
-18.07
-18.51
-20.59
-24.71
-30.42
-36.64
-42.06
-45.69
-47.00
-45.74
-41.71
-34.84
-25.53
-14.76
-4.27
4.23
9.81
12.89
14.83
17.04
20.10
23.37
25.83
26.89
26.92
27.01
27.86
29.27
30.08
29.17
26.34
22.62
19.61
18.64
19.80
22.09
24.04
24.40
22.75
19.33
14.73
9.63
4.56
0.05
-3.61
-6.25
-8.06
-9.42
-10.86
-12.70
-15.15
-18.42
-22.73
-28.56
-35.97
-44.47
-52.74
-58.78
-60.65
-57.11
-48.22
-35.39
-20.86
-6.83
5.19
14.73
22.16
28.09
32.94
36.66
39.08
40.06
39.78
38.82
37.83
37.23
36.96
36.52
35.20
32.48
28.47
23.89
19.89
17.54
17.24
18.35
19.68
20.01
18.81
16.63
14.43
12.83
11.51
9.25
4.87
-1.93
-10.03
-17.47
-22.52
-24.67
-24.78
-24.45
-25.11
-27.30
-30.84
-35.30
-40.42
-45.91
-51.09
-54.53
-54.45
-49.57
-39.84
-26.65
-12.19
1.36
12.57
20.75
25.97
28.69
29.55
29.72
30.39
32.34
35.36
38.10
38.73
36.10
30.51
23.72
18.10
15.17
14.96
16.25
17.35
17.19
15.70
13.63
11.72
10.43
9.52
8.55
7.31
5.92
4.65
3.58
2.39
0.63
-1.95
-5.33
-9.13
-12.93
-16.72
-20.61
-25.03
-30.34
-36.63
-43.73
-51.13
-57.98
-63.12
-65.33
-63.65
-57.67
-47.91
-35.41
-21.47
-7.10
7.01
20.16
31.37
39.45
43.56
43.97
42.05
39.63
37.99
37.38
36.88
35.43
32.46
28.25
23.47
18.70
14.19
10.22
7.37
6.63
8.61
12.87
17.72
20.83
20.47
16.58
10.64
4.72
0.08
-3.18
-5.97
-9.20
-12.91
-16.45
-18.95
-20.32
-21.57
-24.18
-29.16
-36.36
-44.34
-50.99
-54.87
-55.48
-53.26
-48.91
-42.78
-34.72
-24.56
-12.66
-0.22
11.02
19.63
24.95
27.43
28.15
28.14
28.03
27.96
27.89
27.79
27.74
27.68
27.42
26.70
25.43
23.82
22.24
21.08
20.35
20.07
20.04
20.10
20.32
20.50
20.15
18.59
15.38
10.69
5.34
0.44
-3.42
-6.34
-9.05
-12.24
-16.00
-19.75
-22.65
-24.26
-24.68
-24.55
-24.55
-25.26
-26.97
-30.02
-34.66
-40.82
-47.62
-53.21
-55.29
-52.08
-43.35
-30.42
-15.61
-1.32
10.93
20.51
27.45
31.82
33.67
33.11
30.67
27.38
24.43
22.61
22.08
22.37
22.75
22.65
21.90
20.64
19.10
17.42
15.91
14.78
14.46
15.17
16.73
18.45
19.45
19.10
17.17
13.97
9.91
5.29
0.19
-5.30
-10.88
-15.80
-19.08
-20.28
-19.63
-18.16
-17.12
-17.30
-18.83
-21.32
-24.55
-28.48
-33.31
-38.83
-44.02
-47.22
-46.65
-41.49
-32.06
-19.94
-7.15
4.42
13.59
19.91
23.47
25.00
25.52
26.11
27.39
29.11
30.34
30.05
27.80
24.21
20.62
18.16
17.14
16.80
15.99
13.98
10.93
7.69
5.12
3.50
2.50
1.64
0.78
0.10
-0.28
-0.76
-2.26
-5.44
-10.21
-15.40
-19.45
-21.30
-21.24
-20.76
-21.58
-24.60
-29.46
-34.82
-39.21
-41.91
-42.85
-42.07
-39.21
-33.52
-24.41
-12.37
0.97
13.18
22.21
27.17
28.60
27.97
26.68
25.48
24.33
23.03
21.56
20.30
19.57
19.19
18.55
16.87
13.92
10.15
6.59
4.11
3.04
3.06
3.51
3.95
4.39
5.10
6.29
7.71
8.61
7.99
5.12
-0.11
-7.07
-14.53
-21.13
-25.76
-28.09
-28.72
-29.04
-30.46
-33.68
-38.14
-42.19
-43.76
-41.44
-35.20
-26.11
-15.77
-5.53
3.91
12.46
19.93
25.99
30.04
31.57
30.80
28.69
26.54
25.43
25.77
27.15
28.74
29.66
29.32
27.49
24.31
20.18
15.77
11.78
8.70
6.62
5.20
3.84
2.12
0.06
-1.85
-3.07
-3.36
-3.04
-2.83
-3.25
-4.46
-6.08
-7.75
-9.52
-11.95
-15.62
-20.57
-26.00
-30.71
-33.86
-35.75
-37.57
-40.53
-44.59
-48.12
-48.54
-43.72
-33.39
-19.34
-4.61
7.86
16.43
20.99
22.42
21.93
20.55
19.17
18.48
19.03
20.85
23.29
25.29
25.91
24.76
22.32
19.52
17.09
15.15
13.37
11.36
9.18
7.46
7.04
8.34
11.29
15.11
18.92
21.80
23.17
22.60
19.91
15.31
9.28
2.65
-3.83
-9.67
-14.81
-19.46
-23.72
-27.36
-30.25
-32.52
-34.94
-38.67
-44.20
-50.82
-56.45
-58.64
-55.53
-47.03
-34.65
-20.73
-7.46
3.96
13.25
20.53
25.81
28.99
30.15
29.86
29.08
28.57
28.31
27.63
25.84
22.84
19.50
17.15
16.64
17.92
19.86
21.07
20.63
18.51
15.54
12.53
9.92
7.67
5.49
3.27
1.10
-0.77
-2.17
-3.08
-3.52
-3.57
-3.36
-3.36
-4.42
-7.37
-12.65
-19.79
-27.63
-34.82
-40.64
-45.16
-49.01
-52.58
-55.32
-55.70
-51.92
-43.02
-29.50
-13.46
2.27
15.13
23.94
28.83
30.77
31.09
30.67
30.00
29.14
27.99
26.46
24.48
22.17
19.77
17.66
16.11
15.18
14.64
14.10
13.33
12.47
11.95
12.12
12.94
13.62
13.27
11.30
8.05
4.59
2.04
0.73
-0.02
-1.56
-4.90
-10.01
-15.88
-21.45
-26.25
-30.78
-35.82
-41.67
-47.39
-51.13
-50.97
-46.16
-37.34
-26.24
-14.84
-4.60
3.71
10.04
14.68
18.15
21.10
23.94
26.76
29.03
29.94
29.08
26.77
24.00
21.88
21.03
21.00
20.73
19.19
16.22
12.76
10.21
9.65
11.08
13.64
15.90
16.76
15.76
13.13
9.27
4.60
-0.62
-5.95
-10.77
-14.39
-16.32
-16.71
-16.45
-16.82
-18.86
-22.84
-28.32
-34.55
-40.77
-46.43
-50.91
-53.27
-52.32
-47.24
-38.08
-25.98
-12.66
0.23
11.77
21.58
29.60
35.61
39.21
40.21
38.88
36.10
32.93
30.26
28.23
26.39
24.02
20.49
15.73
10.35
5.40
2.10
1.44
3.66
7.82
12.11
14.52
13.67
9.63
3.92
-1.30
-4.37
-4.92
-3.99
-3.09
-3.45
-5.10
-7.15
-8.46
-8.64
-8.42
-9.25
-12.43
-18.17
-25.55
-32.91
-38.64
-41.77
-42.02
-39.63
-35.00
-28.52
-20.60
-11.71
-2.30
6.89
15.10
21.48
25.39
26.68
25.86
24.22
23.13
23.49
25.16
27.09
27.89
26.78
23.93
20.26
16.64
13.22
9.54
5.13
0.36
-3.35
-4.27
-1.40
4.50
11.04
15.37
15.55
11.54
4.99
-1.93
-7.76
-12.14
-15.56
-18.56
-21.11
-22.90
-23.85
-24.63
-26.37
-30.02
-35.41
-41.13
-44.99
-45.07
-40.59
-32.15
-21.36
-9.91
0.86
10.20
17.87
23.88
28.35
31.42
33.24
33.91
33.46
32.22
30.54
29.02
27.87
26.88
25.47
23.00
19.39
15.19
11.36
8.76
7.57
7.28
7.07
6.30
4.99
3.52
2.31
1.28
-0.04
-2.20
-5.39
-9.15
-12.69
-15.31
-16.87
-17.68
-18.43
-19.75
-22.05
-25.62
-30.48
-36.51
-43.15
-49.01
-52.04
-50.14
-42.21
-28.86
-12.50
3.69
17.01
26.34
32.09
35.45
37.43
38.39
38.23
36.97
34.99
32.78
30.50
27.85
24.32
19.96
15.72
13.04
12.89
15.09
18.21
20.40
20.53
18.60
15.66
12.79
10.39
8.09
5.22
1.62
-2.35
-5.95
-8.68
-10.65
-12.32
-14.27
-16.68
-19.54
-22.92
-27.13
-32.53
-39.01
-45.56
-50.30
-51.22
-47.20
-38.54
-27.05
-14.94
-4.06
4.72
11.53
16.98
21.51
25.20
27.82
29.28
29.75
29.62
28.97
27.50
24.74
20.48
15.17
10.00
6.34
5.07
6.12
8.43
10.68
11.88
11.86
11.07
10.18
9.47
8.81
7.84
6.24
3.98
1.14
-1.95
-5.00
-7.84
-10.26
-12.41
-14.68
-17.51
-21.20
-25.81
-31.01
-36.42
-41.79
-46.95
-51.56
-54.66
-54.92
-50.97
-42.48
-30.47
-17.04
-4.47
5.91
13.92
20.31
25.55
29.66
32.03
32.24
30.64
28.30
26.48
25.67
25.43
24.76
22.85
19.81
16.34
13.29
11.04
9.47
8.29
7.53
7.58
8.74
10.75
12.55
13.00
11.41
8.05
3.90
0.02
-3.21
-6.14
-9.31
-13.11
-17.32
-21.63
-26.09
-31.00
-36.54
-42.02
-45.90
-46.24
-41.84
-33.11
-21.94
-10.74
-1.19
6.33
12.48
18.05
23.17
27.26
29.51
29.64
28.24
26.49
25.37
25.11
25.22
24.82
23.33
20.77
17.60
14.54
12.20
10.93
10.82
11.62
12.71
13.37
13.08
11.82
10.20
9.05
8.88
9.37
9.23
6.74
0.86
-8.13
-18.51
-28.03
-34.95
-38.93
-40.80
-41.68
-42.12
-41.65
-39.23
-33.98
-25.91
-15.93
-5.53
3.99
11.97
18.37
23.44
27.50
30.88
33.87
36.75
39.50
41.77
43.07
43.05
41.82
39.96
38.02
36.21
34.06
30.77
25.85
19.65
13.31
8.38
5.83
5.43
5.93
5.90
4.54
2.05
-0.77
-3.13
-4.86
-6.27
-7.99
-10.36
-13.41
-17.01
-21.24
-26.51
-33.12
-40.90
-48.80
-55.19
-58.53
-57.89
-53.47
-46.07
-36.94
-27.09
-17.35
-8.29
-0.30
6.35
11.61
15.53
18.28
19.91
20.56
20.36
19.64
18.81
18.13
17.44
16.19
13.84
10.25
6.08
2.53
0.61
0.57
1.55
2.27
1.76
-0.03
-2.22
-3.91
-4.74
-5.17
-6.03
-7.82
-10.25
-12.67
-14.65
-16.45
-18.82
-22.49
-27.44
-32.88
-37.63
-40.67
-41.57
-40.13
-36.31
-29.92
-21.04
-10.33
0.69
10.15
16.67
19.84
20.40
19.64
18.58
17.68
16.79
15.68
14.41
13.33
12.67
12.38
12.01
11.05
9.49
7.96
7.40
8.41
10.85
13.81
16.02
16.53
14.90
11.29
6.22
0.33
-5.66
-10.94
-14.96
-17.38
-18.54
-19.23
-20.25
-22.07
-24.56
-27.33
-30.03
-32.42
-34.36
-35.33
-34.30
-30.18
-22.54
-12.15
-0.95
8.74
15.37
18.84
20.26
21.14
22.30
23.65
24.31
23.69
21.92
19.71
18.00
17.16
16.84
16.41
15.23
13.32
11.03
8.77
6.73
4.77
2.80
0.79
-1.29
-3.40
-5.82
-8.89
-12.67
-16.84
-20.68
-23.46
-24.92
-25.50
-25.99
-27.05
-28.65
-30.14
-30.55
-29.26
-26.42
-22.66
-18.52
-14.17
-9.33
-3.59
2.91
9.50
15.23
19.50
22.47
24.75
26.99
29.17
30.69
30.89
29.46
26.86
24.01
21.72
20.31
19.47
18.65
17.46
15.75
13.62
11.25
8.82
6.61
4.97
4.09
3.83
3.66
2.81
1.01
-1.42
-3.83
-5.73
-7.45
-9.99
-14.53
-21.39
-29.86
-38.22
-44.57
-47.74
-47.56
-44.62
-39.58
-33.06
-25.43
-17.27
-9.30
-2.23
3.61
8.41
12.56
16.29
19.36
21.40
22.44
23.06
24.27
26.73
30.19
33.23
34.01
31.44
25.76
18.62
12.15
7.87
6.15
6.47
7.97
10.08
12.34
14.16
14.68
13.05
8.98
3.18
-2.88
-7.76
-10.75
-12.15
-12.90
-13.88
-15.55
-18.08
-21.77
-27.09
-34.23
-42.51
-50.06
-54.48
-54.01
-48.59
-39.95
-30.54
-22.16
-15.17
-8.50
-1.06
7.44
16.01
23.06
27.54
29.52
30.04
30.11
30.12
29.79
28.72
27.06
25.58
25.08
25.75
26.86
27.27
26.10
23.33
19.65
15.90
12.57
9.56
6.61
3.72
1.15
-0.75
-2.01
-3.00
-4.12
-5.53
-6.87
-7.74
-8.04
-8.31
-9.39
-12.11
-16.59
-22.26
-28.14
-33.17
-36.54
-37.69
-36.18
-31.82
-25.02
-16.76
-8.53
-1.76
2.93
5.84
7.98
10.28
13.15
16.24
18.86
20.63
21.62
22.25
22.73
22.71
21.57
18.92
15.04
11.15
8.70
8.65
10.86
14.04
16.55
17.26
15.85
12.97
9.58
6.38
3.62
1.20
-1.05
-3.18
-5.13
-7.06
-9.33
-12.39
-16.75
-22.54
-29.37
-36.29
-41.88
-44.57
-43.10
-37.04
-27.11
-15.43
-4.61
3.24
7.24
8.27
8.06
8.21
9.30
10.75
11.57
11.26
10.31
9.78
10.59
12.56
14.65
15.46
14.14
10.74
6.24
1.79
-1.79
-4.02
-4.79
-4.16
-2.28
0.47
3.37
5.59
6.48
5.86
3.98
1.36
-1.61
-4.79
-8.14
-11.56
-14.88
-17.97
-20.86
-23.76
-26.69
-29.25
-30.41
-28.99
-24.33
-16.81
-7.74
1.34
9.32
15.80
20.88
24.59
26.45
25.88
22.83
18.26
13.75
10.85
10.04
10.51
10.81
9.97
8.13
6.41
5.94
6.88
8.40
9.38
9.17
8.07
6.92
6.31
6.02
5.16
2.88
-0.99
-5.86
-10.78
-15.07
-18.49
-21.01
-22.68
-23.29
-22.76
-21.56
-20.76
-21.55
-24.42
-28.68
-32.63
-34.32
-32.35
-26.43
-17.30
-6.30
5.25
16.33
26.08
33.78
38.79
40.76
39.90
37.07
33.49
30.22
27.80
25.98
24.22
22.10
19.62
17.31
15.82
15.58
16.28
17.24
17.65
17.17
15.88
14.04
11.81
9.14
6.01
2.55
-0.83
-3.71
-5.93
-7.66
-9.17
-10.66
-12.10
-13.38
-14.71
-16.57
-19.69
-24.47
-30.81
-37.99
-44.92
-50.50
-53.76
-53.85
-50.31
-43.19
-33.29
-22.02
-10.91
-1.13
7.02
13.91
19.98
25.30
29.38
31.62
31.64
29.78
26.80
23.55
20.58
18.17
16.50
15.81
16.42
18.40
21.36
24.52
26.92
27.87
27.17
25.18
22.46
19.45
16.42
13.51
10.82
8.51
6.52
4.55
2.18
-1.01
-5.00
-9.32
-13.29
-16.47
-18.92
-21.17
-23.86
-27.28
-31.00
-33.99
-35.09
-33.59
-29.64
-23.91
-17.19
-9.92
-2.37
5.06
11.64
16.34
18.36
17.91
16.23
14.86
14.93
16.41
18.09
18.60
17.38
14.91
12.46
10.97
10.70
10.98
11.15
10.92
10.57
10.52
10.72
10.60
9.35
6.55
2.51
-1.83
-5.45
-7.76
-8.67
-8.60
-8.01
-7.42
-7.14
-7.57
-9.20
-12.51
-17.66
-24.28
-31.55
-38.15
-42.89
-44.82
-43.37
-38.41
-30.29
-19.88
-8.41
2.65
12.23
19.77
25.44
29.75
32.94
34.76
34.70
32.50
28.62
24.23
20.54
18.01
16.07
13.72
10.27
5.87
1.49
-1.86
-3.75
-4.70
-5.58
-7.06
-9.00
-10.56
-10.98
-10.07
-8.27
-6.34
-4.78
-3.71
-3.10
-3.20
-4.49
-7.76
-13.30
-20.72
-28.90
-36.42
-41.98
-44.74
-44.33
-40.76
-34.40
-26.03
-17.00
-8.80
-2.41
1.96
5.16
8.43
12.69
17.83
22.80
26.23
27.27
26.14
23.88
21.60
19.94
18.89
18.08
17.34
16.83
16.85
17.57
18.73
19.69
19.91
19.20
17.84
16.35
14.99
13.65
11.97
9.85
7.58
5.56
3.98
2.56
0.62
-2.37
-6.57
-11.74
-17.38
-23.11
-28.98
-35.00
-40.98
-46.14
-49.39
-49.75
-46.94
-41.35
-33.89
-25.49
-16.88
-8.44
-0.48
6.72
12.92
18.03
22.03
24.98
26.83
27.58
27.44
26.71
26.05
25.80
25.67
24.98
22.75
18.69
13.39
8.27
4.81
3.89
5.16
7.49
9.69
11.11
11.87
12.57
13.49
14.45
14.73
13.49
10.28
5.39
-0.47
-6.45
-11.93
-16.79
-21.08
-25.03
-28.94
-33.08
-37.47
-41.91
-45.53
-47.02
-45.28
-39.75
-30.96
-20.42
-9.88
-0.66
6.75
12.63
17.45
21.47
24.68
26.94
28.36
29.22
29.66
29.50
28.30
25.54
21.28
16.36
12.12
9.83
10.07
12.27
15.05
17.09
17.48
16.26
14.00
11.38
8.83
6.37
3.96
1.46
-1.02
-3.47
-6.06
-9.04
-12.56
-16.35
-19.78
-22.15
-23.26
-23.75
-24.69
-27.01
-30.92
-35.62
-39.78
-42.00
-41.42
-37.67
-30.97
-21.94
-11.59
-1.21
7.72
14.15
17.87
19.75
21.14
23.16
25.78
27.83
27.72
24.54
19.05
13.16
9.04
7.91
9.40
11.92
13.96
14.72
14.52
14.16
13.92
13.49
12.06
9.43
6.32
4.04
3.57
4.80
6.55
7.38
6.52
4.21
1.29
-1.52
-4.18
-7.16
-10.96
-15.69
-21.09
-26.72
-32.27
-37.40
-41.23
-42.50
-39.97
-33.40
-23.86
-13.62
-4.98
0.88
4.22
6.27
8.13
10.07
11.46
11.54
10.10
7.82
5.75
4.74
4.74
5.23
5.47
5.18
4.59
4.15
4.16
4.60
5.26
6.09
7.26
9.08
11.63
14.34
16.36
16.94
15.85
13.32
10.00
6.24
2.03
-2.96
-8.75
-15.06
-21.28
-26.95
-32.02
-36.77
-41.40
-45.48
-47.93
-47.24
-42.49
-33.69
-21.99
-9.17
3.11
13.58
21.66
27.12
29.99
30.59
29.56
27.81
26.41
26.12
26.86
27.96
28.28
26.96
23.99
20.30
17.27
16.07
16.90
18.92
20.72
21.14
19.85
17.37
14.73
12.59
11.07
9.73
7.92
5.30
1.89
-1.96
-5.90
-9.65
-13.20
-16.69
-20.58
-25.41
-31.48
-38.77
-46.49
-53.40
-58.18
-59.90
-58.26
-53.61
-46.69
-38.14
-28.45
-18.01
-7.18
3.48
13.17
21.16
26.96
30.48
32.27
33.15
34.10
35.67
37.82
39.86
40.97
40.65
38.86
36.03
32.79
29.61
26.79
24.36
22.26
20.35
18.47
16.54
14.60
12.72
10.93
9.14
7.02
4.04
-0.16
-5.61
-11.85
-18.21
-24.15
-29.26
-33.39
-36.49
-38.64
-40.10
-41.49
-43.54
-46.42
-49.61
-51.60
-50.55
-45.16
-35.45
-22.79
-9.34
2.83
12.59
19.78
24.95
28.57
30.78
31.70
31.59
31.06
30.84
31.22
31.81
31.49
29.14
24.42
18.16
11.91
7.35
5.32
5.53
6.89
8.15
8.57
8.00
6.74
5.15
3.43
1.70
0.11
-1.13
-1.85
-2.05
-1.88
-1.54
-1.19
-0.82
-0.56
-0.83
-2.28
-5.54
-10.80
-17.52
-24.75
-31.43
-36.78
-40.57
-42.74
-43.23
-41.86
-38.31
-32.59
-25.04
-16.38
-7.35
1.58
10.14
18.17
25.32
30.89
33.93
33.96
31.16
26.62
21.88
18.32
16.67
16.74
17.76
18.56
18.34
16.70
13.94
10.72
7.90
6.25
6.01
6.93
8.17
8.68
7.54
4.49
0.05
-4.64
-8.54
-11.01
-12.10
-12.23
-11.91
-11.58
-11.54
-12.24
-14.36
-18.51
-24.61
-31.67
-37.55
-39.80
-36.71
-28.14
-15.74
-2.30
9.47
17.91
22.90
25.26
26.07
25.98
25.16
23.58
21.34
18.99
17.08
15.93
15.45
15.29
14.72
13.26
10.67
7.20
3.68
1.07
0.31
1.67
4.37
6.76
7.21
4.85
0.12
-5.47
-10.36
-13.70
-15.73
-17.40
-19.43
-21.89
-24.38
-26.63
-28.92
-31.93
-36.12
-40.91
-44.69
-45.52
-42.20
-35.06
-25.76
-16.38
-8.40
-2.12
3.09
8.07
13.08
17.55
20.62
21.76
21.26
20.09
19.31
19.52
20.71
22.40
23.99
25.05
25.30
24.56
22.80
20.28
17.58
15.49
14.75
15.65
17.78
20.18
21.80
21.80
19.87
16.10
10.79
4.40
-2.54
-9.20
-14.83
-19.04
-21.98
-24.51
-27.50
-31.51
-36.32
-41.05
-44.53
-45.89
-44.82
-41.50
-36.18
-28.96
-19.98
-9.63
1.13
11.03
18.86
23.94
26.39
26.96
26.69
26.40
26.50
26.90
27.14
26.62
24.81
21.67
17.62
13.67
11.04
10.60
12.37
15.30
17.79
18.50
17.08
14.35
11.80
10.62
11.00
11.88
11.66
9.16
4.42
-1.31
-6.36
-9.63
-11.16
-11.98
-13.36
-16.19
-20.61
-26.35
-32.96
-39.91
-46.52
-51.67
-54.14
-52.88
-47.66
-39.29
-29.29
-19.21
-10.18
-2.67
3.23
7.52
10.30
11.91
13.12
14.87
17.74
21.56
25.47
28.33
29.50
29.36
28.85
28.93
29.73
30.52
30.14
28.00
24.41
20.43
17.17
15.17
14.11
13.42
12.70
12.03
11.79
11.90
11.65
9.80
5.31
-1.92
-10.70
-19.11
-25.54
-29.36
-31.41
-33.08
-35.63
-39.17
-42.67
-44.34
-42.82
-37.81
-30.12
-21.29
-12.67
-4.94
1.87
8.08
13.72
18.60
22.24
24.39
25.01
24.29
22.57
20.03
17.07
14.23
12.04
10.89
10.70
11.04
11.43
11.71
12.09
12.98
14.50
16.22
17.30
16.93
14.61
10.26
4.31
-2.76
-10.22
-17.27
-23.00
-26.61
-27.79
-26.83
-24.77
-22.70
-21.54
-21.72
-23.14
-25.37
-27.62
-28.89
-28.16
-24.59
-17.94
-8.91
0.88
9.47
15.36
18.28
18.97
18.88
19.21
20.17
21.10
21.14
19.92
17.97
16.50
16.26
17.16
18.05
17.57
14.91
10.45
5.56
1.80
0.14
0.48
1.93
3.33
3.90
3.51
2.51
1.46
0.64
0.11
-0.45
-1.43
-3.26
-6.23
-10.13
-14.60
-19.17
-23.58
-27.97
-32.79
-38.16
-43.43
-47.14
-47.45
-43.15
-34.46
-23.25
-12.17
-3.29
2.81
7.15
11.36
16.46
22.21
27.37
30.55
31.19
29.72
27.19
24.50
21.93
19.26
16.16
12.69
9.36
6.70
5.00
4.18
3.93
4.01
4.59
5.69
7.19
8.47
8.81
7.65
5.18
2.31
0.10
-0.73
-0.45
-0.07
-0.68
-2.86
-6.42
-10.80
-15.32
-19.69
-23.82
-27.59
-30.48
-31.81
-30.87
-27.49
-21.98
-14.94
-7.14
0.84
8.34
14.73
19.46
22.15
22.91
22.18
20.57
18.48
16.19
13.91
11.96
10.87
10.93
11.99
13.34
14.05
13.62
12.23
10.85
10.48
11.55
13.54
15.24
15.59
14.06
11.00
7.25
3.49
-0.00
-3.21
-6.03
-7.97
-8.42
-7.29
-5.35
-3.94
-4.41
-7.32
-12.10
-17.69
-23.13
-28.14
-32.96
-37.52
-40.88
-41.32
-37.32
-28.75
-17.33
-5.99
2.63
7.43
9.31
10.16
11.62
14.13
16.87
18.71
19.01
18.12
16.80
15.71
14.68
13.09
10.50
7.08
3.64
1.21
0.55
1.65
4.10
7.17
10.40
13.56
16.46
18.85
20.30
20.47
19.30
17.08
14.29
11.23
7.84
3.82
-0.84
-5.90
-10.92
-15.55
-20.08
-25.12
-31.29
-38.30
-45.06
-49.74
-50.96
-48.25
-42.20
-34.09
-24.98
-15.53
-5.89
3.66
12.40
19.25
23.32
24.45
23.41
21.58
20.15
19.75
20.26
21.12
21.72
21.61
20.59
18.62
15.82
12.57
9.33
6.64
4.86
3.75
2.75
1.36
-0.51
-2.19
-3.00
-2.51
-1.17
-0.02
0.05
-1.16
-3.06
-4.72
-5.76
-6.66
-8.38
-11.87
-17.25
-23.75
-30.06
-34.91
-37.40
-37.07
-33.93
-28.35
-21.23
-13.91
-7.60
-2.90
0.59
4.04
8.54
14.17
19.72
23.52
24.25
22.14
18.65
15.84
14.97
16.09
18.05
19.64
20.24
20.04
19.64
19.48
19.33
18.64
16.79
13.48
8.97
3.82
-1.31
-5.71
-8.84
-10.40
-10.41
-9.39
-8.29
-8.12
-9.70
-13.28
-18.47
-24.44
-30.44
-35.75
-39.82
-42.04
-41.73
-38.32
-31.80
-22.90
-13.23
-4.56
1.81
5.55
7.29
8.08
8.65
9.22
9.75
10.35
11.52
13.89
17.48
21.50
24.53
25.54
24.47
22.46
21.12
21.33
22.81
24.14
23.87
21.43
17.50
13.52
10.58
8.81
7.52
5.80
3.14
-0.29
-4.02
-7.64
-11.11
-14.52
-17.90
-20.94
-23.28
-24.83
-26.00
-27.36
-29.28
-31.45
-32.86
-32.43
-29.64
-24.79
-18.80
-12.62
-6.70
-0.96
4.85
10.74
16.31
20.96
24.37
26.61
28.15
29.42
30.61
31.66
32.48
33.05
33.40
33.29
32.18
29.36
24.45
17.94
10.97
4.86
0.41
-2.49
-4.64
-6.84
-9.39
-11.99
-14.28
-16.22
-18.11
-20.20
-22.41
-24.17
-25.04
-25.25
-25.76
-27.82
-31.84
-37.09
-41.82
-44.19
-43.18
-38.94
-32.33
-24.37
-15.69
-6.61
2.54
11.13
18.37
23.65
26.95
28.75
29.65
29.97
29.70
28.68
26.88
24.67
22.49
20.73
19.35
18.23
17.25
16.58
16.53
17.08
17.79
17.76
16.21
12.94
8.63
4.47
1.43
-0.26
-1.14
-2.01
-3.33
-5.04
-6.75
-8.38
-10.32
-13.30
-17.80
-23.50
-29.26
-33.65
-35.47
-34.20
-30.03
-23.77
-16.44
-9.04
-2.58
2.44
6.11
9.14
12.38
16.34
20.59
23.95
25.12
23.39
19.31
14.30
9.98
7.25
6.04
5.58
5.04
4.25
3.69
3.95
5.38
7.61
9.89
11.54
12.29
12.21
11.45
9.98
7.60
4.03
-0.68
-6.01
-11.28
-15.97
-19.94
-23.18
-25.81
-27.77
-28.92
-29.22
-28.85
-27.98
-26.71
-24.74
-21.62
-17.09
-11.30
-4.76
1.91
8.32
14.39
19.98
24.62
27.57
28.07
26.01
22.18
18.08
15.07
13.84
14.00
14.50
14.35
13.01
10.73
8.23
6.16
4.80
3.92
2.92
1.22
-1.35
-4.54
-7.71
-10.19
-11.42
-11.24
-9.98
-8.33
-7.17
-7.40
-9.58
-13.87
-19.99
-27.26
-34.58
-40.61
-44.02
-44.00
-40.43
-33.94
-25.61
-16.77
-8.49
-1.40
4.57
9.91
15.24
20.72
25.86
29.78
31.71
31.57
30.12
28.77
28.61
29.75
31.37
32.07
30.88
27.79
23.74
19.81
16.52
13.68
10.67
7.13
3.38
0.22
-1.64
-2.21
-2.29
-3.04
-5.22
-8.75
-12.69
-15.97
-18.02
-19.13
-20.32
-22.75
-27.10
-33.10
-39.48
-44.43
-46.22
-43.75
-36.91
-26.58
-14.41
-2.35
7.82
15.09
19.30
21.12
21.47
21.08
20.42
19.80
19.66
20.44
22.42
25.25
28.04
29.60
29.21
27.06
23.97
20.95
18.52
16.37
13.89
10.70
7.10
3.80
1.30
-0.39
-1.76
-3.24
-4.84
-6.12
-6.66
-6.45
-6.07
-6.35
-7.67
-9.94
-12.59
-15.34
-18.46
-22.49
-27.67
-33.14
-37.14
-37.61
-33.39
-24.95
-14.39
-4.37
3.07
7.39
9.56
11.05
12.97
15.44
17.92
19.82
20.97
21.64
22.07
22.12
21.29
19.18
15.78
11.63
7.58
4.25
1.85
0.20
-1.00
-1.90
-2.57
-3.08
-3.68
-4.38
-5.03
-5.14
-4.23
-2.34
-0.00
1.79
2.14
0.91
-1.32
-3.66
-5.36
-6.41
-7.56
-9.87
-14.09
-20.19
-27.17
-33.49
-37.68
-38.57
-35.75
-29.45
-20.47
-9.85
1.12
11.26
19.62
25.55
28.84
29.58
28.13
25.12
21.33
17.64
14.91
13.54
13.43
13.81
13.69
12.33
9.80
6.83
4.45
3.35
3.39
3.93
4.29
4.14
3.79
3.72
4.13
4.74
4.80
3.64
1.14
-2.21
-5.60
-8.42
-10.50
-12.08
-13.48
-14.74
-15.74
-16.42
-17.06
-18.31
-20.61
-23.80
-26.87
-28.44
-27.35
-23.38
-17.29
-10.35
-3.74
1.94
6.57
10.36
13.34
15.36
16.42
16.75
16.92
17.39
18.25
19.06
19.24
18.45
16.78
14.65
12.40
10.16
7.72
5.04
2.40
0.27
-0.83
-0.91
-0.48
-0.21
-0.48
-1.17
-1.68
-1.62
-1.19
-1.11
-2.09
-4.31
-7.36
-10.50
-13.38
-16.28
-19.88
-24.70
-30.43
-35.76
-38.87
-38.23
-33.50
-25.58
-16.17
-6.85
1.41
8.48
14.58
19.89
24.36
27.87
30.44
32.34
33.74
34.52
34.22
32.07
27.73
21.52
14.60
8.40
4.01
1.87
1.62
2.59
3.95
5.02
5.23
4.22
2.10
-0.53
-2.88
-4.24
-4.47
-4.16
-4.58
-6.87
-11.43
-17.77
-24.54
-30.35
-34.41
-36.79
-38.11
-39.02
-39.80
-40.27
-39.89
-38.13
-34.50
-28.75
-20.93
-11.46
-1.17
8.78
17.22
23.18
26.34
26.92
25.55
22.91
19.59
16.17
13.23
11.46
11.16
12.26
14.19
15.96
16.80
16.26
14.30
11.29
7.93
5.11
3.86
4.99
8.71
14.32
20.21
24.29
24.96
21.79
15.82
8.95
3.07
-0.92
-3.44
-5.69
-8.89
-13.42
-18.70
-23.71
-27.72
-30.76
-33.43
-36.17
-38.76
-40.25
-39.43
-35.67
-29.33
-21.62
-13.86
-6.82
-0.59
5.12
10.48
15.21
18.77
20.72
21.10
20.30
18.93
17.49
16.40
15.99
16.64
18.62
21.78
25.44
28.47
29.86
29.25
26.99
24.05
21.37
19.20
17.17
14.66
11.40
7.63
3.99
1.04
-1.27
-3.54
-6.51
-10.41
-14.83
-18.98
-22.25
-24.60
-26.63
-28.82
-31.42
-34.27
-36.99
-39.44
-41.71
-43.70
-44.87
-44.20
-40.79
-34.41
-25.78
-16.38
-7.55
0.12
7.07
14.11
21.68
29.31
35.80
39.89
40.90
39.23
35.88
31.88
27.84
23.88
19.96
16.18
13.04
11.05
10.32
10.60
11.05
10.77
9.27
6.63
3.44
0.56
-1.23
-1.58
-0.60
0.98
2.23
2.27
0.60
-2.62
-6.61
-10.32
-13.08
-14.63
-15.26
-15.38
-15.43
-15.72
-16.66
-18.69
-22.18
-26.88
-31.74
-35.16
-35.50
-32.01
-25.12
-16.11
-6.51
2.47
10.23
16.49
21.08
23.89
25.02
24.95
24.54
24.54
25.16
26.07
26.63
26.46
25.66
24.78
24.23
24.03
23.64
22.34
19.86
16.59
13.26
10.62
8.97
7.84
6.51
4.42
1.66
-1.01
-2.71
-3.14
-2.85
-2.94
-4.50
-7.91
-12.83
-18.48
-23.98
-28.97
-33.36
-37.27
-40.63
-43.31
-45.08
-45.53
-44.24
-40.77
-34.91
-26.96
-17.77
-8.64
-0.59
6.02
11.60
16.63
21.19
24.68
26.13
25.03
21.69
17.22
13.00
9.90
7.99
6.76
5.80
5.03
4.74
5.17
6.19
7.28
7.90
7.89
7.69
7.97
9.06
10.69
12.02
12.33
11.36
9.56
7.74
6.30
5.08
3.44
0.85
-2.66
-6.47
-9.93
-12.91
-15.98
-19.91
-25.05
-30.87
-36.03
-39.15
-39.52
-37.17
-32.69
-26.72
-19.64
-11.76
-3.67
3.78
9.77
13.85
16.37
18.38
20.87
24.25
28.27
32.13
35.12
36.91
37.49
36.94
35.33
32.65
29.17
25.61
22.94
21.86
22.23
23.02
22.83
20.50
15.99
10.20
4.46
-0.16
-3.46
-5.97
-8.56
-11.71
-15.41
-19.23
-22.64
-25.29
-27.07
-28.14
-28.78
-29.39
-30.52
-32.56
-35.62
-39.22
-42.43
-44.15
-43.47
-40.05
-34.10
-26.25
-17.34
-8.24
0.24
7.43
13.05
17.10
20.10
22.55
24.86
26.85
28.04
27.86
26.14
23.23
19.95
17.20
15.53
15.16
15.85
17.23
18.72
19.75
19.71
18.21
15.44
12.02
9.04
7.46
7.73
9.49
11.72
13.34
13.55
12.45
10.60
8.67
6.88
4.68
1.25
-4.02
-10.85
-18.30
-24.99
-30.06
-33.46
-35.83
-37.88
-39.74
-40.81
-40.16
-37.20
-32.15
-25.85
-19.35
-13.09
-7.08
-1.00
5.06
10.55
14.69
17.01
17.75
17.74
17.91
18.75
20.19
21.69
22.63
22.64
21.57
19.59
17.06
14.60
12.92
12.63
13.91
16.22
18.52
19.69
19.01
16.43
12.52
8.03
3.49
-0.89
-5.03
-8.79
-11.87
-14.05
-15.35
-16.17
-17.23
-19.02
-21.67
-24.84
-28.06
-30.98
-33.51
-35.56
-36.90
-37.07
-35.54
-32.07
-26.92
-20.79
-14.44
-8.31
-2.43
3.37
9.14
14.66
19.45
23.10
25.58
27.05
27.75
27.77
26.93
25.07
22.25
18.76
15.12
11.83
9.12
7.06
5.63
4.85
4.80
5.51
6.78
8.26
9.59
10.54
11.13
11.47
11.47
10.66
8.61
4.99
0.19
-5.01
-9.84
-13.94
-17.87
-22.51
-28.50
-35.48
-42.33
-47.44
-49.69
-48.78
-45.21
-39.69
-32.60
-24.00
-14.02
-3.32
6.81
14.91
20.09
22.54
23.33
23.82
24.88
26.63
28.59
30.20
31.12
31.17
30.38
28.67
26.02
22.58
18.74
14.99
11.71
8.95
6.55
4.47
2.95
2.32
2.74
3.89
4.87
4.95
3.91
2.24
0.80
0.11
-0.15
-0.94
-3.17
-7.30
-12.78
-18.49
-23.46
-27.31
-30.54
-33.83
-37.60
-41.45
-44.29
-44.78
-41.95
-35.83
-27.29
-17.74
-8.53
-0.38
6.56
12.40
17.23
20.84
22.94
23.53
22.98
22.11
21.74
22.32
23.67
25.05
25.51
24.36
21.50
17.64
13.84
11.28
10.59
11.50
12.96
13.56
12.45
9.85
7.00
5.37
5.74
7.79
10.27
11.81
11.57
9.60
6.43
2.48
-2.06
-7.19
-12.61
-17.52
-21.09
-22.98
-23.82
-24.94
-27.61
-32.12
-37.58
-42.19
-44.23
-42.62
-37.17
-28.53
-17.70
-6.12
4.80
13.59
19.02
20.80
19.75
17.44
15.70
15.68
17.44
20.20
22.89
24.78
25.69
25.87
25.59
24.88
23.65
21.85
19.66
17.35
15.14
13.02
10.72
8.11
5.45
3.44
2.71
3.46
5.22
7.06
7.97
7.29
4.99
1.48
-2.82
-7.65
-12.71
-17.77
-22.35
-25.88
-28.33
-30.22
-32.67
-36.67
-42.35
-48.58
-53.34
-54.55
-50.97
-42.72
-31.02
-17.76
-4.70
6.90
16.24
22.86
26.50
27.39
26.03
23.48
20.89
19.25
18.99
20.03
21.78
23.45
24.09
22.88
19.58
14.75
9.63
5.90
4.74
6.33
9.66
12.99
14.80
14.41
12.15
8.99
5.80
2.93
0.28
-2.44
-5.31
-8.14
-10.51
-12.19
-13.29
-14.21
-15.52
-17.70
-20.91
-25.01
-29.58
-33.81
-36.79
-37.72
-36.21
-32.46
-27.14
-21.06
-14.68
-8.10
-0.97
6.79
14.87
22.48
28.58
32.46
33.97
33.78
32.69
31.31
29.61
27.22
23.94
20.01
16.32
13.73
12.59
12.35
11.81
9.79
5.90
0.87
-3.99
-7.40
-8.86
-8.75
-7.94
-7.16
-6.74
-6.70
-6.98
-7.72
-9.04
-10.89
-12.98
-14.82
-16.12
-16.98
-18.02
-19.82
-22.64
-26.17
-29.60
-31.95
-32.42
-30.49
-26.06
-19.42
-11.14
-2.19
6.13
12.63
16.67
18.29
18.42
18.23
18.56
19.62
20.77
21.28
20.66
19.17
17.49
16.42
16.34
17.06
18.04
18.64
18.56
17.81
16.59
15.20
13.87
12.77
11.76
10.55
8.78
6.24
3.15
-0.00
-2.72
-4.89
-6.87
-9.38
-12.71
-16.50
-19.85
-21.78
-22.17
-21.92
-22.61
-25.61
-31.17
-37.97
-43.76
-46.18
-43.98
-37.34
-27.62
-16.65
-5.96
3.67
11.90
18.57
23.46
26.35
27.38
27.12
26.50
26.26
26.64
27.35
27.89
27.95
27.61
27.04
26.20
24.80
22.57
19.61
16.68
14.69
14.26
15.08
15.89
15.38
12.79
8.63
4.22
0.95
-0.50
-0.36
0.53
1.18
0.93
-0.46
-2.95
-6.59
-11.38
-17.31
-24.05
-31.02
-37.58
-43.24
-47.67
-50.58
-51.55
-49.94
-45.34
-37.79
-28.07
-17.40
-7.13
1.79
8.96
14.47
18.75
22.12
24.97
27.46
29.71
31.70
33.06
33.31
31.95
28.90
24.50
19.64
15.22
11.73
9.30
7.64
6.48
5.60
4.97
4.53
4.15
3.69
3.03
2.11
0.92
-0.51
-2.32
-4.44
-6.70
-8.77
-10.35
-11.45
-12.51
-14.22
-17.13
-21.42
-26.76
-32.58
-38.42
-43.86
-48.27
-50.56
-49.38
-43.55
-32.94
-18.92
-4.14
8.38
16.67
20.57
21.61
22.03
23.32
25.55
27.66
28.37
27.35
25.42
23.91
23.75
24.92
26.50
27.32
26.87
25.34
23.33
21.34
19.37
17.12
14.39
11.45
8.76
6.75
5.42
4.27
2.91
1.14
-0.83
-2.68
-4.29
-5.80
-7.73
-10.50
-14.25
-18.88
-24.03
-29.41
-34.85
-40.23
-45.28
-49.50
-52.10
-52.35
-49.59
-43.53
-34.40
-22.83
-10.07
2.34
12.99
20.92
26.04
29.03
30.74
31.71
31.98
31.01
28.47
24.75
21.00
18.46
17.78
18.48
19.12
18.19
15.22
11.15
7.77
6.65
8.15
11.25
14.20
15.74
15.89
15.54
15.82
16.95
18.04
17.65
14.83
9.68
3.43
-2.30
-6.47
-8.85
-10.06
-10.94
-12.02
-13.38
-14.83
-16.26
-17.86
-20.38
-24.64
-31.22
-39.75
-48.75
-55.82
-58.27
-54.41
-44.25
-29.48
-12.90
2.86
16.05
26.00
32.84
36.82
37.93
36.29
32.44
27.52
23.04
20.11
18.93
18.72
18.28
16.83
14.51
12.14
10.57
10.16
10.47
10.79
10.64
10.11
9.89
10.64
12.39
14.34
15.31
14.42
11.51
7.22
2.40
-2.32
-6.80
-11.28
-15.84
-20.20
-23.84
-26.34
-27.69
-28.48
-29.40
-30.77
-32.50
-34.31
-36.14
-38.28
-40.80
-43.16
-43.98
-41.46
-34.56
-23.58
-10.50
2.06
11.99
18.58
22.61
25.31
27.58
29.44
30.50
30.46
29.75
29.13
29.07
29.37
29.20
27.72
24.69
20.70
16.69
13.61
11.78
10.99
10.78
10.55
9.89
8.60
6.75
4.75
3.32
3.13
4.32
6.23
7.34
6.11
1.94
-4.54
-11.39
-16.58
-18.89
-18.64
-17.34
-16.91
-18.51
-22.34
-27.78
-33.80
-39.39
-43.73
-45.84
-44.69
-39.54
-30.41
-18.59
-6.30
4.08
11.08
14.50
15.37
15.23
15.26
16.06
17.57
19.61
21.96
24.36
26.28
27.07
26.18
23.40
19.20
14.48
10.41
7.95
7.63
9.53
13.13
17.25
20.28
20.72
17.73
11.66
4.05
-3.10
-8.32
-11.38
-13.27
-15.42
-18.68
-22.80
-26.90
-30.05
-32.22
-34.15
-36.60
-39.71
-42.59
-43.76
-41.96
-36.83
-28.90
-19.27
-9.00
1.09
10.36
18.15
23.89
27.31
28.60
28.47
27.62
26.47
25.09
23.22
20.86
18.28
15.96
14.24
13.16
12.41
11.42
9.91
7.90
5.82
4.20
3.16
2.46
1.55
0.01
-2.29
-4.88
-6.92
-7.58
-6.56
-4.21
-1.50
0.34
0.24
-2.41
-7.59
-14.75
-22.85
-30.65
-36.91
-40.61
-41.30
-39.06
-34.35
-27.77
-20.03
-11.92
-4.37
1.75
6.14
9.12
11.63
14.75
18.89
23.57
27.56
29.87
30.03
28.68
26.95
25.93
25.95
26.44
26.48
25.45
23.50
21.33
19.77
19.04
18.79
18.27
16.74
13.97
10.14
5.73
1.15
-3.44
-7.93
-12.19
-15.91
-18.91
-21.15
-22.97
-24.78
-26.93
-29.41
-31.98
-34.44
-36.51
-37.85
-37.71
-35.15
-29.42
-20.50
-9.42
2.08
12.37
20.49
26.61
31.64
36.15
39.97
42.18
41.85
38.85
33.96
28.52
23.70
19.72
16.21
12.66
8.97
5.61
3.10
1.61
0.80
0.06
-0.78
-1.34
-0.90
0.89
3.49
5.74
6.54
5.69
4.10
3.16
3.80
5.89
8.03
8.55
6.51
2.20
-2.97
-7.28
-9.77
-10.52
-10.41
-10.62
-11.80
-14.07
-17.27
-21.13
-25.63
-30.86
-36.68
-42.59
-47.69
-51.12
-52.17
-50.40
-45.80
-38.71
-29.92
-20.37
-10.90
-2.06
6.00
13.42
20.13
25.82
30.00
32.40
33.27
33.50
34.03
35.36
37.11
38.12
37.51
34.96
31.19
27.36
24.26
21.98
19.96
17.66
14.84
11.95
9.55
7.99
7.07
6.19
4.82
2.81
0.41
-1.95
-4.03
-5.76
-7.28
-8.51
-9.33
-9.69
-9.97
-10.81
-12.89
-16.48
-21.14
-26.04
-30.14
-33.20
-35.55
-37.95
-40.95
-44.38
-47.31
-48.46
-46.76
-41.76
-33.79
-23.52
-11.85
0.22
11.60
21.37
28.85
34.04
37.36
39.31
40.08
39.43
36.98
32.95
28.33
24.51
22.55
22.38
22.71
21.88
18.69
13.22
6.84
1.27
-2.35
-3.78
-3.60
-2.62
-1.30
-0.03
0.86
0.91
-0.38
-3.03
-6.40
-9.38
-11.09
-11.49
-11.47
-12.18
-14.20
-17.06
-19.53
-20.35
-19.25
-17.04
-15.18
-14.93
-16.71
-20.01
-23.94
-27.76
-30.96
-33.29
-34.26
-33.27
-29.97
-24.41
-17.36
-9.92
-3.01
2.94
8.05
12.65
16.84
20.42
23.11
24.75
25.76
26.61
27.54
28.27
28.18
26.84
24.29
21.23
18.36
16.06
14.14
12.11
9.84
7.79
6.81
7.40
9.25
11.30
12.29
11.69
9.74
7.33
5.21
3.50
1.73
-0.67
-3.85
-7.39
-10.45
-12.48
-13.40
-13.84
-14.64
-16.33
-18.97
-22.23
-25.80
-29.41
-32.96
-35.98
-37.67
-37.12
-33.75
-27.95
-20.93
-14.15
-8.56
-4.11
-0.10
4.21
8.86
13.18
16.27
17.76
18.03
17.99
18.35
19.27
20.29
20.76
20.36
19.15
17.56
15.94
14.54
13.45
12.74
12.48
12.65
13.16
13.70
14.06
14.05
13.56
12.39
10.38
7.36
3.59
-0.24
-3.26
-4.73
-4.73
-4.00
-3.77
-5.05
-8.13
-12.50
-17.21
-21.48
-25.03
-28.14
-31.20
-34.23
-36.84
-38.26
-37.92
-35.71
-32.08
-27.65
-23.02
-18.35
-13.51
-8.24
-2.39
3.95
10.50
16.75
22.04
25.56
26.69
25.27
21.87
17.68
13.95
11.44
10.20
9.62
9.05
8.27
7.47
7.00
6.96
7.06
6.86
6.08
4.91
3.87
3.40
3.52
3.79
3.65
2.79
1.43
-0.02
-1.20
-2.09
-3.08
-4.44
-6.27
-8.40
-10.56
-12.80
-15.54
-19.21
-23.72
-28.28
-31.52
-32.19
-29.91
-25.36
-19.67
-13.64
-7.30
-0.07
8.38
17.33
25.15
29.98
30.96
28.81
25.29
22.18
20.35
19.46
18.58
16.98
14.65
12.10
9.70
7.55
5.42
3.31
1.69
1.27
2.41
4.52
6.32
6.59
4.75
1.42
-2.22
-5.17
-7.24
-8.90
-10.83
-13.40
-16.35
-19.35
-22.29
-25.49
-29.46
-34.29
-39.33
-43.29
-44.83
-43.21
-38.53
-31.47
-22.88
-13.50
-4.05
4.69
11.81
16.59
18.95
19.58
19.79
20.67
22.49
24.71
26.39
26.89
26.33
25.35
24.55
23.99
23.06
21.01
17.49
12.89
8.00
3.77
0.84
-0.60
-0.78
-0.17
0.63
1.04
0.63
-0.76
-2.90
-5.13
-6.83
-7.69
-7.85
-7.84
-8.12
-8.91
-10.22
-11.97
-14.40
-17.82
-22.23
-26.87
-30.43
-31.35
-28.78
-22.95
-15.10
-6.79
0.86
7.42
13.08
17.87
21.55
23.66
24.06
23.37
22.64
22.70
23.65
24.62
24.53
22.62
18.95
14.25
9.44
5.21
1.92
-0.19
-0.99
-0.45
1.01
2.49
2.94
1.77
-0.84
-3.89
-6.32
-7.77
-8.74
-10.07
-12.26
-15.07
-17.70
-19.52
-20.65
-21.99
-24.48
-28.32
-32.49
-35.19
-34.72
-30.54
-23.12
-13.77
-3.74
6.23
15.64
23.80
29.75
32.48
31.68
28.20
23.85
20.58
19.54
20.56
22.35
23.51
23.38
22.50
21.99
22.78
24.84
27.17
28.41
27.67
25.03
21.43
17.85
14.87
12.10
8.60
3.53
-3.39
-11.52
-19.85
-27.41
-33.78
-39.04
-43.49
-47.30
-50.21
-51.64
-50.87
-47.44
-41.09
-32.17
-21.33
-9.54
2.17
12.90
22.08
29.35
34.56
37.51
38.06
36.15
32.25
27.31
22.76
19.75
18.57
18.50
18.14
16.41
13.11
9.29
6.49
5.75
7.17
9.47
11.01
10.42
7.50
3.09
-1.37
-4.73
-6.54
-7.21
-7.52
-8.44
-10.65
-14.54
-20.01
-26.63
-33.51
-39.44
-43.26
-44.20
-42.05
-37.22
-30.36
-21.96
-12.24
-1.49
9.72
20.24
28.71
34.19
36.68
36.99
36.48
35.99
35.57
34.76
32.95
30.05
26.44
22.61
18.94
15.42
12.04
8.98
6.84
6.14
6.99
8.81
10.41
10.58
8.48
4.20
-1.41
-7.08
-11.51
-13.89
-14.01
-12.57
-10.81
-10.21
-11.97
-16.39
-22.64
-29.05
-33.51
-34.35
-31.08
-24.38
-15.58
-6.08
3.34
12.39
20.73
27.71
32.26
33.48
31.33
26.90
21.95
17.96
15.66
14.74
14.26
13.24
11.16
8.02
4.16
0.03
-3.86
-6.94
-8.81
-9.38
-9.09
-8.94
-9.77
-12.10
-15.51
-18.99
-21.36
-22.06
-21.18
-19.59
-18.52
-18.84
-20.86
-24.30
-28.32
-32.01
-34.37
-34.49
-31.56
-25.29
-16.09
-5.23
5.39
14.13
19.96
23.00
24.14
24.41
24.68
25.28
26.30
27.69
29.31
30.72
31.43
30.84
28.83
25.83
22.67
20.04
18.05
16.11
13.42
9.46
4.55
-0.52
-4.81
-8.03
-10.57
-13.05
-16.05
-19.47
-22.89
-25.78
-28.12
-30.43
-33.28
-36.90
-40.62
-43.18
-43.22
-40.14
-34.26
-26.60
-18.28
-9.90
-1.71
6.06
12.84
17.81
20.48
21.26
21.46
22.36
24.55
27.23
28.83
28.21
25.62
22.59
20.91
21.22
22.45
22.60
20.11
14.96
8.80
3.72
1.10
0.70
1.11
0.92
-0.45
-2.59
-4.71
-6.54
-8.60
-11.70
-15.95
-20.50
-24.01
-25.50
-25.41
-25.31
-26.98
-31.21
-37.03
-41.89
-43.02
-38.64
-28.71
-15.10
-0.37
13.05
23.61
30.71
34.40
35.22
33.92
31.43
28.75
26.64
25.28
24.31
23.03
20.89
17.82
14.25
10.97
8.52
7.04
6.42
6.41
6.99
8.15
9.64
10.99
11.57
11.11
9.87
8.36
7.07
5.99
4.65
2.46
-0.76
-4.68
-8.58
-11.80
-14.31
-16.75
-20.17
-25.33
-32.21
-39.87
-46.73
-51.11
-51.71
-48.00
-40.26
-29.35
-16.57
-3.10
9.92
21.54
30.87
37.25
40.33
40.36
38.20
35.16
32.59
31.30
31.27
31.58
30.83
27.81
22.35
15.57
9.32
5.38
4.43
5.58
7.02
6.94
4.58
0.62
-3.45
-6.38
-7.93
-8.90
-10.55
-13.48
-17.42
-21.46
-24.73
-27.03
-28.88
-31.07
-34.05
-37.76
-41.67
-44.93
-46.69
-45.97
-42.04
-34.74
-24.67
-13.44
-3.00
5.14
10.61
14.25
17.44
21.08
25.00
28.23
29.63
28.83
26.44
23.68
21.48
20.03
18.69
16.56
13.25
9.02
4.79
1.64
0.25
0.63
2.25
4.33
5.98
6.79
6.47
4.97
2.55
-0.47
-3.60
-6.39
-8.61
-10.37
-12.23
-14.81
-18.68
-24.02
-30.63
-37.86
-44.68
-49.84
-52.19
-50.83
-45.28
-35.89
-23.77
-10.50
2.23
13.02
21.06
26.14
28.55
28.90
28.10
27.10
26.66
27.10
28.27
29.57
30.33
30.24
29.40
28.21
26.93
25.36
22.93
19.14
14.13
8.80
4.42
1.77
0.67
0.12
-1.24
-4.19
-8.41
-12.82
-16.27
-18.27
-19.36
-20.58
-22.67
-25.68
-28.97
-32.08
-34.89
-37.80
-41.01
-43.96
-45.47
-44.08
-38.94
-30.25
-19.24
-7.62
3.27
12.59
20.08
25.64
29.14
30.56
30.45
29.82
29.73
30.65
31.94
32.29
30.59
26.79
22.15
18.56
17.55
19.26
22.41
25.05
25.52
23.37
19.27
14.38
9.70
5.54
1.75
-1.98
-5.71
-9.28
-12.46
-15.22
-17.73
-20.29
-23.07
-25.92
-28.49
-30.42
-31.56
-32.03
-32.02
-31.53
-30.46
-28.55
-25.76
-22.21
-18.14
-13.59
-8.45
-2.61
3.70
9.71
14.48
17.45
18.77
19.28
19.97
21.20
22.50
23.03
22.21
20.32
18.21
16.67
16.00
15.62
14.91
13.68
12.44
12.03
12.93
14.88
16.95
18.28
18.22
16.75
14.10
10.51
6.20
1.48
-3.11
-6.96
-9.55
-10.87
-11.46
-12.04
-13.37
-15.67
-18.91
-22.86
-27.37
-32.24
-37.06
-40.73
-41.84
-39.18
-32.34
-22.28
-11.13
-1.20
5.96
10.15
12.31
13.77
15.20
16.59
17.43
17.34
16.58
15.71
15.18
14.94
14.52
13.60
12.31
11.43
11.47
12.47
13.55
13.68
12.37
10.01
7.61
6.21
6.04
6.37
6.14
4.43
1.11
-3.17
-7.55
-11.41
-14.63
-17.46
-20.32
-23.23
-26.12
-28.88
-31.42
-33.65
-35.34
-35.89
-34.84
-31.86
-26.97
-20.55
-12.98
-4.42
4.91
14.48
23.18
29.53
32.38
31.75
28.79
25.39
23.24
22.69
22.99
22.75
21.10
18.09
14.70
11.95
10.17
8.94
7.30
4.82
1.91
-0.51
-1.61
-1.32
-0.42
-0.07
-1.02
-3.18
-5.72
-7.71
-8.91
-9.71
-10.86
-12.60
-14.58
-16.14
-17.14
-18.14
-20.11
-23.73
-28.53
-33.12
-35.80
-35.44
-32.02
-26.31
-19.51
-12.44
-5.62
0.51
5.42
8.51
9.74
9.64
9.29
9.57
10.72
12.25
13.27
13.23
12.31
11.16
10.50
10.62
11.26
12.06
12.94
14.15
16.17
18.95
21.92
24.06
24.40
22.74
19.40
15.30
11.13
7.39
4.06
1.04
-1.67
-3.99
-5.84
-7.54
-9.61
-12.64
-16.96
-22.57
-28.89
-35.05
-40.09
-42.92
-42.65
-38.78
-31.52
-21.81
-11.23
-1.50
6.17
11.37
14.61
16.77
18.69
20.71
22.81
24.97
27.18
29.56
31.88
33.43
33.01
29.89
24.00
16.59
9.66
5.07
3.72
5.16
8.00
10.57
11.92
11.92
10.99
9.61
7.81
5.53
2.71
-0.24
-2.62
-3.80
-3.77
-3.16
-3.03
-4.32
-7.41
-12.06
-17.65
-23.59
-29.62
-35.60
-41.30
-46.20
-49.55
-50.36
-47.96
-42.02
-32.78
-21.03
-8.05
4.58
15.29
23.01
27.35
28.67
27.81
25.67
22.99
20.31
18.16
17.02
17.24
18.64
20.37
21.19
20.04
16.86
12.67
9.22
8.07
9.66
13.03
16.19
17.29
15.47
11.33
6.33
1.92
-1.18
-3.26
-5.12
-7.36
-9.89
-12.24
-14.01
-15.29
-16.75
-19.14
-22.76
-27.47
-32.60
-37.33
-40.93
-42.69
-41.91
-38.03
-30.88
-21.15
-10.42
-0.52
7.16
12.27
15.50
17.87
20.04
21.90
22.91
22.55
20.89
18.51
16.10
14.12
12.61
11.50
10.79
10.86
11.95
13.91
16.04
17.35
17.36
16.21
14.66
13.30
12.13
10.47
7.53
3.05
-2.40
-7.66
-11.77
-14.47
-16.25
-17.88
-19.92
-22.44
-25.19
-27.94
-30.59
-33.08
-35.02
-35.67
-34.09
-29.68
-22.49
-13.47
-4.01
4.50
11.14
15.70
18.55
20.26
21.30
21.94
22.23
22.27
22.22
22.33
22.73
23.31
23.63
23.12
21.42
18.47
14.63
10.54
7.01
4.72
4.03
4.78
6.26
7.42
7.38
5.73
2.77
-0.67
-3.79
-6.30
-8.48
-10.88
-13.91
-17.50
-21.19
-24.63
-27.74
-30.91
-34.59
-38.84
-43.08
-46.29
-47.32
-45.46
-40.65
-33.26
-23.98
-13.54
-2.64
7.86
17.08
24.11
28.31
29.61
28.60
26.34
23.96
22.28
21.50
21.39
21.66
22.15
22.87
23.81
24.76
25.24
24.94
23.78
22.03
20.19
18.45
16.73
14.75
12.31
9.65
7.33
5.91
5.48
5.55
5.20
3.77
1.02
-2.64
-6.56
-10.29
-13.75
-17.26
-21.18
-25.68
-30.65
-35.65
-40.21
-43.64
-45.29
-44.42
-40.41
-33.08
-22.90
-11.09
0.74
11.12
19.32
25.21
29.01
30.96
31.04
29.21
25.76
21.51
17.57
15.01
14.26
15.05
16.63
18.20
19.24
19.41
18.65
17.06
14.95
12.91
11.42
10.69
10.27
9.32
7.17
3.83
0.09
-3.01
-4.77
-5.39
-5.88
-7.23
-9.79
-12.86
-15.23
-16.06
-15.58
-14.95
-15.57
-18.21
-22.58
-27.51
-31.76
-34.31
-34.68
-32.75
-28.52
-22.13
-14.04
-5.20
3.20
10.06
15.02
18.44
21.04
23.42
25.51
26.74
26.49
24.64
21.80
18.95
16.75
15.20
13.69
11.41
8.13
4.41
1.30
-0.20
0.12
1.74
3.59
4.91
5.30
4.96
4.35
3.76
3.32
2.99
2.78
2.60
2.13
0.70
-2.43
-7.60
-14.51
-22.12
-29.11
-34.53
-38.20
-40.62
-42.44
-43.86
-44.42
-43.22
-39.36
-32.42
-22.68
-11.01
1.31
12.82
22.11
28.02
30.09
28.84
25.68
22.56
21.01
21.55
23.48
25.40
26.04
24.98
22.61
19.73
17.02
14.80
13.03
11.72
11.07
11.34
12.38
13.52
13.63
11.91
8.17
3.22
-1.64
-5.19
-6.97
-7.32
-7.08
-7.22
-8.35
-10.76
-14.51
-19.45
-25.35
-31.76
-38.05
-43.54
-47.40
-48.95
-47.54
-42.80
-34.73
-24.07
-12.16
-0.72
8.69
15.45
19.82
22.82
25.33
27.55
28.94
28.81
26.86
23.55
19.93
17.08
15.53
15.15
15.49
16.09
16.69
17.37
17.92
18.03
17.28
15.54
13.17
10.80
8.99
7.69
6.28
4.03
0.63
-3.47
-7.31
-10.01
-11.46
-12.27
-13.30
-15.07
-17.34
-19.41
-20.84
-22.01
-23.99
-27.71
-33.15
-38.82
-42.31
-41.50
-35.52
-25.09
-12.15
1.11
12.92
22.21
28.59
32.12
33.26
32.77
31.56
30.43
29.68
28.97
27.67
25.30
21.97
18.24
14.89
12.37
10.59
9.21
7.90
6.60
5.60
5.02
4.72
4.31
3.40
1.81
-0.07
-1.76
-2.97
-3.90
-5.08
-7.05
-9.84
-12.97
-15.67
-17.42
-18.31
-19.09
-20.76
-23.95
-28.56
-33.77
-38.37
-41.27
-41.87
-40.09
-36.25
-30.71
-23.85
-15.93
-7.55
0.56
7.62
13.01
16.55
18.60
19.61
19.97
19.82
19.09
17.70
15.76
13.68
11.92
10.88
10.63
10.92
11.38
11.63
11.34
10.46
9.19
7.90
7.02
6.75
6.83
6.62
5.39
2.74
-1.02
-4.98
-8.05
-9.65
-10.04
-10.22
-11.37
-14.48
-19.63
-26.24
-33.40
-40.18
-45.75
-49.26
-49.93
-47.16
-40.87
-31.77
-21.18
-10.58
-1.00
7.29
14.50
20.86
26.06
29.37
29.98
27.81
23.65
18.95
15.14
12.90
11.94
11.44
10.71
9.52
8.20
7.15
6.48
5.89
4.98
3.85
2.97
3.08
4.47
6.73
8.95
10.13
9.95
8.83
7.58
6.80
6.43
5.79
4.00
0.49
-4.78
-11.33
-18.56
-25.89
-32.54
-37.73
-40.54
-40.30
-36.78
-30.55
-22.60
-14.05
-5.67
2.15
9.17
15.03
19.10
20.88
20.41
18.58
16.73
16.04
16.95
18.98
21.15
22.61
23.09
22.80
22.14
21.36
20.49
19.50
18.52
17.87
17.59
17.23
15.91
12.85
7.84
1.43
-5.24
-11.22
-16.13
-20.30
-24.08
-27.66
-30.74
-32.93
-34.34
-35.63
-37.84
-41.55
-46.39
-51.06
-53.90
-53.72
-50.15
-43.58
-34.60
-23.72
-11.39
1.61
14.04
24.49
31.93
36.19
38.02
38.61
38.88
39.18
39.25
38.72
37.40
35.31
32.53
29.07
24.98
20.56
16.55
13.70
12.39
12.28
12.47
12.05
10.63
8.61
6.75
5.59
4.92
3.92
1.61
-2.30
-7.17
-11.76
-15.01
-16.79
-17.86
-19.49
-22.47
-26.75
-31.61
-36.25
-40.34
-43.99
-47.16
-49.19
-48.80
-44.68
-36.48
-25.31
-13.07
-1.62
8.05
16.00
22.67
28.14
31.99
33.81
33.81
33.02
32.93
34.29
36.68
38.63
38.44
35.41
30.19
24.46
19.93
17.52
16.92
17.27
17.74
17.77
17.38
16.69
15.66
14.14
11.94
9.01
5.63
2.15
-1.15
-4.06
-6.62
-8.80
-10.70
-12.65
-15.10
-18.61
-23.36
-29.20
-35.30
-40.73
-44.52
-46.08
-45.24
-41.99
-36.32
-28.12
-17.50
-5.12
7.60
18.86
27.44
32.95
36.04
37.73
38.49
38.10
35.89
31.46
25.58
20.04
16.66
16.15
17.67
19.46
19.91
18.49
15.83
12.99
10.66
8.89
7.57
6.73
6.78
7.92
9.76
11.04
10.30
6.61
0.18
-7.65
-15.08
-20.75
-24.20
-25.79
-26.33
-26.70
-27.55
-29.20
-31.44
-33.78
-35.13
-34.32
-30.36
-23.07
-13.28
-2.65
6.96
14.40
19.59
23.38
26.86
30.45
33.72
35.73
35.86
34.40
32.19
30.14
28.47
26.68
23.85
19.54
14.08
8.55
4.24
1.94
1.71
2.92
4.46
5.22
4.33
1.56
-2.47
-6.40
-8.67
-8.53
-6.63
-4.92
-5.69
-10.29
-18.29
-27.73
-36.34
-42.86
-47.53
-51.32
-54.82
-57.24
-56.78
-51.78
-41.98
-29.00
-15.43
-3.42
6.30
14.32
21.66
28.74
35.05
39.81
42.84
44.79
46.61
48.51
49.64
48.49
44.05
36.69
28.10
20.35
14.66
10.99
8.33
5.77
3.32
1.68
1.53
2.92
4.98
6.25
5.68
2.99
-1.20
-5.89
-10.55
-15.10
-19.72
-24.46
-29.01
-32.85
-35.77
-38.20
-40.80
-44.22
-48.33
-52.29
-54.95
-55.24
-52.56
-46.80
-38.07
-26.50
-12.51
2.73
17.39
29.25
36.85
40.31
40.98
40.82
41.10
41.64
41.31
39.07
34.86
30.02
26.52
25.62
27.42
30.49
32.89
33.11
30.84
26.85
22.68
19.78
18.73
19.12
19.56
18.41
14.49
7.75
-0.69
-8.90
-15.04
-18.27
-19.03
-18.58
-18.41
-19.20
-20.81
-22.85
-25.23
-28.74
-34.40
-42.62
-52.34
-61.07
-65.81
-64.50
-57.01
-45.10
-31.47
-18.33
-6.49
4.27
14.32
23.36
30.32
34.07
34.53
33.09
31.76
32.00
33.74
35.82
36.66
35.54
32.93
29.76
26.61
23.10
18.65
13.20
7.73
4.00
3.21
5.16
8.14
10.06
9.48
6.51
2.48
-1.18
-3.57
-5.03
-6.43
-8.70
-12.34
-17.30
-22.98
-28.53
-33.31
-36.76
-38.97
-40.50
-42.21
-44.64
-47.41
-49.27
-48.34
-43.30
-34.01
-21.88
-9.17
2.14
11.04
17.94
23.85
29.53
34.70
38.19
38.63
35.49
29.61
22.88
17.49
14.78
14.82
16.44
18.17
18.86
18.38
17.38
16.64
16.65
17.04
17.08
15.86
12.92
8.48
3.24
-1.96
-6.36
-9.60
-11.84
-13.57
-15.54
-18.46
-22.84
-28.72
-35.73
-43.02
-49.75
-55.29
-59.15
-60.75
-59.15
-53.40
-43.11
-28.91
-12.76
2.75
15.34
24.12
29.61
33.18
36.09
38.61
40.22
40.11
37.97
34.53
31.01
28.54
27.35
26.75
25.50
22.55
17.69
11.58
5.68
1.53
0.07
1.39
4.43
7.42
8.57
6.91
2.63
-2.87
-7.88
-11.13
-12.58
-13.45
-15.45
-19.82
-26.59
-34.63
-42.64
-49.77
-56.00
-61.40
-65.49
-66.62
-62.73
-52.69
-37.14
-18.79
-1.15
12.91
22.31
27.74
30.81
32.91
34.74
36.42
38.10
39.97
42.19
44.33
45.18
43.35
38.10
29.93
20.49
11.80
5.30
1.35
-0.69
-1.66
-2.22
-2.73
-3.48
-5.03
-8.02
-12.88
-19.36
-26.76
-34.13
-40.98
-47.39
-53.76
-60.47
-67.52
-74.72
-82.07
-89.76
-97.93
-106.20
-113.51
-118.46
-120.22
-119.36
-117.69
-117.25
-118.61
-119.68
-115.88
-101.85
-74.13
-33.34
15.56
64.75
106.62
136.25
152.70
158.15
156.27
150.23
141.86
131.98
120.95
109.59
98.94
90.10
83.56
79.18
76.11
73.15
69.25
63.66
56.47
48.44
40.83
34.64
29.96
25.89
21.01
14.38
6.18
-2.22
-9.19
-13.81
-16.41
-18.33
-21.15
-25.66
-31.61
-37.92
-43.29
-46.64
-47.30
-44.83
-38.99
-30.00
-18.68
-6.31
5.46
15.27
22.44
26.90
28.91
28.94
27.39
24.76
21.71
19.16
17.90
18.40
20.49
23.46
26.51
29.12
31.21
33.06
34.75
35.95
36.04
34.46
31.02
26.12
20.48
14.64
8.87
3.21
-2.24
-7.00
-10.46
-12.30
-12.87
-13.21
-14.43
-17.13
-21.14
-25.73
-30.39
-34.94
-39.50
-43.82
-47.02
-47.69
-44.65
-37.82
-28.28
-17.83
-8.10
0.15
7.11
13.19
18.62
23.07
26.14
27.69
28.07
27.76
26.99
25.62
23.34
20.20
16.83
14.04
12.40
11.75
11.33
10.30
8.44
6.32
4.71
4.08
4.18
4.29
3.84
2.84
1.86
1.26
0.78
-0.45
-3.35
-8.11
-13.87
-19.26
-23.18
-25.65
-27.66
-30.51
-34.79
-40.05
-44.89
-47.81
-47.73
-44.43
-38.21
-29.81
-20.08
-10.02
-0.70
7.00
12.65
16.53
19.35
21.85
24.24
26.18
27.10
26.64
25.03
22.80
20.39
17.91
15.18
12.21
9.37
7.37
6.61
6.93
7.46
7.06
5.27
2.51
-0.01
-1.27
-1.09
-0.31
-0.20
-1.48
-3.95
-6.58
-8.38
-9.11
-9.51
-10.85
-14.02
-19.06
-25.10
-30.88
-35.54
-38.71
-40.37
-40.41
-38.42
-33.93
-26.95
-18.23
-8.97
-0.26
7.24
13.41
18.41
22.28
24.83
25.97
25.97
25.40
24.86
24.41
23.60
21.84
19.13
16.21
14.25
14.08
15.52
17.33
18.05
16.95
14.28
11.27
9.09
8.14
7.92
7.55
6.53
5.13
4.22
4.23
4.74
4.54
2.39
-2.12
-8.23
-14.35
-19.11
-22.08
-23.83
-25.53
-28.00
-31.36
-35.12
-38.65
-41.46
-43.24
-43.66
-42.16
-38.24
-31.82
-23.55
-14.52
-5.88
1.62
8.06
13.78
19.15
24.24
28.71
32.10
34.21
35.06
34.92
33.99
32.25
29.70
26.26
22.11
17.52
12.81
8.37
4.63
2.11
1.38
2.81
6.25
10.65
14.39
15.83
14.15
9.88
4.55
-0.17
-3.25
-4.83
-5.92
-7.47
-9.79
-12.46
-14.62
-15.72
-15.88
-15.61
-15.50
-15.80
-16.37
-17.04
-17.87
-19.01
-20.48
-21.93
-22.69
-22.03
-19.79
-16.15
-11.71
-7.10
-2.61
1.59
5.35
8.30
10.04
10.40
9.80
9.16
9.39
10.94
13.30
15.42
16.21
15.13
12.40
8.81
5.17
2.07
-0.12
-1.25
-1.18
0.21
2.75
5.72
8.12
9.05
8.02
5.45
2.14
-0.98
-3.37
-5.09
-6.47
-7.88
-9.35
-10.65
-11.45
-11.67
-11.51
-11.42
-11.74
-12.57
-13.78
-15.06
-16.20
-16.99
-17.37
-17.08
-15.85
-13.49
-10.07
-5.92
-1.49
2.80
6.70
10.01
12.55
14.04
14.24
13.15
11.05
8.52
6.13
4.32
3.29
3.02
3.32
4.00
4.77
5.33
5.41
4.81
3.64
2.11
0.62
-0.58
-1.38
-1.85
-2.12
-2.34
-2.59
-2.84
-3.11
-3.28
-3.21
-2.76
-1.92
-0.95
-0.28
-0.38
-1.48
-3.51
-6.04
-8.50
-10.43
-11.60
-11.99
-11.59
-10.38
-8.25
-5.34
-2.06
0.88
2.87
3.71
3.79
3.90
4.71
6.45
8.64
10.49
11.41
11.39
10.86
10.32
9.89
9.26
8.01
6.02
3.72
1.79
0.86
0.96
1.59
2.08
1.97
1.32
0.50
-0.09
-0.45
-0.93
-1.97
-3.78
-6.13
-8.54
-10.49
-11.79
-12.52
-12.89
-13.06
-13.01
-12.70
-12.22
-11.82
-11.76
-12.06
-12.38
-12.18
-10.96
-8.55
-5.26
-1.66
1.63
4.35
6.51
8.28
9.71
10.74
11.34
11.68
12.10
12.84
13.95
15.08
15.83
15.77
14.75
12.93
10.57
7.98
5.35
2.98
1.19
0.25
0.18
0.70
1.15
0.99
0.12
-1.18
-2.23
-2.68
-2.54
-2.29
-2.37
-2.98
-3.89
-4.56
-4.63
-4.08
-3.21
-2.48
-2.14
-2.27
-2.76
-3.58
-4.76
-6.48
-8.69
-11.16
-13.40
-15.00
-15.72
-15.55
-14.62
-12.96
-10.65
-7.68
-4.33
-0.91
2.33
5.30
8.14
10.87
13.30
14.88
15.27
14.54
13.41
12.81
13.27
14.40
15.11
14.35
11.91
8.80
6.55
6.28
7.86
9.98
10.99
9.91
7.11
3.87
1.61
0.92
1.24
1.37
0.29
-2.26
-5.61
-8.78
-10.98
-12.10
-12.39
-12.24
-11.73
-10.74
-9.24
-7.61
-6.59
-6.86
-8.54
-10.90
-12.65
-12.70
-10.62
-7.02
-3.09
0.01
1.77
2.33
2.31
2.25
2.41
2.79
3.24
3.74
4.26
4.80
5.25
5.49
5.50
5.20
4.72
4.04
3.22
2.26
1.30
0.52
0.13
0.19
0.54
0.97
1.23
1.33
1.49
1.95
2.61
3.07
2.79
1.46
-0.63
-2.76
-4.12
-4.37
-3.83
-3.24
-3.20
-3.85
-4.96
-6.32
-8.13
-10.84
-14.62
-18.92
-22.35
-23.35
-21.03
-15.82
-9.21
-3.00
1.64
4.59
6.37
7.70
8.77
9.33
9.06
8.06
6.76
5.79
5.61
6.30
7.66
9.34
10.99
12.20
12.56
11.79
9.93
7.52
5.33
4.03
3.69
3.82
3.62
2.55
0.63
-1.50
-3.21
-4.17
-4.61
-5.07
-5.80
-6.61
-6.96
-6.47
-5.34
-4.29
-4.11
-5.19
-7.26
-9.60
-11.49
-12.55
-12.83
-12.63
-12.21
-11.62
-10.75
-9.46
-7.73
-5.66
-3.40
-1.08
1.06
2.81
4.07
4.98
6.04
7.81
10.49
13.78
16.86
18.77
18.91
17.29
14.48
11.39
8.66
6.52
4.85
3.47
2.46
2.18
2.85
4.29
5.73
6.22
5.16
2.65
-0.43
-2.98
-4.15
-3.92
-2.94
-2.08
-1.99
-2.74
-4.06
-5.59
-7.15
-8.67
-10.13
-11.37
-12.14
-12.43
-12.35
-12.23
-12.35
-12.82
-13.55
-14.43
-15.17
-15.28
-14.13
-11.07
-5.94
0.80
7.85
13.69
17.07
17.56
15.75
12.86
10.17
8.28
7.26
6.77
6.59
6.84
7.84
9.58
11.58
13.11
13.60
13.10
12.19
11.62
11.76
12.35
12.73
12.22
10.82
8.86
6.93
5.29
3.88
2.41
0.63
-1.44
-3.75
-6.29
-9.16
-12.37
-15.65
-18.36
-19.94
-20.24
-19.67
-19.03
-19.10
-20.16
-21.91
-23.76
-25.16
-25.96
-26.31
-26.30
-25.58
-23.41
-18.94
-11.86
-2.75
7.16
16.40
23.75
28.67
31.04
31.04
28.87
24.91
19.81
14.65
10.65
8.62
8.61
9.99
11.81
13.31
14.22
14.47
13.90
12.31
9.66
6.55
4.08
3.49
5.25
8.66
12.12
13.99
13.55
11.29
8.50
6.13
4.29
2.22
-1.00
-5.46
-10.35
-14.39
-16.72
-17.36
-17.16
-17.14
-17.80
-18.93
-20.07
-20.89
-21.57
-22.60
-24.30
-26.59
-28.78
-29.77
-28.57
-24.65
-18.06
-9.48
-0.11
8.79
16.06
21.10
24.03
25.50
26.30
26.90
27.18
26.52
24.32
20.50
15.79
11.45
8.58
7.55
7.68
7.83
7.03
5.25
3.29
2.32
2.98
4.89
7.08
8.43
8.40
7.02
4.74
1.92
-1.35
-5.05
-9.03
-12.74
-15.75
-17.88
-19.47
-21.08
-23.08
-25.37
-27.49
-29.07
-30.22
-31.52
-33.63
-36.60
-39.67
-41.36
-40.18
-35.28
-27.03
-16.68
-5.97
3.57
11.05
16.17
18.94
19.61
18.75
17.18
16.03
16.23
18.11
20.99
23.59
24.76
24.03
22.19
20.39
19.55
19.64
20.06
20.08
19.62
19.19
19.30
19.68
19.35
17.13
12.77
7.23
2.38
-0.37
-0.83
-0.23
-0.23
-1.92
-5.05
-8.59
-11.67
-14.26
-17.22
-21.52
-27.45
-34.39
-41.01
-46.07
-48.70
-48.61
-45.62
-39.57
-30.58
-19.33
-7.29
3.78
12.42
18.15
21.52
23.50
25.00
26.25
27.14
27.41
27.22
27.03
27.20
27.69
27.94
27.30
25.42
22.67
19.88
17.81
16.72
16.28
16.13
15.94
15.84
15.80
15.51
14.40
11.93
8.26
4.10
0.50
-2.01
-3.82
-6.07
-9.74
-14.72
-19.80
-23.20
-23.82
-21.88
-18.98
-17.15
-17.97
-22.10
-29.00
-37.57
-46.23
-53.31
-57.11
-56.30
-50.28
-39.80
-26.81
-13.84
-2.97
4.93
10.30
14.45
18.51
22.96
27.62
31.75
34.68
36.00
35.77
34.29
31.97
29.31
26.68
24.54
23.13
22.43
22.05
21.52
20.70
19.74
19.19
19.43
20.22
20.70
19.84
16.97
12.45
7.38
3.04
0.11
-1.67
-3.07
-4.84
-7.17
-9.72
-12.13
-14.40
-17.02
-20.49
-24.95
-29.96
-34.88
-39.41
-43.46
-47.16
-49.98
-50.76
-48.08
-40.96
-29.80
-16.17
-2.51
8.97
17.12
22.05
24.74
26.37
27.78
29.21
30.54
31.66
32.49
32.88
32.65
31.43
28.84
24.73
19.35
13.33
7.67
3.13
0.30
-0.61
0.34
2.85
6.49
10.41
13.66
15.35
14.89
12.55
9.07
5.41
2.20
-0.52
-3.14
-6.12
-9.57
-13.24
-16.61
-19.32
-21.56
-23.68
-26.03
-28.90
-32.24
-35.86
-39.42
-42.29
-43.52
-41.98
-36.66
-27.36
-15.01
-1.48
11.06
20.83
26.99
29.60
29.31
26.96
23.28
19.05
15.16
12.51
11.70
12.62
14.44
15.93
16.10
14.73
12.40
10.06
8.43
7.54
7.00
6.42
5.80
5.63
6.27
7.68
9.04
9.14
7.21
3.37
-1.28
-5.30
-7.63
-8.25
-7.96
-8.04
-9.42
-12.47
-17.05
-22.94
-29.91
-37.51
-44.87
-50.58
-52.99
-51.03
-44.60
-34.76
-23.26
-11.90
-1.93
6.16
12.43
17.41
21.68
25.89
30.24
34.42
37.69
39.07
38.26
35.70
32.52
29.82
28.07
26.74
24.87
21.85
18.00
14.50
12.59
12.70
14.06
15.26
15.13
13.46
11.06
8.98
7.77
7.17
6.43
4.83
2.17
-1.27
-5.15
-9.23
-13.46
-17.65
-21.38
-24.08
-25.62
-26.64
-28.27
-31.69
-37.32
-44.36
-51.04
-55.19
-55.12
-50.16
-40.80
-28.37
-14.83
-2.06
8.42
15.90
20.44
22.76
23.88
24.69
25.84
27.45
29.36
31.13
32.44
33.11
33.10
32.43
31.06
28.96
26.27
23.40
20.94
19.31
18.57
18.23
17.49
15.82
13.23
10.34
7.95
6.49
5.70
5.03
3.91
2.28
0.53
-1.08
-2.71
-4.99
-8.48
-13.43
-19.13
-24.42
-28.27
-30.37
-31.55
-33.04
-35.90
-40.30
-45.43
-49.91
-52.39
-52.03
-48.49
-41.86
-32.51
-21.00
-8.41
3.80
14.10
21.36
25.41
27.05
27.57
27.98
28.69
29.26
29.19
28.23
26.55
24.65
23.00
21.69
20.52
19.25
17.81
16.48
15.46
14.82
14.37
13.86
13.13
12.33
11.64
11.06
10.29
8.87
6.59
3.76
1.08
-0.93
-2.17
-3.16
-4.60
-6.83
-9.58
-12.25
-14.43
-16.43
-19.18
-23.72
-30.56
-39.20
-48.13
-55.47
-59.42
-58.99
-53.98
-44.96
-33.07
-19.81
-6.89
4.32
13.02
19.24
23.43
26.26
27.93
28.21
26.92
24.26
21.08
18.51
17.31
17.20
16.99
15.33
11.75
7.27
3.91
3.39
6.07
10.58
14.64
16.26
14.90
11.48
7.63
4.81
3.48
3.07
2.55
1.01
-2.02
-6.41
-11.48
-16.35
-20.10
-22.03
-22.20
-21.48
-21.30
-23.06
-27.33
-33.41
-39.47
-43.39
-43.61
-39.65
-32.17
-22.43
-11.68
-0.95
9.01
17.38
23.33
26.32
26.50
24.90
22.92
21.73
21.72
22.40
22.90
22.63
21.70
20.66
20.06
19.98
19.91
19.17
17.36
14.55
11.29
8.04
5.11
2.62
0.80
0.04
0.58
2.32
4.42
5.66
4.99
2.15
-2.16
-6.77
-10.65
-13.58
-15.90
-18.11
-20.50
-23.08
-25.85
-29.24
-33.77
-39.55
-45.65
-50.15
-50.84
-46.42
-37.30
-25.44
-13.41
-3.21
4.60
10.51
15.34
19.56
22.95
24.97
25.39
24.62
23.49
22.91
23.22
24.09
24.90
25.01
24.34
23.20
22.06
21.25
20.63
19.94
18.82
17.22
15.25
13.16
11.17
9.45
8.23
7.74
8.11
9.20
10.47
11.09
10.29
7.68
3.40
-1.84
-7.16
-11.73
-15.14
-17.31
-18.55
-19.45
-20.83
-23.40
-27.58
-33.28
-39.83
-46.20
-51.14
-53.50
-52.21
-46.57
-36.59
-23.12
-8.06
6.20
17.34
24.11
26.51
25.74
23.55
21.35
19.78
18.73
17.83
16.86
15.96
15.45
15.42
15.65
15.49
14.41
12.32
9.76
7.63
6.74
7.32
8.93
10.74
12.00
12.39
12.13
11.67
11.51
11.60
11.58
10.81
8.71
5.08
0.25
-5.03
-9.83
-13.45
-15.74
-17.32
-19.35
-23.21
-29.67
-38.37
-47.56
-54.77
-57.67
-55.11
-47.53
-36.50
-24.20
-12.20
-1.40
8.02
15.95
21.99
25.64
26.63
25.51
23.42
21.71
21.17
21.72
22.63
23.23
23.21
22.64
21.69
20.35
18.53
16.24
13.93
12.19
11.41
11.39
11.29
10.26
7.99
4.97
2.15
0.35
-0.24
-0.18
-0.11
-0.53
-1.53
-3.17
-5.65
-9.46
-14.81
-21.38
-28.16
-33.97
-38.21
-41.03
-43.29
-45.49
-47.30
-47.36
-43.95
-36.35
-25.26
-12.81
-1.45
7.20
12.95
16.82
20.05
23.45
27.03
30.41
33.09
34.89
35.84
35.86
34.71
31.98
27.68
22.41
17.45
14.12
13.20
14.47
16.78
18.77
19.42
18.47
16.44
14.15
12.23
10.86
9.90
8.80
6.99
4.05
-0.30
-5.83
-11.94
-17.59
-21.77
-23.98
-24.53
-24.40
-24.89
-26.90
-30.65
-35.62
-40.84
-45.24
-47.90
-48.10
-45.25
-39.24
-30.41
-19.88
-9.23
-0.01
6.84
11.25
14.03
16.28
18.67
21.23
23.41
24.64
24.72
24.13
23.55
23.39
23.68
23.93
23.62
22.58
20.99
19.33
17.99
17.22
17.00
17.31
18.01
18.82
19.31
18.97
17.58
15.30
12.59
9.89
7.38
5.03
2.64
0.13
-2.45
-5.17
-8.34
-12.57
-18.29
-25.43
-33.28
-40.65
-46.52
-50.45
-52.55
-53.04
-51.93
-48.81
-43.26
-35.31
-25.79
-15.91
-6.65
1.66
9.46
17.26
24.91
31.32
34.91
34.61
30.66
24.81
19.54
16.83
17.32
20.16
23.66
26.29
27.34
26.95
25.66
23.98
22.01
19.60
16.70
13.44
10.16
7.19
4.71
2.63
0.75
-1.07
-2.82
-4.45
-5.85
-7.12
-8.48
-10.27
-12.73
-15.98
-19.98
-24.72
-30.15
-36.10
-41.92
-46.38
-48.13
-46.14
-40.40
-31.91
-22.28
-12.79
-4.15
3.58
10.59
16.71
21.49
24.47
25.63
25.50
24.87
24.35
23.98
23.34
22.02
20.00
17.73
15.74
14.35
13.44
12.71
11.94
11.31
11.16
11.65
12.40
12.54
11.14
7.75
2.58
-3.40
-9.09
-13.41
-15.78
-16.10
-14.88
-13.07
-12.09
-13.29
-17.39
-23.99
-31.69
-38.72
-43.72
-46.20
-46.25
-43.90
-38.82
-30.38
-18.60
-4.79
8.69
19.27
25.40
27.31
26.50
24.79
23.27
22.06
20.79
19.41
18.46
18.71
20.40
22.81
24.64
24.70
22.81
19.87
17.22
15.92
16.01
16.81
17.35
17.09
16.14
14.85
13.45
11.69
9.11
5.65
1.97
-0.86
-2.00
-1.53
-0.54
-0.69
-3.31
-8.81
-16.57
-25.43
-34.33
-42.67
-50.10
-56.24
-60.20
-60.82
-57.11
-48.92
-37.09
-23.30
-9.49
2.74
12.35
18.86
22.40
23.59
23.46
23.18
23.69
25.34
27.62
29.64
30.61
30.40
29.49
28.62
28.18
27.90
27.16
25.45
22.91
20.26
18.36
17.54
17.47
17.40
16.81
15.79
14.95
14.77
15.12
15.15
13.75
10.31
5.15
-0.81
-6.49
-11.33
-15.56
-19.56
-23.61
-27.34
-30.16
-31.74
-32.47
-33.39
-35.59
-39.45
-44.33
-48.69
-50.88
-49.74
-44.89
-36.76
-26.17
-14.18
-2.04
8.91
17.44
22.71
24.88
24.94
24.38
24.47
25.62
27.38
28.92
29.61
29.44
28.87
28.27
27.71
26.88
25.46
23.59
21.81
20.69
20.25
19.85
18.60
16.03
12.57
9.33
7.34
6.70
6.56
5.69
3.39
0.01
-3.41
-6.01
-7.89
-9.95
-13.18
-17.63
-22.24
-25.53
-26.77
-26.54
-26.42
-27.79
-30.97
-35.19
-39.18
-42.19
-44.16
-45.20
-44.82
-41.82
-34.97
-24.01
-10.39
3.20
13.85
19.95
21.79
21.08
19.96
19.94
21.39
23.80
26.28
27.97
28.33
27.26
24.72
21.08
16.90
12.97
10.04
8.48
8.20
8.55
8.94
8.85
8.26
7.43
6.57
5.71
4.66
3.41
2.26
1.68
1.96
2.70
2.85
1.20
-2.83
-8.59
-14.49
-18.77
-20.70
-20.85
-20.78
-21.87
-24.56
-28.15
-31.58
-34.25
-36.23
-37.88
-39.00
-38.51
-34.96
-27.49
-16.69
-4.49
6.70
15.14
20.36
23.16
24.60
25.39
25.58
24.95
23.48
21.59
19.79
18.38
17.20
15.89
14.21
12.38
10.94
10.40
10.95
12.44
14.65
17.45
20.64
23.89
26.26
26.64
24.26
19.25
12.71
6.29
1.23
-2.22
-4.57
-6.62
-8.71
-10.50
-11.57
-12.06
-12.86
-14.97
-18.85
-23.76
-28.25
-31.14
-32.38
-33.20
-35.29
-39.54
-45.17
-49.99
-51.54
-48.38
-40.86
-30.63
-19.81
-9.74
-0.81
7.21
14.51
20.80
25.41
27.92
28.48
27.96
27.40
27.52
28.20
28.87
28.93
28.10
26.48
24.25
21.51
18.27
14.87
12.00
10.47
10.80
12.59
14.69
15.60
14.52
11.64
8.06
5.03
3.14
2.13
1.26
-0.01
-1.69
-3.40
-4.77
-5.87
-7.06
-8.76
-10.90
-13.17
-15.22
-17.10
-19.33
-22.59
-27.19
-32.82
-38.67
-43.82
-47.75
-50.17
-50.65
-48.55
-43.12
-34.01
-22.00
-8.78
3.49
13.15
19.62
23.42
25.53
26.62
26.89
26.11
24.30
21.92
19.66
18.02
16.95
16.06
15.02
14.07
13.78
14.54
16.22
17.83
18.35
17.12
14.32
10.76
7.29
4.24
1.56
-0.79
-2.57
-3.21
-2.35
-0.47
1.17
1.02
-1.89
-7.33
-13.95
-20.09
-24.58
-27.28
-28.89
-30.41
-32.50
-35.23
-38.07
-40.22
-40.93
-39.49
-35.59
-29.23
-20.77
-11.11
-1.27
7.85
15.61
21.78
26.50
29.88
32.03
33.07
33.08
32.30
31.01
29.35
27.21
24.56
21.42
18.12
15.19
13.09
12.06
11.80
11.77
11.14
9.36
6.28
2.28
-1.84
-5.29
-7.43
-8.06
-7.22
-5.28
-2.90
-0.89
-0.11
-1.03
-3.69
-7.57
-12.05
-16.63
-21.21
-26.19
-31.98
-38.58
-45.26
-50.69
-53.47
-52.76
-48.60
-41.60
-32.52
-21.98
-10.46
1.23
11.84
19.87
24.20
24.93
23.35
21.61
21.45
23.52
27.00
30.37
32.44
32.89
32.33
31.44
30.39
28.78
26.10
22.37
18.45
15.47
14.05
13.95
14.11
13.47
11.70
9.22
6.84
5.09
3.82
2.24
-0.19
-3.47
-6.94
-9.71
-11.47
-12.44
-13.48
-15.26
-18.06
-21.60
-25.57
-29.95
-34.89
-40.54
-46.40
-51.19
-53.39
-51.91
-46.82
-39.17
-30.37
-21.34
-12.25
-2.83
6.99
16.53
24.75
30.71
34.12
35.49
35.56
34.85
33.39
31.06
27.98
24.70
21.99
20.22
19.09
17.97
16.41
14.56
13.11
12.80
13.65
15.05
15.82
15.29
13.40
10.81
8.33
6.33
4.65
2.72
0.28
-2.50
-5.08
-7.06
-8.59
-10.37
-13.22
-17.61
-23.35
-29.74
-35.87
-41.10
-45.02
-47.31
-47.54
-45.15
-39.89
-32.00
-22.33
-12.16
-2.67
5.52
12.34
18.07
22.82
26.33
28.19
28.15
26.53
24.27
22.45
21.88
22.62
24.04
25.11
24.92
22.99
19.40
14.71
9.63
5.01
1.62
0.16
0.82
3.05
5.68
7.26
6.72
3.90
-0.52
-5.23
-9.23
-12.07
-13.85
-14.72
-14.68
-13.67
-12.04
-10.73
-11.14
-14.63
-21.42
-30.31
-38.97
-44.85
-46.36
-43.24
-36.31
-26.77
-15.59
-3.56
8.43
18.87
26.19
29.28
28.31
24.84
21.12
19.10
19.27
20.84
21.99
21.47
19.21
16.18
13.64
12.29
12.09
12.48
13.07
13.86
15.05
16.52
17.63
17.58
15.95
13.21
10.47
8.85
8.54
8.59
7.62
4.61
-0.14
-5.36
-9.45
-11.69
-12.58
-13.57
-16.21
-21.30
-28.61
-37.10
-45.49
-52.51
-56.99
-57.91
-54.60
-47.07
-36.23
-23.80
-11.70
-1.36
6.79
13.19
18.63
23.56
27.86
31.15
33.22
34.28
34.79
35.01
34.76
33.63
31.29
27.92
24.15
20.76
18.32
16.78
15.86
15.28
15.27
16.31
18.63
21.90
24.92
26.46
25.89
23.56
20.60
18.26
17.08
16.73
16.30
14.67
11.27
6.12
-0.43
-7.80
-15.34
-22.34
-28.03
-31.81
-33.70
-34.45
-35.37
-37.69
-41.99
-47.89
-54.21
-59.43
-62.15
-61.35
-56.58
-48.00
-36.26
-22.68
-8.90
3.35
12.94
19.59
23.85
26.85
29.43
31.99
34.33
36.13
37.25
37.88
38.30
38.37
37.69
35.57
31.78
26.69
21.46
17.52
15.87
16.62
18.94
21.59
23.44
23.86
22.85
20.82
18.24
15.37
12.52
9.91
7.90
6.83
6.66
7.13
7.60
7.43
6.27
4.12
1.25
-2.16
-6.07
-10.69
-16.00
-21.65
-26.95
-31.34
-34.81
-38.02
-41.89
-46.86
-52.41
-57.17
-59.31
-57.49
-51.20
-41.17
-28.92
-16.11
-4.18
5.95
13.78
19.14
22.13
23.19
22.94
21.99
20.80
19.45
18.14
17.06
16.58
17.02
18.17
19.30
19.59
18.54
16.52
14.51
13.60
14.19
15.70
16.91
16.83
15.23
12.67
10.04
7.85
6.06
4.25
2.33
0.77
0.15
0.58
1.24
0.70
-2.17
-7.42
-13.74
-19.03
-21.78
-21.90
-20.80
-20.61
-22.76
-27.46
-33.63
-39.59
-43.85
-45.39
-43.55
-37.85
-28.25
-15.51
-1.36
11.74
21.56
26.91
28.07
26.46
23.73
21.03
18.69
16.89
15.79
15.79
17.10
19.30
21.53
22.82
22.67
21.47
20.10
19.31
19.22
19.29
18.92
17.84
16.47
15.45
15.06
14.89
14.02
11.73
8.06
3.90
0.57
-1.08
-1.15
-0.57
-0.66
-2.14
-4.93
-8.10
-10.77
-12.53
-13.75
-15.12
-17.25
-20.29
-24.01
-28.08
-32.45
-37.18
-42.30
-47.40
-51.51
-53.43
-52.05
-46.98
-38.54
-27.87
-16.42
-5.51
3.83
11.01
15.84
18.52
19.65
20.09
20.80
22.29
24.60
27.04
28.59
28.50
26.56
23.31
19.54
16.20
13.78
12.44
12.20
12.91
14.46
16.40
18.05
18.60
17.54
15.02
11.80
8.81
6.75
5.74
5.46
5.58
5.86
6.10
6.04
5.13
2.87
-0.89
-5.64
-10.31
-13.84
-15.69
-16.31
-16.63
-17.51
-19.30
-21.86
-24.90
-28.45
-32.89
-38.19
-43.67
-47.76
-48.71
-45.52
-38.38
-28.72
-18.32
-8.56
-0.10
7.01
12.83
17.19
20.00
21.47
22.24
23.19
24.88
27.12
29.24
30.32
30.05
28.64
26.69
24.64
22.52
20.24
17.80
15.62
14.25
13.92
14.27
14.47
13.90
12.51
11.14
10.77
11.78
13.63
14.92
14.44
11.81
7.78
3.64
0.36
-1.87
-3.71
-6.02
-9.32
-13.52
-18.11
-22.49
-26.33
-29.52
-32.04
-33.88
-35.13
-36.21
-37.79
-40.53
-44.43
-48.41
-50.61
-49.13
-43.13
-33.30
-21.66
-10.48
-1.14
6.09
11.80
16.51
20.11
21.84
21.20
18.42
14.79
12.12
11.64
13.31
15.91
17.75
17.70
15.78
12.96
10.56
9.51
10.05
11.75
13.76
15.24
15.37
13.76
10.59
6.59
3.01
1.02
1.22
3.16
5.44
6.42
5.16
1.75
-2.77
-7.32
-11.44
-15.29
-19.32
-23.63
-27.82
-31.34
-34.04
-36.45
-39.17
-42.23
-44.54
-44.20
-39.63
-30.51
-18.30
-5.51
5.40
13.18
17.95
20.62
22.23
23.23
23.63
23.35
22.45
21.21
19.83
18.18
15.97
13.06
9.79
6.91
5.26
5.22
6.67
9.01
11.68
14.34
16.83
18.96
20.26
20.19
18.28
14.75
10.41
6.20
2.68
-0.37
-3.62
-7.65
-12.11
-15.97
-17.97
-17.57
-15.70
-14.32
-15.63
-20.61
-28.58
-37.38
-44.56
-48.46
-48.77
-46.15
-41.47
-35.17
-27.22
-17.65
-7.06
3.39
12.39
19.13
23.62
26.50
28.50
29.98
30.98
31.34
31.01
30.02
28.38
25.93
22.68
19.10
16.06
14.65
15.40
17.68
19.92
20.30
17.81
12.89
7.16
2.46
-0.24
-1.06
-0.96
-0.73
-0.72
-0.69
-0.49
-0.53
-1.77
-5.04
-10.34
-16.59
-22.01
-25.22
-26.14
-25.92
-26.46
-29.13
-34.01
-39.91
-44.98
-47.56
-46.86
-42.78
-35.82
-26.79
-16.59
-6.28
3.12
10.89
16.94
21.67
25.89
30.04
33.97
37.05
38.54
38.26
36.57
34.20
31.57
28.83
25.85
22.81
20.28
19.09
19.62
21.49
23.59
24.67
23.96
21.55
18.14
14.56
11.23
8.20
5.32
2.66
0.47
-1.08
-2.26
-3.81
-6.29
-9.82
-13.76
-17.22
-19.75
-21.69
-24.17
-28.27
-34.29
-41.39
-47.88
-52.10
-53.11
-51.00
-46.40
-40.02
-32.22
-23.08
-12.98
-2.64
6.78
14.30
19.36
22.09
23.08
23.06
22.56
21.89
21.42
21.51
22.45
23.98
25.33
25.26
22.95
18.56
13.36
9.20
7.51
8.54
11.32
14.34
16.41
17.21
17.16
16.78
16.05
14.37
11.08
6.08
0.22
-5.13
-8.88
-11.00
-12.37
-14.17
-17.12
-20.96
-24.98
-28.67
-32.22
-36.16
-40.72
-45.22
-47.94
-47.25
-42.37
-34.15
-24.46
-15.13
-6.95
0.58
8.44
17.16
26.12
33.88
38.99
40.82
39.80
36.96
33.49
30.04
26.90
24.15
21.95
20.40
19.47
18.87
18.05
16.72
15.05
13.65
13.05
13.34
13.90
13.69
12.02
8.96
5.28
1.89
-0.81
-3.13
-5.76
-9.05
-12.59
-15.48
-16.99
-17.40
-17.80
-19.49
-23.06
-28.01
-33.18
-37.48
-40.57
-42.48
-43.07
-41.52
-36.58
-27.55
-14.98
-1.01
11.46
20.18
24.36
24.99
23.91
22.75
22.15
22.01
21.99
22.20
23.21
25.46
28.70
31.52
32.25
29.61
23.79
16.44
9.82
5.87
5.00
6.35
8.39
10.03
10.96
11.54
12.06
12.28
11.50
9.15
5.38
1.15
-2.34
-4.32
-4.89
-4.79
-5.02
-6.02
-7.65
-9.43
-11.11
-12.90
