1568158221.00
64.000000
-0.00
-0.00
-0.00
-0.00
-0.00
-0.00
-0.00
-0.00
-0.00
-0.00
0.00
0.01
0.01
-0.00
-0.03
-0.05
-0.05
0.00
0.13
0.36
0.66
1.01
1.37
1.72
2.06
2.40
2.79
3.24
3.80
4.42
5.06
5.66
6.20
6.68
7.15
7.68
8.31
9.14
10.09
11.04
11.88
12.56
13.14
13.76
14.65
15.96
17.91
20.32
22.90
25.38
27.58
29.57
31.68
34.32
37.81
42.54
48.15
54.10
59.83
64.97
69.58
74.14
79.34
85.71
93.76
103.00
112.62
121.73
129.77
136.76
143.31
150.74
157.76
166.62
177.94
191.82
207.05
220.68
228.34
225.33
208.28
176.31
131.88
78.92
21.79
-36.25
-93.70
-150.40
-206.54
-261.88
-315.55
-366.00
-412.21
-453.37
-488.88
-517.95
-539.32
-551.39
-552.50
-541.52
-518.02
-482.99
-438.36
-386.74
-330.99
-273.73
-217.05
-162.37
-110.56
-62.01
-17.11
23.71
59.80
90.39
114.81
132.77
144.61
151.34
154.49
155.61
155.85
155.56
154.25
150.88
144.50
134.80
122.46
109.07
96.35
85.73
77.67
71.59
66.26
60.14
51.71
39.63
23.33
3.93
-14.82
-26.78
-25.25
-5.96
30.23
76.73
123.39
160.69
183.11
190.70
187.76
179.96
171.60
164.48
158.55
153.07
147.29
140.20
130.24
115.51
94.82
68.77
39.92
12.19
-10.69
-26.51
-35.12
-37.91
-36.98
-34.28
-31.29
-28.98
-27.81
-27.82
-28.58
-29.36
-29.41
-28.29
-26.01
-23.00
-20.02
-17.78
-16.73
-16.88
-17.83
-18.89
-19.34
-18.81
-17.39
-15.56
-13.93
-12.90
-12.50
-12.43
-12.31
-11.84
-10.92
-9.67
-8.24
-6.74
-5.16
-3.44
-1.54
0.45
2.32
3.83
4.75
5.05
4.95
4.89
5.31
6.53
8.51
10.85
12.90
14.09
14.14
13.25
12.03
11.22
11.38
12.64
14.63
16.60
17.69
17.17
14.71
10.55
5.55
1.01
-1.69
-1.55
1.57
6.83
12.53
16.68
17.66
14.80
8.51
0.08
-8.86
-16.78
-22.71
-26.26
-27.53
-26.83
-24.60
-21.20
-17.03
-12.61
-8.39
-4.77
-1.93
0.28
2.23
4.36
6.99
10.17
13.55
16.74
19.31
20.98
21.71
21.66
21.09
20.20
19.06
17.32
14.87
11.52
7.19
1.99
-3.73
-9.49
-14.78
-18.72
-21.54
-23.43
-24.73
-25.87
-27.15
-28.61
-30.03
-31.28
-31.80
-31.53
-30.71
-29.95
-29.99
-31.35
-34.07
-37.56
-40.97
-43.40
-44.56
-44.72
-44.86
-46.13
-49.39
-54.69
-61.15
-67.45
-72.43
-75.56
-77.16
-78.31
-80.21
-83.92
-90.09
-98.97
-110.29
-122.48
-132.29
-135.08
-126.45
-104.25
-70.26
-30.19
9.12
41.58
64.37
78.44
87.11
93.77
100.06
105.65
108.76
109.13
107.43
105.09
103.34
102.40
101.44
99.23
94.71
88.23
80.50
72.70
65.96
60.79
56.83
53.15
49.00
43.38
36.24
28.28
20.43
13.62
8.37
4.73
2.43
1.07
0.27
-0.07
0.06
0.66
1.62
2.77
3.94
5.04
6.11
7.22
8.45
9.70
10.71
11.17
10.90
10.12
9.36
9.36
10.68
13.49
17.43
21.71
25.59
28.52
30.53
32.08
33.89
36.64
40.92
47.10
55.11
64.02
71.78
75.41
72.00
59.94
40.10
15.85
-7.99
-26.88
-38.31
-42.41
-41.30
-37.66
-33.39
-29.14
-24.83
-20.25
-15.68
-11.81
-9.23
-7.94
-7.32
-6.57
-4.57
-1.27
2.50
5.63
7.22
7.14
5.92
4.48
3.62
3.77
4.74
6.17
7.66
9.01
10.19
11.27
12.28
13.21
13.95
14.16
13.46
11.49
8.10
3.44
-2.05
-7.81
-13.39
-18.62
-23.68
-28.71
-33.64
-38.14
-41.79
-44.34
-45.82
-46.55
-46.80
-46.68
-46.05
-44.82
-43.10
-41.36
-40.18
-39.96
-40.61
-41.57
-42.12
-41.68
-40.10
-37.61
-34.65
-31.62
-28.74
-26.01
-23.33
-20.67
-18.11
-15.77
-13.80
-12.24
-11.01
-10.01
-9.17
-8.51
-8.10
-7.98
-8.10
-8.24
-8.15
-7.63
-6.64
-5.33
-4.01
-3.00
-2.52
-2.60
-3.09
-3.72
-4.26
-4.56
-4.62
-4.59
-4.66
-4.93
-5.39
-5.90
-6.34
-6.66
-6.97
-7.45
-8.27
-9.49
-11.11
-13.10
-15.45
-17.98
-20.29
-21.59
-21.00
-17.84
-12.07
-4.36
4.19
12.50
19.92
26.27
31.64
35.99
39.03
40.28
39.38
36.37
31.76
26.37
21.12
16.79
13.88
12.58
12.72
13.84
15.27
16.32
16.43
15.15
12.34
8.10
2.85
-2.69
-7.81
-12.01
-15.34
-18.46
-22.26
-27.43
-33.93
-40.80
-46.33
-48.62
-46.25
-38.82
-27.16
-13.14
0.79
12.30
19.69
22.22
20.09
14.12
5.38
-5.08
-16.22
-27.04
-36.53
-43.88
-48.71
-51.23
-52.20
-52.64
-53.40
-54.86
-56.77
-58.33
-58.49
-56.44
-51.90
-45.38
-37.75
-30.01
-22.85
-16.56
-11.05
-6.11
-1.53
3.02
8.23
15.20
25.17
38.70
55.01
72.05
87.20
98.38
104.79
106.92
105.87
102.74
97.53
89.33
77.07
60.61
40.98
19.98
-0.60
-19.45
-35.14
-46.99
-54.82
-58.53
-57.59
-51.28
-39.17
-21.50
0.61
26.28
53.29
78.48
98.96
113.43
122.51
127.96
131.68
134.75
138.65
142.91
145.59
144.36
137.55
124.25
103.80
75.63
33.08
-21.59
-78.24
-124.71
-154.71
-169.48
-174.41
-175.02
-174.49
-174.80
-172.05
-162.88
-146.20
-122.99
-95.05
-64.15
-31.82
0.84
31.48
58.80
81.08
96.60
104.17
103.74
96.41
84.05
68.96
53.49
40.59
31.73
26.56
23.28
19.88
15.05
8.63
1.47
-5.26
-10.10
-12.60
-13.35
-13.46
-13.81
-14.64
-15.61
-16.11
-15.74
-14.20
-11.70
-8.82
-6.12
-3.96
-2.37
-1.21
-0.24
0.78
2.10
3.95
6.45
9.55
12.98
16.31
19.06
20.90
21.67
21.44
20.35
18.49
15.87
12.45
8.24
3.40
-1.80
-7.03
-12.05
-16.69
-21.01
-25.12
-29.16
-33.18
-37.04
-40.41
-42.83
-43.92
-43.51
-41.72
-38.94
-35.63
-32.16
-28.63
-24.93
-20.86
-16.35
-11.56
-6.95
-3.01
-0.10
1.76
2.91
3.87
5.12
6.89
9.06
11.30
13.18
14.44
15.04
15.11
14.91
14.63
14.35
14.03
13.59
13.00
12.32
11.65
11.04
10.49
9.87
9.02
7.79
6.15
4.10
1.65
-1.17
-4.33
-7.66
-10.84
-13.54
-15.49
-16.69
-17.34
-17.70
-17.85
-17.54
-16.30
-13.74
-9.83
-5.05
-0.21
3.84
6.54
7.78
7.91
7.58
7.47
8.17
10.10
13.41
17.87
22.79
27.40
31.35
35.15
40.21
48.32
60.78
77.47
96.58
114.80
128.69
135.84
135.58
128.90
117.91
105.00
92.26
81.04
71.38
62.88
55.07
47.70
40.43
32.92
24.97
16.49
7.76
-1.92
-12.87
-24.66
-36.12
-46.22
-54.45
-60.73
-65.67
-70.06
-76.50
-86.80
-100.84
-116.67
-131.89
-144.95
-155.33
-164.08
-172.58
-184.33
-201.30
-222.69
-245.30
-265.39
-280.28
-288.18
-289.01
-268.62
-221.73
-155.48
-86.00
-27.29
15.19
40.81
56.45
66.51
73.01
74.21
68.95
58.78
47.61
40.02
39.35
47.44
63.67
86.12
110.14
131.22
146.46
155.04
157.39
154.39
147.42
137.43
125.59
111.97
96.93
81.58
67.60
56.43
48.61
43.89
41.16
39.25
36.65
32.42
26.48
19.50
12.40
5.94
0.77
-2.74
-4.21
-3.60
-1.09
2.88
7.60
12.15
15.62
17.39
17.25
15.45
12.57
9.18
5.79
2.71
0.19
-1.52
-2.26
-1.98
-0.83
0.79
2.40
3.54
3.99
3.83
3.39
3.08
3.16
3.66
4.40
5.10
5.55
5.69
5.59
5.39
5.22
5.11
4.98
4.72
4.22
3.44
2.43
1.35
0.41
-0.26
-0.60
-0.74
-0.94
-1.44
-2.33
-3.55
-4.86
-6.02
-6.92
-7.64
-8.37
-9.25
-10.30
-11.37
-12.26
-12.80
-13.00
-13.06
-13.19
-13.56
-14.17
-14.89
-15.53
-15.93
-16.02
-15.83
-15.46
-15.01
-14.58
-14.21
-13.89
-13.60
-13.29
-12.95
-12.61
-12.32
-12.08
-11.85
-11.53
-11.01
-10.29
-9.51
-8.93
-8.72
-8.94
-9.37
-9.69
-9.53
-8.70
-7.23
-5.30
-3.19
-1.18
0.49
1.64
2.12
1.96
1.30
0.42
-0.32
-0.61
-0.29
0.65
2.02
3.55
4.94
5.89
6.24
5.98
5.26
4.37
3.60
3.14
2.94
2.80
2.44
1.70
0.63
-0.50
-1.36
-1.73
-1.61
-1.17
-0.67
-0.27
0.01
0.27
0.59
0.94
1.18
1.12
0.68
-0.04
-0.85
-1.54
-1.97
-2.11
-2.07
-1.93
-1.80
-1.72
-1.73
-1.84
-2.05
-2.33
-2.67
-3.04
-3.38
-3.63
-3.68
-3.42
-2.79
-1.80
-0.60
0.59
1.54
2.10
2.24
2.06
1.71
1.31
0.87
0.32
-0.41
-1.37
-2.42
-3.31
-3.71
-3.40
-2.38
-0.90
0.64
1.84
2.52
2.76
2.84
3.06
3.55
4.23
4.88
5.28
5.39
5.38
5.48
5.88
6.53
7.19
7.59
7.51
6.97
6.14
5.19
4.21
3.20
2.13
1.09
0.23
-0.29
-0.42
-0.27
-0.14
-0.36
-1.14
-2.48
-4.10
-5.55
-6.36
-6.26
-5.26
-3.65
-1.93
-0.53
0.29
0.54
0.43
0.21
0.05
-0.01
-0.02
-0.02
-0.05
-0.08
-0.08
-0.04
0.04
0.11
0.09
-0.06
-0.37
-0.81
-1.29
-1.72
-2.06
-2.31
-2.54
-2.84
-3.23
-3.67
-4.07
-4.31
-4.33
-4.14
-3.87
-3.70
-3.80
-4.25
-4.93
-5.61
-6.02
-5.97
-5.47
-4.69
-3.85
-3.04
-2.25
-1.34
-0.22
1.05
2.22
3.01
3.25
3.00
2.47
1.98
1.72
1.75
2.00
2.31
2.64
2.95
3.33
3.80
4.35
4.84
5.11
5.05
4.64
4.00
3.31
2.78
2.53
2.55
2.78
3.14
3.59
4.18
4.97
5.95
7.00
7.85
8.26
8.07
7.36
6.39
5.55
5.18
5.51
6.48
7.81
9.01
9.49
8.78
6.70
3.47
-0.31
-3.91
-6.69
-8.41
-9.16
-9.29
-9.16
-8.96
-8.69
-8.28
-7.73
-7.19
-6.84
-6.83
-7.15
-7.66
-8.17
-8.55
-8.69
-8.59
-8.21
-7.52
-6.49
-5.17
-3.69
-2.23
-1.01
-0.12
0.40
0.65
0.77
0.85
0.93
0.99
0.96
0.81
0.55
0.22
-0.06
-0.22
-0.21
-0.07
0.13
0.34
0.54
0.78
1.10
1.50
1.90
2.13
2.03
1.50
0.63
-0.35
-1.19
-1.63
-1.60
-1.20
-0.66
-0.26
-0.16
-0.35
-0.69
-0.95
-0.95
-0.67
-0.25
0.08
0.14
-0.07
-0.39
-0.56
-0.40
0.12
0.89
1.72
2.56
3.48
4.63
6.11
7.81
9.49
10.85
11.77
12.37
12.91
13.64
14.61
15.67
16.54
17.06
17.29
17.47
17.82
18.38
18.84
18.68
17.29
14.32
9.74
3.88
-2.75
-9.55
-15.99
-21.66
-26.28
-29.74
-32.10
-33.57
-34.42
-34.89
-35.05
-34.89
-34.41
-33.63
-32.67
-31.60
-30.32
-28.62
-26.27
-23.25
-19.87
-16.69
-14.33
-13.16
-13.16
-13.91
-14.76
-15.14
-14.77
-13.67
-12.09
-10.25
-8.16
-5.61
-2.32
1.86
6.67
11.51
15.56
18.13
18.86
17.85
15.48
12.24
8.43
4.19
-0.50
-5.58
-10.69
-15.11
-17.87
-18.07
-15.29
-9.88
-2.97
3.87
9.19
12.08
12.45
10.88
8.32
5.66
3.60
2.51
2.47
3.38
4.87
6.45
7.50
7.55
6.52
4.91
3.73
4.17
7.16
12.93
20.88
29.73
37.91
44.01
47.16
47.16
44.38
39.65
33.90
28.00
22.57
17.93
14.06
10.81
7.99
5.50
3.36
1.65
0.46
-0.14
-0.11
0.56
1.85
3.75
6.20
9.11
12.46
16.31
20.87
26.36
32.85
40.03
47.01
52.52
55.20
54.14
49.26
41.40
32.06
22.90
15.14
9.34
5.39
2.77
0.96
-0.43
-1.55
-2.49
-3.31
-4.14
-5.07
-6.13
-7.20
-8.06
-8.47
-8.30
-7.65
-6.85
-6.31
-6.41
-7.31
-8.94
-11.02
-13.16
-15.01
-16.30
-16.87
-16.68
-15.78
-14.29
-12.36
-10.11
-7.57
-4.65
-1.09
3.41
9.18
16.37
24.90
34.38
44.15
53.45
61.72
68.85
75.07
81.20
88.28
97.07
107.45
118.36
128.15
135.34
139.30
140.41
140.31
141.39
145.96
155.35
169.44
186.64
204.21
218.83
226.69
225.04
213.01
191.72
163.66
131.85
99.08
67.25
37.11
6.85
-25.01
-58.49
-92.30
-125.09
-156.26
-185.88
-214.49
-242.68
-274.20
-311.18
-353.16
-398.12
-444.51
-491.42
-537.17
-578.28
-609.68
-631.48
-643.06
-642.29
-626.92
-597.36
-557.02
-510.54
-462.45
-416.53
-382.74
-366.89
-367.37
-376.50
-385.53
-387.93
-379.97
-360.74
-289.55
-156.47
13.36
177.01
304.93
390.83
442.33
470.31
483.57
488.41
482.29
464.59
439.36
412.93
388.86
366.47
344.28
319.86
293.35
261.92
226.26
191.06
162.47
144.06
135.47
133.70
134.80
135.49
130.34
116.94
97.35
76.76
60.01
50.24
48.04
51.76
58.63
64.24
65.80
63.20
58.18
52.64
47.55
42.94
38.42
33.85
28.76
23.30
18.27
14.71
13.47
14.85
18.40
22.93
26.90
28.78
27.88
24.73
20.65
17.24
15.68
16.11
17.63
18.79
18.00
14.58
9.31
3.79
0.01
-0.59
2.25
7.46
13.24
17.68
19.80
19.57
16.79
10.62
-0.09
-15.98
-36.43
-57.42
-76.44
-94.17
-111.31
-129.45
-149.50
-170.53
-189.75
-204.00
-211.56
-213.51
-212.50
-210.82
-209.08
-205.52
-196.99
-180.79
-156.30
-125.28
-91.27
-57.69
-26.53
1.47
26.43
48.52
67.58
83.14
94.98
103.37
109.30
114.11
118.69
123.13
126.87
129.00
128.79
126.00
120.82
113.91
106.18
98.46
91.39
85.26
80.04
75.39
70.79
65.80
60.31
54.62
49.34
45.09
42.26
40.84
40.48
40.61
40.75
40.62
40.26
39.88
39.72
39.94
40.47
41.06
41.45
41.45
41.01
40.20
39.13
37.81
36.15
33.98
31.22
27.92
24.38
20.98
18.10
15.90
14.27
12.85
11.26
9.16
6.47
3.28
-0.13
-3.52
-6.77
-9.85
-12.83
-15.72
-18.45
-20.85
-22.80
-24.23
-25.27
-26.14
-27.10
-28.23
-29.37
-30.18
-30.23
-29.21
-27.14
-24.28
-21.09
-17.93
-15.02
-12.35
-9.81
-7.33
-4.98
-2.97
-1.54
-0.79
-0.67
-0.95
-1.34
-1.63
-1.75
-1.78
-1.86
-2.08
-2.44
-2.87
-3.28
-3.65
-4.07
-4.71
-5.64
-6.84
-8.12
-9.21
-9.93
-10.28
-10.46
-10.77
-11.46
-12.54
-13.76
-14.68
-14.86
-14.08
-12.41
-10.22
-7.94
-5.92
-4.25
-2.82
-1.41
0.12
1.70
3.17
4.28
4.91
5.12
5.08
4.99
4.94
4.90
4.72
4.36
3.82
3.33
3.12
3.37
4.09
5.07
6.01
6.59
6.61
6.03
4.94
3.54
2.05
0.63
-0.65
-1.84
-3.02
-4.29
-5.68
-7.09
-8.36
-9.32
-9.83
-9.83
-9.32
-8.30
-6.79
-4.82
-2.50
-0.05
2.25
4.17
5.58
6.50
7.09
7.54
7.95
8.29
8.44
8.25
7.69
6.88
6.04
5.42
5.12
5.06
4.98
4.64
3.93
2.99
2.13
1.59
1.46
1.53
1.49
1.06
0.23
-0.81
-1.72
-2.24
-2.31
-2.10
-1.84
-1.65
-1.57
-1.53
-1.47
-1.37
-1.23
-1.03
-0.67
0.01
1.20
3.01
5.48
8.49
11.88
15.38
18.66
21.32
22.95
23.27
22.25
20.18
17.57
14.96
12.77
11.15
10.01
9.11
8.22
7.16
5.89
4.40
2.75
1.04
-0.60
-1.97
-2.88
-3.24
-3.12
-2.78
-2.55
-2.70
-3.31
-4.21
-5.07
-5.60
-5.64
-5.35
-5.02
-5.02
-5.54
-6.51
-7.66
-8.61
-9.10
-9.02
-8.49
-7.67
-6.68
-5.53
-4.21
-2.75
-1.27
-0.01
0.85
1.23
1.30
1.33
1.58
2.12
2.85
3.48
3.75
3.57
3.05
2.45
2.06
2.07
2.47
3.12
3.77
4.20
4.31
4.13
3.80
3.49
3.27
3.14
2.97
2.66
2.12
1.41
0.65
0.01
-0.40
-0.54
-0.50
-0.40
-0.35
-0.41
-0.54
-0.69
-0.76
-0.69
-0.44
0.02
0.77
1.89
3.48
5.60
8.19
11.04
13.89
16.47
18.63
20.36
21.77
23.01
24.19
25.42
26.78
28.42
30.49
33.13
36.28
39.60
42.49
44.20
44.08
41.87
37.80
32.59
27.22
22.55
19.11
16.83
15.26
13.71
11.59
8.63
4.88
0.60
-3.94
-8.53
-13.10
-17.61
-21.96
-25.93
-29.25
-31.71
-33.26
-34.10
-34.58
-35.06
-35.81
-36.86
-38.08
-39.22
-40.02
-40.31
-40.04
-39.32
-38.27
-37.05
-35.74
-34.35
-32.83
-31.14
-29.27
-27.27
-25.24
-23.31
-21.57
-20.05
-18.71
-17.50
-16.39
-15.36
-14.38
-13.34
-12.12
-10.55
-8.58
-6.26
-3.78
-1.38
0.72
2.44
3.79
4.83
5.61
6.13
6.31
6.14
5.70
5.19
4.83
4.78
5.03
5.42
5.69
5.69
5.35
4.78
4.13
3.47
2.81
2.05
1.16
0.16
-0.82
-1.69
-2.45
-3.20
-4.08
-5.16
-6.39
-7.58
-8.51
-8.94
-8.77
-7.91
-6.42
-4.44
-2.22
-0.12
1.52
2.55
3.02
3.21
3.46
3.99
4.83
5.77
6.51
6.87
6.86
6.66
6.49
6.53
6.78
7.11
7.38
7.50
7.49
7.39
7.28
7.15
6.96
6.64
6.19
5.64
5.11
4.67
4.34
4.00
3.45
2.54
1.22
-0.33
-1.81
-2.89
-3.36
-3.30
-2.96
-2.67
-2.66
-2.97
-3.44
-3.88
-4.19
-4.42
-4.70
-5.15
-5.75
-6.37
-6.78
-6.83
-6.42
-5.62
-4.56
-3.40
-2.27
-1.22
-0.24
0.71
1.66
2.60
3.48
4.20
4.63
4.69
4.36
3.73
2.99
2.32
1.90
1.76
1.85
2.00
2.07
1.99
1.78
1.53
1.32
1.18
1.08
0.97
0.85
0.73
0.67
0.66
0.63
0.46
0.08
-0.51
-1.18
-1.77
-2.18
-2.47
-2.81
-3.35
-4.14
-5.01
-5.69
-5.95
-5.74
-5.29
-4.96
-5.01
-5.43
-5.92
-6.02
-5.40
-3.96
-1.94
0.22
2.13
3.54
4.41
4.84
4.98
4.93
4.67
4.16
3.37
2.38
1.39
0.59
0.18
0.20
0.49
0.82
0.97
0.81
0.42
-0.02
-0.31
-0.37
-0.30
-0.31
-0.56
-1.09
-1.75
-2.32
-2.62
-2.60
-2.47
-2.52
-2.98
-3.91
-5.11
-6.23
-6.94
-7.10
-6.85
-6.47
-6.26
-6.40
-6.81
-7.28
-7.52
-7.39
-6.89
-6.16
-5.35
-4.51
-3.56
-2.41
-1.03
0.49
1.90
2.94
3.47
3.53
3.35
3.21
3.31
3.68
4.16
4.49
4.46
4.07
3.49
2.99
2.81
3.01
3.43
3.82
3.92
3.66
3.13
2.55
2.14
1.98
1.98
1.98
1.82
1.44
0.94
0.44
0.09
-0.08
-0.20
-0.44
-0.96
-1.77
-2.73
-3.61
-4.21
-4.45
-4.44
-4.45
-4.70
-5.29
-6.11
-6.90
-7.39
-7.39
-6.93
-6.11
-5.07
-3.88
-2.57
-1.16
0.31
1.69
2.78
3.43
3.63
3.53
3.41
3.53
4.04
4.87
5.77
6.40
6.50
6.03
5.15
4.16
3.39
3.04
3.11
3.42
3.73
3.83
3.67
3.31
2.91
2.64
2.51
2.45
2.30
1.98
1.50
0.98
0.58
0.36
0.22
-0.04
-0.58
-1.42
-2.39
-3.18
-3.55
-3.44
-3.00
-2.52
-2.27
-2.37
-2.77
-3.29
-3.77
-4.13
-4.38
-4.57
-4.72
-4.76
-4.55
-3.97
-2.96
-1.55
0.10
1.79
3.35
4.66
5.74
6.66
7.50
8.29
8.94
9.28
9.17
8.60
7.74
6.85
6.17
5.81
5.62
5.30
4.51
3.01
0.81
-1.83
-4.45
-6.50
-7.57
-7.48
-6.35
-4.49
-2.25
0.02
2.06
3.65
4.55
4.60
3.82
2.50
1.19
0.48
0.67
1.63
2.83
3.58
3.48
2.53
1.16
-0.03
-0.50
0.04
1.60
4.11
7.46
11.52
16.12
20.99
25.72
29.88
32.97
34.50
34.01
31.08
25.51
17.55
8.00
-1.83
-10.38
-16.26
-18.60
-17.32
-13.04
-6.89
-0.13
6.14
11.08
14.19
15.19
14.02
10.86
6.25
1.11
-3.29
-5.72
-5.38
-2.29
2.77
8.60
14.03
18.35
21.33
22.86
22.64
20.12
14.77
6.60
-3.50
-13.95
-22.96
-29.32
-32.80
-34.15
-34.57
-35.17
-36.51
-38.51
-40.65
-42.28
-42.86
-42.04
-39.70
-35.83
-30.61
-24.41
-17.69
-11.09
-5.18
-0.45
2.81
4.50
4.60
3.13
0.08
-4.52
-10.45
-17.14
-23.80
-29.61
-34.08
-37.24
-39.52
-41.49
-43.55
-45.83
-48.22
-50.48
-52.35
-53.60
-54.15
-54.21
-54.35
-55.23
-57.11
-59.35
-60.25
-57.60
-49.63
-36.01
-18.20
1.05
18.69
32.43
41.24
45.29
45.55
43.24
39.65
35.88
32.77
30.84
30.19
30.61
31.71
32.99
33.96
34.14
33.17
30.92
27.67
24.06
20.87
18.66
17.50
16.97
16.34
15.00
12.80
10.01
7.18
4.79
3.03
1.78
0.72
-0.44
-1.84
-3.44
-5.13
-6.78
-8.30
-9.57
-10.41
-10.58
-9.91
-8.39
-6.20
-3.75
-1.47
0.36
1.70
2.73
3.77
5.02
6.51
8.02
9.27
10.08
10.48
10.71
11.07
11.77
12.78
13.85
14.67
15.02
14.90
14.52
14.12
13.86
13.71
13.45
12.86
11.84
10.49
9.04
7.78
6.88
6.35
6.06
5.82
5.46
4.95
4.36
3.80
3.37
3.09
2.85
2.47
1.77
0.64
-0.88
-2.63
-4.36
-5.87
-7.12
-8.21
-9.33
-10.61
-12.03
-13.43
-14.58
-15.33
-15.69
-15.80
-15.81
-15.71
-15.34
-14.45
-12.89
-10.70
-8.15
-5.57
-3.24
-1.27
0.42
1.95
3.42
4.82
6.04
6.93
7.46
7.68
7.75
7.86
8.13
8.62
9.23
9.83
10.35
10.80
11.32
12.07
13.12
14.42
15.71
16.68
17.07
16.79
15.95
14.76
13.48
12.30
11.31
10.46
9.67
8.83
7.92
6.97
6.03
5.21
4.50
3.89
3.32
2.75
2.18
1.66
1.21
0.84
0.47
-0.02
-0.71
-1.62
-2.66
-3.70
-4.62
-5.43
-6.29
-7.40
-8.93
-10.81
-12.70
-14.07
-14.39
-13.40
-11.17
-8.15
-4.89
-1.87
0.70
2.80
4.56
6.02
7.14
7.79
7.90
7.55
6.97
6.49
6.31
6.53
7.00
7.50
7.81
7.84
7.67
7.49
7.49
7.78
8.27
8.76
9.01
8.89
8.44
7.82
7.27
6.94
6.86
6.96
7.07
7.08
6.95
6.72
6.47
6.21
5.89
5.39
4.66
3.67
2.54
1.40
0.37
-0.54
-1.45
-2.47
-3.67
-5.00
-6.26
-7.25
-7.82
-7.99
-7.94
-7.98
-8.35
-9.21
-10.45
-11.76
-12.73
-12.97
-12.30
-10.80
-8.74
-6.42
-4.08
-1.82
0.34
2.36
4.10
5.39
6.07
6.12
5.69
5.03
4.41
3.99
3.81
3.82
3.95
4.15
4.44
4.88
5.52
6.36
7.28
8.06
8.51
8.53
8.16
7.60
7.06
6.69
6.45
6.17
5.69
4.94
4.01
3.08
2.34
1.85
1.51
1.16
0.64
-0.12
-1.03
-1.92
-2.62
-3.07
-3.36
-3.67
-4.24
-5.17
-6.40
-7.72
-8.87
-9.66
-10.07
-10.17
-10.01
-9.58
-8.71
-7.24
-5.11
-2.51
0.16
2.42
3.96
4.72
4.94
5.00
5.21
5.66
6.19
6.53
6.46
5.95
5.16
4.41
3.98
3.98
4.32
4.82
5.27
5.56
5.76
5.96
6.24
6.54
6.64
6.32
5.46
4.18
2.82
1.76
1.25
1.30
1.61
1.81
1.59
0.96
0.14
-0.51
-0.74
-0.57
-0.27
-0.21
-0.64
-1.58
-2.79
-3.93
-4.73
-5.14
-5.35
-5.65
-6.27
-7.30
-8.60
-9.88
-10.78
-11.02
-10.49
-9.25
-7.52
-5.58
-3.66
-1.88
-0.32
1.02
2.11
2.88
3.31
3.45
3.41
3.36
3.40
3.54
3.69
3.73
3.58
3.28
2.97
2.81
2.90
3.23
3.66
3.99
4.05
3.81
3.40
3.03
2.86
2.92
3.06
3.01
2.59
1.81
0.89
0.14
-0.21
-0.18
0.00
0.07
-0.17
-0.68
-1.24
-1.62
-1.66
-1.41
-1.10
-1.01
-1.35
-2.18
-3.33
-4.52
-5.47
-5.99
-6.16
-6.20
-6.42
-7.04
-8.01
-9.05
-9.75
-9.73
-8.82
-7.18
-5.15
-3.18
-1.56
-0.38
0.48
1.20
1.91
2.60
3.16
3.45
3.48
3.37
3.32
3.49
3.85
4.23
4.40
4.25
3.81
3.28
2.89
2.80
2.98
3.28
3.53
3.63
3.58
3.50
3.50
3.59
3.68
3.60
3.17
2.35
1.28
0.24
-0.49
-0.73
-0.55
-0.21
-0.00
-0.14
-0.62
-1.25
-1.79
-2.04
-2.03
-1.91
-1.89
-2.09
-2.51
-2.99
-3.38
-3.55
-3.54
-3.46
-3.50
-3.78
-4.33
-5.15
-6.14
-7.22
-8.25
-9.08
-9.52
-9.42
-8.65
-7.22
-5.29
-3.11
-1.04
0.65
1.78
2.40
2.66
2.83
3.13
3.63
4.20
4.57
4.48
3.85
2.87
1.88
1.24
1.14
1.52
2.09
2.55
2.77
2.77
2.73
2.83
3.07
3.27
3.18
2.64
1.70
0.61
-0.28
-0.69
-0.56
-0.11
0.32
0.44
0.12
-0.53
-1.24
-1.75
-1.87
-1.64
-1.23
-0.93
-0.94
-1.35
-2.08
-2.94
-3.67
-4.13
-4.32
-4.36
-4.45
-4.70
-5.15
-5.70
-6.24
-6.73
-7.24
-7.84
-8.49
-9.00
-9.03
-8.32
-6.76
-4.62
-2.36
-0.50
0.68
1.22
1.41
1.63
2.11
2.81
3.46
3.76
3.54
2.89
2.12
1.59
1.52
1.90
2.53
3.15
3.59
3.86
4.11
4.48
5.00
5.51
5.76
5.57
4.91
3.99
3.09
2.44
2.12
1.99
1.84
1.52
1.00
0.41
-0.08
-0.31
-0.22
0.07
0.37
0.48
0.31
-0.12
-0.66
-1.17
-1.51
-1.70
-1.82
-2.00
-2.33
-2.82
-3.39
-3.92
-4.31
-4.57
-4.74
-4.93
-5.26
-5.79
-6.51
-7.38
-8.27
-9.07
-9.62
-9.77
-9.38
-8.37
-6.76
-4.69
-2.46
-0.41
1.17
2.10
2.44
2.42
2.32
2.40
2.73
3.23
3.71
4.00
4.03
3.88
3.76
3.84
4.18
4.65
4.98
4.94
4.47
3.76
3.12
2.82
2.93
3.27
3.50
3.41
2.97
2.39
1.99
1.98
2.34
2.83
3.12
2.95
2.29
1.33
0.40
-0.19
-0.30
-0.05
0.28
0.39
0.14
-0.37
-0.94
-1.35
-1.52
-1.59
-1.78
-2.28
-3.07
-3.98
-4.79
-5.34
-5.64
-5.86
-6.22
-6.88
-7.85
-8.97
-9.95
-10.47
-10.32
-9.48
-8.15
-6.62
-5.18
-3.96
-2.94
-2.00
-1.01
0.04
1.05
1.89
2.44
2.75
2.94
3.12
3.37
3.64
3.82
3.84
3.68
3.46
3.34
3.44
3.79
4.29
4.76
5.05
5.04
4.77
4.36
3.95
3.66
3.50
3.39
3.24
3.00
2.69
2.42
2.28
2.29
2.37
2.36
2.12
1.65
1.08
0.65
0.56
0.85
1.36
1.76
1.74
1.14
0.05
-1.26
-2.47
-3.34
-3.88
-4.28
-4.73
-5.35
-6.09
-6.82
-7.39
-7.78
-8.11
-8.50
-8.99
-9.42
-9.52
-8.99
-7.69
-5.75
-3.53
-1.48
0.01
0.81
1.04
1.03
1.13
1.56
2.28
3.14
3.85
4.29
4.44
4.42
4.41
4.48
4.61
4.73
4.76
4.71
4.66
4.75
5.03
5.47
5.91
6.10
5.88
5.22
4.29
3.40
2.83
2.72
2.98
3.31
3.41
3.12
2.49
1.77
1.25
1.08
1.20
1.38
1.36
0.99
0.31
-0.44
-1.03
-1.29
-1.28
-1.20
-1.27
-1.65
-2.27
-2.94
-3.44
-3.66
-3.68
-3.72
-4.00
-4.62
-5.51
-6.52
-7.48
-8.34
-9.13
-9.86
-10.45
-10.69
-10.31
-9.09
-7.03
-4.40
-1.65
0.66
2.15
2.74
2.64
2.27
2.03
2.14
2.53
2.95
3.16
3.05
2.76
2.53
2.59
3.04
3.74
4.47
5.02
5.30
5.36
5.36
5.40
5.52
5.62
5.55
5.23
4.69
4.08
3.62
3.44
3.55
3.78
3.86
3.61
2.97
2.10
1.27
0.72
0.56
0.65
0.78
0.69
0.30
-0.32
-1.00
-1.55
-1.89
-2.08
-2.24
-2.48
-2.87
-3.40
-3.98
-4.52
-4.94
-5.29
-5.70
-6.34
-7.30
-8.51
-9.64
-10.28
-10.07
-8.95
-7.16
-5.13
-3.28
-1.84
-0.77
0.12
0.97
1.77
2.40
2.70
2.67
2.50
2.47
2.81
3.55
4.44
5.15
5.35
4.96
4.17
3.35
2.88
2.97
3.56
4.40
5.16
5.63
5.79
5.74
5.66
5.64
5.62
5.42
4.90
4.03
2.96
1.94
1.24
0.99
1.12
1.39
1.54
1.39
0.92
0.28
-0.32
-0.72
-0.87
-0.86
-0.84
-0.89
-1.05
-1.26
-1.43
-1.53
-1.64
-1.88
-2.39
-3.19
-4.15
-5.08
-5.78
-6.19
-6.43
-6.73
-7.31
-8.20
-9.18
-9.90
-9.98
-9.22
-7.68
-5.68
-3.61
-1.84
-0.54
0.30
0.80
1.13
1.33
1.38
1.22
0.77
0.13
-0.54
-1.00
-1.07
-0.71
-0.07
0.62
1.21
1.68
2.19
2.94
4.03
5.36
6.63
7.47
7.69
7.31
6.58
5.85
5.33
5.06
4.92
4.75
4.50
4.31
4.35
4.70
5.22
5.56
5.35
4.41
2.87
1.14
-0.35
-1.32
-1.79
-2.06
-2.45
-3.13
-4.03
-4.95
-5.60
-5.89
-5.86
-5.75
-5.83
-6.30
-7.17
-8.26
-9.23
-9.72
-9.46
-8.43
-6.82
-5.02
-3.36
-2.05
-1.07
-0.26
0.58
1.50
2.45
3.29
3.89
4.22
4.35
4.39
4.42
4.43
4.40
4.33
4.27
4.33
4.56
4.91
5.27
5.46
5.39
5.12
4.78
4.55
4.51
4.64
4.81
4.89
4.80
4.53
4.15
3.75
3.38
3.09
2.86
2.62
2.23
1.63
0.82
-0.05
-0.76
-1.09
-1.00
-0.67
-0.48
-0.77
-1.65
-2.95
-4.22
-5.06
-5.25
-4.93
-4.48
-4.28
-4.55
-5.23
-6.08
-6.85
-7.42
-7.90
-8.44
-9.11
-9.74
-10.03
-9.62
-8.35
-6.32
-3.97
-1.81
-0.26
0.54
0.77
0.82
1.04
1.63
2.50
3.37
3.96
4.12
3.90
3.54
3.31
3.39
3.77
4.28
4.70
4.89
4.87
4.77
4.79
5.00
5.32
5.55
5.46
4.96
4.16
3.32
2.71
2.47
2.52
2.62
2.53
2.14
1.57
1.02
0.70
0.65
0.73
0.71
0.41
-0.16
-0.83
-1.38
-1.64
-1.63
-1.55
-1.65
-2.10
-2.90
-3.85
-4.69
-5.21
-5.38
-5.42
-5.65
-6.31
-7.42
-8.71
-9.68
-9.89
-9.14
-7.59
-5.74
-4.07
-2.91
-2.23
-1.71
-1.02
0.02
1.27
2.37
2.99
3.03
2.70
2.37
2.42
2.96
3.79
4.53
4.85
4.66
4.14
3.65
3.47
3.73
4.26
4.78
5.04
4.96
4.68
4.40
4.30
4.40
4.59
4.69
4.58
4.25
3.82
3.43
3.15
3.00
2.86
2.64
2.26
1.75
1.21
0.79
0.61
0.67
0.86
0.95
0.74
0.11
-0.88
-1.99
-2.95
-3.55
-3.74
-3.63
-3.44
-3.40
-3.61
-4.07
-4.70
-5.43
-6.22
-7.11
-8.11
-9.16
-10.02
-10.38
-9.97
-8.66
-6.63
-4.30
-2.18
-0.65
0.20
0.59
0.87
1.33
2.00
2.71
3.18
3.25
3.00
2.70
2.64
2.97
3.56
4.10
4.32
4.13
3.71
3.39
3.48
4.04
4.86
5.61
5.97
5.84
5.35
4.78
4.35
4.14
4.00
3.70
3.08
2.16
1.14
0.31
-0.13
-0.10
0.19
0.48
0.47
0.02
-0.80
-1.79
-2.64
-3.09
-3.09
-2.79
-2.47
-2.39
-2.65
-3.15
-3.64
-3.94
-4.02
-4.07
-4.39
-5.17
-6.38
-7.74
-8.86
-9.39
-9.18
-8.33
-7.08
-5.68
-4.29
-2.93
-1.57
-0.19
1.12
2.20
2.87
3.05
2.85
2.51
2.33
2.50
2.97
3.53
3.93
4.04
3.92
3.81
3.97
4.50
5.27
6.00
6.40
6.35
5.97
5.52
5.27
5.37
5.68
5.94
5.88
5.41
4.69
4.06
3.81
4.06
4.61
5.11
5.22
4.82
4.07
3.25
2.65
2.39
2.39
2.49
2.50
2.34
2.04
1.66
1.29
0.98
0.74
0.55
0.38
0.20
-0.03
-0.36
-0.81
-1.39
-2.08
-2.83
-3.50
-3.87
-3.63
-2.52
-0.49
2.14
4.65
6.06
5.57
2.93
-1.29
-5.75
-8.88
-9.58
-7.70
-4.09
-0.14
2.95
4.73
5.60
6.36
7.68
9.60
11.61
12.99
13.34
12.83
12.04
11.61
11.81
12.43
12.95
12.84
11.88
10.27
8.42
6.76
5.54
4.72
4.11
3.53
2.94
2.56
2.67
3.51
5.12
7.25
9.45
11.17
11.96
11.54
9.92
7.39
4.46
1.62
-0.80
-2.79
-4.66
-6.82
-9.56
-12.78
-16.05
-18.82
-20.60
-21.23
-20.87
-19.87
-18.65
-17.57
-16.83
-16.51
-16.45
-16.37
-15.93
-14.82
-12.94
-10.44
-7.65
-5.04
-2.95
-1.53
-0.67
-0.03
0.78
2.04
3.80
5.82
7.70
9.10
9.89
10.19
10.34
10.72
11.63
13.14
15.09
17.06
18.48
18.84
17.89
15.88
13.47
11.52
10.73
11.37
13.19
15.59
17.92
19.70
20.77
21.17
21.09
20.71
20.20
19.72
19.42
19.37
19.56
19.88
20.10
19.97
19.27
17.90
15.98
13.79
11.79
10.38
9.79
9.93
10.48
10.98
11.07
10.63
9.76
8.72
7.74
6.99
6.44
5.97
5.40
4.49
2.96
0.57
-2.70
-6.56
-10.24
-12.68
-12.79
-9.96
-4.34
3.04
10.52
16.30
18.92
17.58
12.20
3.30
-8.22
-21.22
-34.43
-46.54
-56.43
-63.38
-67.26
-68.59
-68.28
-67.22
-65.89
-64.27
-61.99
-58.65
-54.21
-48.91
-43.13
-37.10
-30.80
-24.11
-16.97
-9.39
-1.34
7.51
17.82
30.24
44.83
60.71
76.09
88.88
97.51
101.54
101.62
99.00
94.88
90.03
84.75
79.23
73.84
69.21
65.91
64.01
62.79
60.88
56.69
49.25
38.64
25.98
13.05
1.42
-8.06
-15.49
-21.69
-27.86
-35.43
-45.95
-60.95
-81.56
-107.95
-139.02
-172.56
-205.80
-236.01
-260.58
-276.87
-282.07
-273.58
-250.10
-212.69
-165.27
-113.92
-65.13
-23.99
6.99
27.84
40.18
46.14
47.62
46.12
42.92
39.19
35.95
33.86
33.07
33.28
33.89
34.21
33.67
32.05
29.45
26.28
23.13
20.57
18.93
18.20
17.98
17.77
17.07
15.71
13.85
11.92
10.33
9.38
9.02
8.96
8.77
8.02
6.46
4.07
1.09
-2.07
-4.94
-7.10
-8.36
-8.67
-8.04
-6.46
-3.74
0.29
5.74
12.47
20.02
27.73
34.85
40.75
44.95
47.19
47.32
45.38
41.56
36.28
30.12
23.73
17.65
12.23
7.58
3.58
-0.05
-3.61
-7.36
-11.38
-15.55
-19.55
-22.93
-25.37
-26.81
-27.52
-28.04
-28.85
-30.03
-31.11
-31.18
-29.25
-24.77
-17.96
-9.88
-2.11
3.75
6.64
6.33
3.52
-0.57
-4.52
-7.20
-7.98
-6.71
-3.62
0.87
6.19
11.65
16.48
19.96
21.61
21.39
19.69
17.26
14.84
12.99
11.92
11.58
11.77
12.30
13.01
13.76
14.37
14.72
14.71
14.37
13.82
13.23
12.72
12.38
12.18
12.00
11.63
10.88
9.59
7.77
5.54
3.10
0.67
-1.69
-3.99
-6.29
-8.61
-10.88
-12.93
-14.54
-15.55
-15.93
-15.76
-15.17
-14.34
-13.36
-12.24
-10.94
-9.44
-7.87
-6.47
-5.52
-5.22
-5.51
-6.10
-6.56
-6.55
-5.98
-5.01
-3.88
-2.81
-1.87
-1.01
-0.12
0.78
1.56
2.03
2.04
1.61
0.95
0.35
0.06
0.16
0.45
0.58
0.25
-0.63
-1.86
-3.05
-3.80
-3.93
-3.56
-3.00
-2.60
-2.57
-2.93
-3.56
-4.35
-5.26
-6.39
-7.83
-9.60
-11.53
-13.26
-14.36
-14.48
-13.40
-11.23
-8.21
-4.69
-1.00
2.66
6.15
9.39
12.28
14.71
16.59
17.96
18.98
19.94
21.14
22.79
24.95
27.43
29.91
32.05
33.57
34.43
34.73
34.68
34.49
34.22
33.75
32.86
31.27
28.82
25.57
21.78
17.81
13.92
10.17
6.46
2.66
-1.23
-4.96
-8.19
-10.65
-12.35
-13.52
-14.47
-15.29
-15.81
-15.66
-14.59
-12.72
-10.56
-8.77
-7.77
-7.58
-7.76
-7.75
-7.16
-5.97
-4.49
-3.13
-2.15
-1.50
-0.93
-0.14
1.04
2.55
4.09
5.34
6.06
6.22
6.07
5.98
6.25
7.04
8.18
9.33
10.13
10.38
10.15
9.72
9.41
9.35
9.41
9.28
8.69
7.62
6.36
5.41
5.19
5.87
7.23
8.84
10.27
11.29
11.93
12.33
12.62
12.81
12.71
12.14
11.00
9.40
7.63
6.00
4.75
3.95
3.45
3.06
2.61
2.06
1.49
0.99
0.64
0.40
0.19
-0.09
-0.50
-1.05
-1.74
-2.51
-3.29
-4.00
-4.54
-4.92
-5.23
-5.63
-6.21
-6.96
-7.70
-8.18
-8.25
-7.94
-7.43
-6.97
-6.70
-6.50
-6.15
-5.41
-4.27
-2.94
-1.75
-0.99
-0.67
-0.56
-0.33
0.22
1.03
1.81
2.27
2.34
2.26
2.41
3.07
4.22
5.47
6.29
6.30
5.45
4.04
2.56
1.44
0.92
0.87
1.01
0.96
0.51
-0.37
-1.46
-2.52
-3.41
-4.27
-5.51
-7.54
-10.50
-14.10
-17.62
-20.22
-21.26
-20.46
-17.88
-13.69
-7.96
-0.72
7.89
17.39
26.86
35.19
41.35
44.80
45.43
43.53
39.43
33.29
25.17
15.07
3.21
-9.86
-23.27
-35.91
-46.61
-54.35
-58.53
-59.09
-56.61
-52.17
-47.02
-42.25
-38.46
-35.64
-33.32
-30.85
-27.63
-23.37
-18.00
-11.69
-4.69
2.64
9.89
16.52
22.01
25.96
28.15
28.70
27.97
26.41
24.46
22.36
20.20
17.92
15.47
12.92
10.41
8.19
6.45
5.20
4.28
3.30
1.86
-0.29
-3.09
-6.14
-8.89
-10.86
-11.84
-11.86
-11.08
-9.69
-7.79
-5.51
-3.09
-0.91
0.65
1.37
1.32
0.81
0.17
-0.45
-1.18
-2.35
-4.19
-6.65
-9.28
-11.41
-12.36
-11.71
-9.34
-5.56
-0.92
3.99
8.66
12.85
16.60
20.09
23.49
26.76
29.62
31.61
32.27
31.40
29.18
26.12
23.00
20.55
19.17
18.79
18.80
18.25
16.23
12.20
6.26
-0.93
-8.42
-15.28
-20.92
-25.07
-27.73
-28.94
-28.65
-26.89
-23.73
-19.50
-14.70
-9.87
-5.33
-1.09
3.17
7.91
13.50
20.00
27.13
34.38
41.27
47.53
53.23
58.54
63.58
68.18
71.82
73.89
73.87
71.57
67.05
60.49
52.07
42.00
30.68
18.87
7.65
-1.90
-8.99
-13.55
-16.08
-17.39
-18.18
-18.79
-19.25
-19.42
-19.28
-18.94
-18.59
-18.36
-18.29
-18.31
-18.38
-18.59
-19.10
-20.21
-22.14
-24.93
-28.40
-32.10
-35.46
-38.04
-39.63
-40.42
-40.86
-41.43
-42.46
-43.99
-45.87
-47.90
-49.96
-52.03
-54.12
-56.11
-57.79
-58.85
-59.01
-58.18
-56.41
-53.92
-50.89
-47.34
-43.13
-38.05
-32.09
-25.52
-18.89
-12.86
-7.85
-3.91
-0.65
2.44
5.73
9.22
12.53
15.13
16.63
16.91
16.15
14.70
12.90
11.01
9.22
7.67
6.52
5.95
6.13
7.20
9.15
11.86
15.11
18.57
21.96
25.07
27.84
30.35
32.69
34.95
37.10
38.95
40.27
40.89
40.84
40.31
39.54
38.62
37.30
35.10
31.45
26.05
19.02
10.97
2.74
-4.86
-11.30
-16.34
-20.00
-22.37
-23.53
-23.58
-22.76
-21.47
-20.20
-19.40
-19.30
-19.81
-20.57
-21.06
-20.82
-19.63
-17.58
-15.06
-12.61
-10.68
-9.50
-9.00
-8.86
-8.70
-8.31
-7.71
-7.15
-6.88
-6.97
-7.20
-7.15
-6.44
-4.92
-2.88
-0.82
0.73
1.53
1.68
1.54
1.50
1.76
2.26
2.78
3.15
3.30
3.36
3.53
3.91
4.46
4.98
5.16
4.76
3.71
2.17
0.53
-0.73
-1.14
-0.42
1.45
4.26
7.70
11.44
15.20
18.75
21.90
24.45
26.28
27.37
27.88
28.06
28.17
28.37
28.70
29.05
29.35
29.54
29.70
29.96
30.38
30.96
31.57
31.99
32.01
31.50
30.41
28.80
26.71
24.09
20.78
16.54
11.21
4.88
-2.06
-8.96
-15.10
-19.97
-23.43
-25.73
-27.35
-28.75
-30.17
-31.52
-32.53
-32.92
-32.55
-31.59
-30.42
-29.51
-29.23
-29.74
-30.92
-32.45
-33.92
-34.94
-35.18
-34.41
-32.49
-29.38
-25.21
-20.34
-15.33
-10.93
-7.83
-6.48
-6.97
-9.06
-12.29
-16.11
-20.04
-23.69
-26.78
-29.07
-30.44
-30.92
-30.78
-30.54
-30.71
-31.66
-33.28
-34.99
-35.96
-35.43
-33.19
-29.67
-25.70
-22.15
-19.38
-17.15
-14.78
-11.59
-7.34
-2.37
2.60
6.87
10.08
12.37
14.19
16.00
18.02
20.09
21.83
22.85
22.96
22.30
21.25
20.30
19.78
19.79
20.21
20.76
21.14
21.18
20.84
20.26
19.58
18.95
18.44
17.96
17.35
16.43
15.12
13.50
11.81
10.36
9.42
9.09
9.31
9.99
11.06
12.58
14.64
17.21
20.09
22.85
25.01
26.23
26.43
25.87
24.96
24.11
23.48
22.95
22.16
20.76
18.54
15.62
12.28
8.84
5.44
1.97
-1.83
-6.11
-10.75
-15.27
-19.09
-21.76
-23.23
-23.90
-24.36
-25.10
-26.27
-27.57
-28.51
-28.64
-27.77
-26.07
-23.92
-21.69
-19.67
-17.95
-16.52
-15.34
-14.44
-13.81
-13.46
-13.24
-12.92
-12.23
-10.97
-9.04
-6.50
-3.55
-0.43
2.65
5.53
8.21
10.75
13.26
15.84
18.52
21.28
24.10
26.97
29.89
32.90
35.95
38.96
41.68
43.83
45.22
45.82
45.91
46.00
46.71
48.49
51.42
55.13
58.89
61.92
63.65
63.89
62.83
60.77
57.88
54.07
49.13
42.83
35.19
26.50
17.25
7.97
-0.98
-9.37
-17.11
-24.11
-30.24
-35.36
-39.36
-42.22
-44.07
-45.15
-45.72
-46.03
-46.15
-46.06
-45.63
-44.75
-43.42
-41.78
-40.07
-38.51
-37.21
-36.14
-35.17
-34.18
-33.16
-32.21
-31.52
-31.30
-31.65
-32.58
-33.99
-35.75
-37.78
-40.08
-42.64
-45.33
-47.80
-49.50
-49.85
-48.49
-45.46
-41.22
-36.40
-31.57
-26.98
-22.63
-18.36
-14.12
-10.06
-6.40
-3.29
-0.67
1.76
4.32
7.25
10.53
13.95
17.21
20.07
22.41
24.24
25.64
26.70
27.49
27.99
28.16
27.93
27.24
26.13
24.73
23.21
21.75
20.47
19.38
18.42
17.50
16.58
15.69
14.84
13.95
12.82
11.23
9.05
6.41
3.68
1.35
-0.24
-1.05
-1.39
-1.75
-2.58
-4.05
-5.95
-7.85
-9.17
-9.43
-8.35
-5.93
-2.42
1.72
5.98
9.91
13.25
15.91
17.87
19.15
19.79
19.87
19.58
19.22
19.13
19.46
20.14
20.82
21.10
20.77
19.89
18.88
18.22
18.24
18.91
19.84
20.51
20.51
19.70
18.24
16.43
14.55
12.67
10.78
8.80
6.72
4.67
2.77
1.09
-0.45
-2.07
-3.96
-6.18
-8.59
-10.87
-12.68
-13.83
-14.35
-14.52
-14.71
-15.22
-16.13
-17.31
-18.50
-19.52
-20.29
-20.95
-21.62
-22.30
-22.74
-22.53
-21.27
-18.82
-15.43
-11.66
-8.14
-5.38
-3.60
-2.71
-2.46
-2.63
-3.08
-3.89
-5.17
-6.94
-9.06
-11.18
-12.86
-13.71
-13.62
-12.86
-11.95
-11.39
-11.45
-11.99
-12.57
-12.74
-12.20
-11.03
-9.54
-8.04
-6.71
-5.44
-4.00
-2.20
0.01
2.38
4.53
6.12
6.99
7.25
7.18
7.13
7.34
7.83
8.45
8.99
9.30
9.37
9.32
9.32
9.50
9.85
10.30
10.77
11.25
11.88
12.82
14.15
15.79
17.41
18.55
18.87
18.32
17.18
16.01
15.35
15.49
16.31
17.33
18.01
17.98
17.25
16.12
14.98
14.00
13.00
11.60
9.42
6.40
2.85
-0.70
-3.72
-5.94
-7.40
-8.35
-9.02
-9.47
-9.58
-9.20
-8.28
-6.94
-5.50
-4.28
-3.53
-3.27
-3.33
-3.37
-3.11
-2.44
-1.51
-0.70
-0.40
-0.83
-1.87
-3.14
-4.19
-4.72
-4.78
-4.63
-4.67
-5.13
-5.98
-6.98
-7.84
-8.42
-8.85
-9.42
-10.42
-11.96
-13.80
-15.50
-16.53
-16.46
-15.17
-12.80
-9.70
-6.33
-3.07
-0.18
2.22
4.11
5.51
6.43
6.90
7.00
6.90
6.81
6.93
7.35
7.96
8.54
8.84
8.77
8.42
8.02
7.83
7.93
8.25
8.60
8.83
8.87
8.80
8.76
8.76
8.75
8.53
7.93
6.92
5.62
4.29
3.19
2.45
2.03
1.73
1.31
0.58
-0.50
-1.78
-3.09
-4.27
-5.25
-6.13
-7.10
-8.32
-9.85
-11.63
-13.46
-15.07
-16.23
-16.75
-16.54
-15.60
-13.99
-11.81
-9.22
-6.45
-3.75
-1.40
0.41
1.61
2.30
2.70
3.07
3.58
4.22
4.80
5.05
4.77
3.93
2.72
1.47
0.51
0.02
-0.04
0.12
0.22
0.02
-0.57
-1.48
-2.59
-3.76
-4.96
-6.28
-7.87
-9.90
-12.39
-15.25
-18.24
-21.06
-23.52
-25.53
-27.14
-28.48
-29.64
-30.68
-31.58
-32.27
-32.74
-32.95
-32.86
-32.25
-30.76
-27.97
-23.52
-17.39
-9.97
-1.99
5.78
12.78
18.83
24.04
28.59
32.48
35.43
37.06
37.15
35.84
33.65
31.22
29.00
27.11
25.33
23.38
21.16
18.84
16.80
15.37
14.66
14.52
14.58
14.47
13.99
13.16
12.25
11.57
11.36
11.74
12.57
13.66
14.79
15.86
16.95
18.32
20.25
22.91
26.17
29.63
32.79
35.13
36.33
36.32
35.24
33.31
30.73
27.71
24.54
21.68
19.54
18.34
17.98
18.15
18.49
18.73
18.79
18.64
18.37
17.86
16.83
15.08
12.66
9.97
7.43
5.18
3.10
1.03
-1.29
-4.15
-7.80
-12.28
-17.38
-22.78
-28.05
-32.44
-34.83
-34.28
-30.62
-24.51
-17.29
-10.35
-4.75
-0.93
-0.08
-1.78
-4.30
-5.70
-5.17
-3.29
-1.06
1.62
4.18
6.45
8.62
10.91
13.38
16.23
19.27
22.98
27.80
33.32
38.30
40.87
39.00
31.31
17.84
0.32
-18.27
-35.02
-48.23
-57.56
-63.69
-67.71
-70.43
-72.06
-72.43
-71.23
-68.58
-65.03
-61.13
-57.05
-52.53
-47.16
-40.70
-33.32
-25.69
-18.75
-13.37
-9.98
-8.41
-8.07
-8.24
-8.32
-7.99
-7.17
-6.00
-4.83
-4.03
-4.05
-5.34
-8.33
-13.27
-20.01
-27.86
-35.55
-41.52
-44.42
-43.66
-39.79
-34.43
-29.70
-27.36
-28.10
-31.31
-35.39
-38.52
-39.40
-37.70
-33.94
-29.11
-24.21
-19.91
-16.46
-13.80
-11.68
-9.73
-7.48
-4.35
0.22
6.68
15.10
25.10
35.83
46.10
54.77
61.09
64.92
66.72
67.28
67.36
67.30
66.99
66.04
64.07
60.95
56.86
52.13
47.10
41.97
36.76
31.43
25.95
20.40
14.95
9.84
5.32
1.61
-1.23
-3.40
-5.37
-7.76
-11.10
-15.55
-20.76
-25.96
-30.19
-32.67
-33.01
-31.33
-28.15
-24.18
-20.06
-16.25
-13.03
-10.44
-8.46
-6.97
-5.89
-5.11
-4.54
-4.03
-3.45
-2.61
-1.43
0.04
1.60
2.98
4.00
4.59
4.86
4.97
5.06
5.16
5.22
5.17
4.95
4.58
3.98
3.08
1.78
0.05
-1.97
-4.05
-5.99
-7.69
-9.26
-10.94
-12.88
-15.13
-17.46
-19.52
-20.93
-21.45
-21.03
-19.82
-18.01
-15.75
-13.11
-10.06
-6.60
-2.80
1.18
5.11
8.77
11.98
14.67
16.85
18.53
19.71
20.39
20.53
20.12
19.23
17.99
16.61
15.33
14.35
13.73
13.40
13.13
12.68
11.93
10.87
9.65
8.51
7.55
6.82
6.23
5.63
4.87
3.87
2.58
0.96
-1.10
-3.70
-6.86
-10.37
-13.77
-16.40
-17.66
-17.21
-15.14
-11.89
-8.06
-4.15
-0.46
2.93
6.06
8.89
11.27
13.04
14.08
14.39
14.19
13.69
13.11
12.55
11.93
11.11
10.03
8.74
7.49
6.61
6.35
6.73
7.51
8.26
8.62
8.38
7.60
6.51
5.38
4.39
3.53
2.69
1.71
0.44
-1.17
-3.06
-5.15
-7.28
-9.38
-11.39
-13.27
-14.94
-16.17
-16.62
-15.98
-14.06
-11.06
-7.42
-3.75
-0.53
2.04
4.13
6.03
7.98
9.92
11.55
12.54
12.75
12.33
11.65
11.09
10.82
10.78
10.71
10.41
9.87
9.27
8.89
8.89
9.19
9.53
9.57
9.09
8.05
6.65
5.17
3.81
2.68
1.60
0.33
-1.34
-3.49
-5.91
-8.16
-9.77
-10.35
-9.84
-8.46
-6.60
-4.62
-2.68
-0.73
1.38
3.71
6.16
8.44
10.24
11.39
11.96
12.18
12.29
12.40
12.45
12.27
11.75
10.98
10.18
9.65
9.57
9.94
10.49
10.89
10.84
10.21
9.09
7.71
6.31
5.00
3.67
2.13
0.15
-2.30
-5.07
-7.86
-10.42
-12.66
-14.70
-16.68
-18.56
-20.04
-20.57
-19.71
-17.30
-13.68
-9.55
-5.64
-2.46
-0.09
1.73
3.36
5.05
6.78
8.27
9.23
9.50
9.14
8.48
7.90
7.70
7.92
8.40
8.81
8.91
8.58
7.96
7.31
6.91
6.86
7.04
7.15
6.89
6.09
4.81
3.32
1.93
0.84
-0.02
-0.86
-2.00
-3.62
-5.68
-7.93
-9.98
-11.45
-12.11
-11.83
-10.63
-8.62
-5.97
-2.87
0.43
3.64
6.42
8.47
9.67
10.09
10.04
9.94
10.14
10.78
11.68
12.43
12.68
12.26
11.35
10.40
9.83
9.88
10.42
11.09
11.49
11.41
10.95
10.40
10.05
10.02
10.13
10.05
9.50
8.35
6.80
5.18
3.82
2.85
2.15
1.40
0.33
-1.19
-3.01
-4.86
-6.42
-7.53
-8.24
-8.74
-9.29
-10.03
-10.98
-12.03
-13.07
-14.06
-15.02
-15.97
-16.83
-17.37
-17.28
-16.28
-14.27
-11.44
-8.21
-5.10
-2.52
-0.71
0.40
1.04
1.49
1.95
2.43
2.80
2.87
2.57
2.00
1.43
1.15
1.31
1.84
2.50
3.02
3.23
3.19
3.11
3.19
3.50
3.95
4.30
4.34
3.98
3.28
2.47
1.76
1.33
1.14
1.04
0.83
0.44
-0.06
-0.49
-0.66
-0.55
-0.35
-0.35
-0.82
-1.81
-3.11
-4.31
-5.06
-5.17
-4.79
-4.29
-4.05
-4.32
-5.09
-6.13
-7.12
-7.74
-7.85
-7.40
-6.44
-5.09
-3.50
-1.86
-0.36
0.88
1.76
2.28
2.54
2.65
2.76
2.96
3.29
3.64
3.79
3.47
2.54
1.07
-0.60
-1.97
-2.61
-2.36
-1.42
-0.22
0.77
1.32
1.43
1.31
1.18
1.16
1.20
1.13
0.86
0.38
-0.18
-0.65
-0.87
-0.85
-0.76
-0.84
-1.26
-2.03
-2.95
-3.75
-4.22
-4.35
-4.39
-4.64
-5.32
-6.40
-7.57
-8.47
-8.82
-8.60
-8.14
-7.90
-8.31
-9.51
-11.27
-13.06
-14.27
-14.45
-13.51
-11.69
-9.47
-7.26
-5.32
-3.73
-2.41
-1.29
-0.40
0.23
0.58
0.75
0.96
1.39
2.13
3.06
3.87
4.22
3.96
3.17
2.20
1.45
1.24
1.65
2.50
3.49
4.31
4.82
4.97
4.87
4.61
4.27
3.85
3.30
2.63
1.85
1.09
0.48
0.11
-0.02
-0.10
-0.36
-0.99
-2.02
-3.22
-4.27
-4.87
-4.97
-4.79
-4.70
-5.05
-5.96
-7.28
-8.62
-9.56
-9.77
-9.16
-7.89
-6.23
-4.47
-2.84
-1.41
-0.14
1.06
2.23
3.29
4.13
4.59
4.64
4.38
4.00
3.72
3.60
3.61
3.61
3.48
3.24
3.01
2.97
3.18
3.53
3.72
3.54
2.93
2.12
1.49
1.33
1.68
2.26
2.63
2.44
1.63
0.48
-0.58
-1.15
-1.13
-0.73
-0.34
-0.31
-0.78
-1.62
-2.52
-3.20
-3.52
-3.60
-3.73
-4.13
-4.90
-5.88
-6.83
-7.51
-7.79
-7.73
-7.45
-7.01
-6.43
-5.62
-4.49
-3.01
-1.27
0.52
2.12
3.32
4.03
4.28
4.23
4.07
3.94
3.88
3.83
3.68
3.36
2.93
2.49
2.17
2.08
2.15
2.30
2.40
2.40
2.31
2.25
2.31
2.53
2.74
2.72
2.23
1.25
-0.00
-1.16
-1.86
-1.94
-1.56
-1.08
-0.86
-1.08
-1.65
-2.31
-2.82
-3.08
-3.23
-3.46
-3.90
-4.54
-5.21
-5.73
-5.98
-6.00
-6.00
-6.19
-6.62
-7.15
-7.42
-7.06
-5.87
-3.91
-1.55
0.73
2.52
3.63
4.16
4.37
4.51
4.73
4.97
5.10
5.02
4.74
4.40
4.17
4.16
4.36
4.60
4.67
4.45
3.94
3.29
2.74
2.47
2.53
2.79
3.03
3.02
2.66
1.99
1.23
0.62
0.29
0.12
-0.19
-0.93
-2.23
-3.83
-5.28
-6.09
-6.08
-5.46
-4.74
-4.48
-4.97
-6.09
-7.44
-8.49
-8.90
-8.57
-7.67
-6.43
-5.06
-3.69
-2.37
-1.13
0.00
0.88
1.38
1.40
0.97
0.25
-0.50
-1.05
-1.24
-1.09
-0.78
-0.55
-0.63
-1.10
-1.87
-2.76
-3.51
-3.98
-4.13
-4.06
-3.99
-4.10
-4.52
-5.30
-6.37
-7.67
-9.17
-10.81
-12.51
-14.12
-15.46
-16.40
-16.89
-17.04
-17.03
-17.04
-17.11
-17.12
-16.84
-16.02
-14.58
-12.65
-10.55
-8.57
-6.90
-5.45
-3.95
-2.13
0.11
2.61
5.02
7.05
8.62
9.91
11.26
12.96
15.07
17.44
19.85
22.13
24.25
26.22
28.01
29.44
30.19
29.90
28.34
25.53
21.79
17.66
13.75
10.59
8.46
7.39
7.14
7.36
7.73
8.07
8.35
8.65
9.00
9.26
9.18
8.45
6.87
4.48
1.56
-1.43
-4.05
-6.02
-7.31
-8.03
-8.41
-8.56
-8.55
-8.36
-7.97
-7.45
-6.97
-6.72
-6.83
-7.29
-7.91
-8.37
-8.43
-8.03
-7.32
-6.56
-5.95
-5.44
-4.84
-3.92
-2.62
-1.24
-0.26
-0.09
-0.87
-2.28
-3.76
-4.73
-4.94
-4.51
-3.79
-3.11
-2.61
-2.19
-1.61
-0.68
0.64
2.17
3.65
4.86
5.68
6.19
6.51
6.79
7.07
7.27
7.24
6.85
6.05
4.96
3.80
2.75
1.92
1.25
0.61
-0.14
-1.04
-2.01
-2.93
-3.73
-4.44
-5.19
-6.13
-7.31
-8.63
-9.87
-10.73
-10.98
-10.53
-9.45
-7.97
-6.35
-4.82
-3.50
-2.40
-1.42
-0.54
0.23
0.78
1.05
1.03
0.88
0.83
1.08
1.66
2.41
3.04
3.33
3.22
2.92
2.72
2.85
3.31
3.92
4.44
4.69
4.72
4.67
4.74
4.96
5.25
5.36
5.10
4.43
3.48
2.52
1.79
1.43
1.38
1.47
1.44
1.14
0.52
-0.30
-1.08
-1.61
-1.76
-1.60
-1.30
-1.05
-0.99
-1.13
-1.36
-1.55
-1.65
-1.72
-1.92
-2.43
-3.32
-4.50
-5.72
-6.70
-7.20
-7.15
-6.62
-5.78
-4.78
-3.68
-2.46
-1.07
0.43
1.86
2.96
3.51
3.46
2.97
2.38
2.01
2.05
2.47
3.01
3.39
3.41
3.10
2.69
2.44
2.55
2.99
3.56
4.02
4.21
4.13
3.89
3.63
3.42
3.22
2.95
2.56
2.03
1.46
0.92
0.50
0.20
-0.03
-0.26
-0.55
-0.91
-1.31
-1.69
-1.99
-2.21
-2.39
-2.61
-2.96
-3.45
-4.03
-4.61
-5.09
-5.41
-5.66
-6.00
-6.58
-7.44
-8.40
-9.14
-9.30
-8.65
-7.29
-5.53
-3.76
-2.25
-1.03
0.06
1.20
2.47
3.71
4.64
5.05
4.91
4.46
4.06
4.00
4.39
5.01
5.48
5.46
4.87
3.94
3.15
2.96
3.58
4.81
6.16
7.08
7.24
6.69
5.79
4.97
4.51
4.40
4.36
4.09
3.41
2.41
1.37
0.62
0.34
0.46
0.70
0.72
0.31
-0.53
-1.58
-2.52
-3.14
-3.35
-3.33
-3.30
-3.50
-4.02
-4.81
-5.70
-6.53
-7.20
-7.74
-8.14
-8.37
-8.30
-7.76
-6.64
-5.00
-3.09
-1.25
0.22
1.18
1.70
2.02
2.39
2.97
3.69
4.35
4.73
4.69
4.30
3.79
3.40
3.31
3.46
3.67
3.70
3.47
3.08
2.79
2.86
3.36
4.15
4.89
5.24
5.04
4.37
3.54
2.88
2.57
2.55
2.56
2.32
1.74
0.98
0.35
0.17
0.51
1.12
1.60
1.61
1.04
0.07
-0.95
-1.76
-2.24
-2.52
-2.80
-3.25
-3.90
-4.67
-5.46
-6.15
-6.68
-7.03
-7.16
-7.06
-6.68
-5.97
-4.95
-3.67
-2.24
-0.88
0.23
0.95
1.27
1.32
1.30
1.40
1.67
1.99
2.18
2.06
1.60
0.96
0.41
0.20
0.42
0.96
1.61
2.12
2.39
2.46
2.46
2.48
2.55
2.58
2.49
2.23
1.82
1.37
0.98
0.75
0.71
0.79
0.87
0.77
0.36
-0.40
-1.41
-2.45
-3.29
-3.82
-4.11
-4.34
-4.72
-5.34
-6.15
-7.00
-7.66
-8.01
-7.99
-7.63
-6.99
-6.10
-4.95
-3.57
-2.02
-0.49
0.80
1.64
1.96
1.86
1.56
1.32
1.35
1.64
2.11
2.55
2.84
2.94
2.92
2.90
2.97
3.04
2.97
2.60
1.93
1.14
0.57
0.53
1.08
1.99
2.80
3.06
2.56
1.46
0.15
-0.94
-1.55
-1.72
-1.73
-1.88
-2.36
-3.13
-3.94
-4.53
-4.69
-4.47
-4.06
-3.77
-3.84
-4.35
-5.15
-5.98
-6.59
-6.84
-6.77
-6.53
-6.21
-5.81
-5.21
-4.29
-2.98
-1.42
0.13
1.41
2.25
2.71
3.03
3.45
4.07
4.79
5.34
5.48
5.14
4.49
3.82
3.41
3.39
3.71
4.22
4.70
5.05
5.24
5.35
5.45
5.54
5.51
5.18
4.41
3.23
1.84
0.62
-0.11
-0.20
0.20
0.74
1.06
0.98
0.56
0.05
-0.33
-0.49
-0.57
-0.78
-1.27
-2.04
-2.92
-3.68
-4.15
-4.35
-4.44
-4.67
-5.22
-6.11
-7.19
-8.21
-8.89
-9.01
-8.52
-7.50
-6.13
-4.61
-3.12
-1.77
-0.60
0.43
1.33
2.09
2.71
3.16
3.46
3.70
3.94
4.22
4.47
4.55
4.36
3.87
3.25
2.73
2.56
2.81
3.36
3.95
4.32
4.34
4.14
3.93
3.94
4.18
4.46
4.42
3.83
2.70
1.35
0.25
-0.23
-0.02
0.63
1.28
1.51
1.17
0.38
-0.59
-1.43
-2.00
-2.32
-2.54
-2.81
-3.21
-3.72
-4.28
-4.82
-5.32
-5.91
-6.75
-7.90
-9.20
-10.25
-10.56
-9.80
-7.96
-5.46
-2.96
-1.02
0.08
0.50
0.65
0.93
1.57
2.47
3.37
4.01
4.27
4.23
4.10
4.07
4.22
4.48
4.70
4.74
4.56
4.26
4.03
4.08
4.48
5.13
5.81
6.27
6.32
6.01
5.52
5.10
4.89
4.80
4.56
3.93
2.83
1.48
0.30
-0.36
-0.34
0.13
0.61
0.68
0.16
-0.81
-1.86
-2.64
-3.02
-3.13
-3.26
-3.66
-4.39
-5.29
-6.09
-6.57
-6.73
-6.82
-7.15
-7.92
-9.07
-10.23
-10.92
-10.75
-9.61
-7.72
-5.52
-3.45
-1.79
-0.61
0.22
0.92
1.67
2.55
3.49
4.37
5.06
5.48
5.66
5.71
5.73
5.72
5.57
5.16
4.45
3.59
2.88
2.61
2.94
3.72
4.63
5.31
5.53
5.30
4.86
4.49
4.32
4.25
4.03
3.42
2.37
1.11
0.02
-0.54
-0.47
0.01
0.47
0.50
-0.04
-0.97
-1.92
-2.54
-2.74
-2.71
-2.75
-3.12
-3.83
-4.70
-5.45
-5.93
-6.16
-6.37
-6.86
-7.73
-8.88
-9.95
-10.49
-10.14
-8.81
-6.74
-4.38
-2.23
-0.65
0.29
0.79
1.16
1.70
2.45
3.29
4.00
4.41
4.54
4.56
4.69
5.04
5.52
5.88
5.88
5.43
4.72
4.06
3.76
3.99
4.59
5.25
5.67
5.67
5.34
4.94
4.72
4.74
4.77
4.44
3.48
1.89
0.07
-1.40
-2.04
-1.77
-0.97
-0.29
-0.24
-0.96
-2.16
-3.34
-4.09
-4.32
-4.29
-4.38
-4.89
-5.84
-7.06
-8.26
-9.26
-9.94
-10.31
-10.38
-10.12
-9.43
-8.21
-6.44
-4.27
-1.95
0.15
1.74
2.68
3.03
3.04
3.03
3.24
3.76
4.45
5.08
5.43
5.40
5.06
4.67
4.47
4.62
5.04
5.52
5.80
5.76
5.47
5.14
4.99
5.09
5.33
5.51
5.46
5.11
4.58
4.01
3.55
3.22
2.92
2.51
1.91
1.16
0.39
-0.24
-0.63
-0.79
-0.86
-1.04
-1.50
-2.27
-3.23
-4.19
-4.96
-5.45
-5.78
-6.13
-6.71
-7.63
-8.80
-9.99
-10.90
-11.23
-10.87
-9.86
-8.36
-6.60
-4.74
-2.87
-1.00
0.85
2.55
3.91
4.72
4.93
4.67
4.26
4.06
4.29
4.91
5.68
6.29
6.56
6.52
6.42
6.55
7.10
8.03
9.13
10.14
10.83
11.17
11.26
11.27
11.38
11.65
12.08
12.57
13.05
13.46
13.82
14.18
14.60
15.12
15.74
16.46
17.26
18.14
19.10
20.16
21.33
22.55
23.78
24.99
26.23
27.66
29.42
31.58
33.98
36.18
37.56
37.57
35.90
32.67
28.38
23.76
19.43
15.72
12.58
9.65
6.47
2.61
-2.10
-7.65
-13.82
-20.29
-26.72
-32.81
-38.35
-43.23
-47.41
-50.83
-53.40
-54.97
-55.41
-54.69
-52.94
-50.40
-47.35
-43.99
-40.44
-36.77
-33.08
-29.54
-26.36
-23.69
-21.48
-19.51
-17.50
-15.29
-12.92
-10.67
-8.88
-7.79
-7.40
-7.56
-8.05
-8.71
-9.50
-10.43
-11.43
-12.28
-12.70
-12.52
-11.76
-10.75
-9.97
-9.84
-10.52
-11.86
-13.52
-15.10
-16.28
-16.90
-16.87
-16.10
-14.48
-11.91
-8.41
-4.21
0.27
4.50
7.98
10.44
11.85
12.45
12.62
12.74
13.05
13.63
14.32
14.95
15.30
15.31
15.01
14.50
13.89
13.26
12.64
12.09
11.66
11.41
11.37
11.53
11.79
12.00
11.95
11.51
10.63
9.43
8.06
6.75
5.68
4.90
4.34
3.83
3.22
2.47
1.66
0.98
0.56
0.39
0.28
-0.04
-0.78
-1.96
-3.33
-4.59
-5.43
-5.85
-6.02
-6.27
-6.85
-7.80
-8.97
-10.06
-10.80
-11.09
-10.93
-10.42
-9.65
-8.61
-7.24
-5.48
-3.39
-1.19
0.79
2.25
3.07
3.34
3.40
3.58
4.06
4.78
5.46
5.79
5.59
4.96
4.18
3.57
3.34
3.41
3.57
3.56
3.29
2.86
2.51
2.41
2.53
2.65
2.48
1.79
0.62
-0.79
-2.13
-3.16
-3.85
-4.39
-5.02
-5.95
-7.20
-8.62
-9.99
-11.15
-12.03
-12.73
-13.40
-14.10
-14.77
-15.19
-15.09
-14.26
-12.66
-10.50
-8.15
-5.99
-4.27
-3.00
-1.96
-0.81
0.74
2.75
5.06
7.36
9.35
10.93
12.20
13.38
14.60
15.75
16.53
16.64
15.99
14.82
13.62
12.85
12.71
13.03
13.35
13.24
12.51
11.30
10.01
9.05
8.67
8.83
9.24
9.60
9.68
9.43
9.00
8.57
8.22
7.88
7.35
6.42
5.08
3.48
1.98
0.86
0.30
0.15
0.14
-0.02
-0.46
-1.14
-1.82
-2.30
-2.51
-2.57
-2.73
-3.19
-4.04
-5.13
-6.21
-7.07
-7.65
-8.10
-8.64
-9.43
-10.36
-11.12
-11.31
-10.60
-8.97
-6.69
-4.22
-2.02
-0.42
0.55
1.10
1.54
2.16
3.03
4.02
4.84
5.30
5.36
5.24
5.22
5.49
5.98
6.42
6.50
6.12
5.46
4.93
4.90
5.51
6.52
7.49
7.99
7.82
7.08
6.08
5.19
4.65
4.44
4.36
4.17
3.65
2.81
1.83
0.98
0.48
0.38
0.54
0.66
0.47
-0.13
-1.04
-1.94
-2.59
-2.94
-3.19
-3.67
-4.56
-5.80
-7.04
-7.90
-8.22
-8.18
-8.19
-8.66
-9.65
-10.85
-11.68
-11.64
-10.47
-8.37
-5.80
-3.31
-1.28
0.14
1.06
1.72
2.33
2.97
3.57
4.02
4.20
4.16
4.06
4.10
4.39
4.84
5.20
5.27
4.99
4.55
4.24
4.36
4.97
5.86
6.68
7.08
6.92
6.32
5.55
4.92
4.61
4.57
4.59
4.47
4.07
3.44
2.74
2.14
1.75
1.53
1.34
1.05
0.58
-0.02
-0.68
-1.30
-1.82
-2.29
-2.79
-3.40
-4.11
-4.81
-5.35
-5.64
-5.69
-5.70
-5.96
-6.73
-8.05
-9.72
-11.28
-12.22
-12.16
-11.03
-9.03
-6.54
-3.94
-1.53
0.57
2.31
3.65
4.49
4.72
4.37
3.64
2.92
2.64
3.04
4.05
5.29
6.24
6.49
5.98
5.01
4.10
3.70
4.00
4.83
5.78
6.43
6.53
6.12
5.44
4.76
4.32
4.09
3.94
3.69
3.24
2.66
2.11
1.73
1.59
1.58
1.54
1.30
0.82
0.20
-0.41
-0.89
-1.24
-1.62
-2.20
-3.07
-4.14
-5.15
-5.80
-5.93
-5.60
-5.14
-5.00
-5.51
-6.76
-8.44
-10.01
-10.90
-10.73
-9.50
-7.53
-5.33
-3.32
-1.70
-0.42
0.68
1.75
2.75
3.50
3.83
3.70
3.31
2.98
3.01
3.52
4.36
5.22
5.74
5.79
5.40
4.83
4.35
4.15
4.23
4.49
4.81
5.03
5.12
5.05
4.87
4.61
4.25
3.74
3.04
2.13
1.09
0.10
-0.66
-1.01
-0.94
-0.59
-0.20
-0.04
-0.22
-0.71
-1.36
-2.02
-2.67
-3.38
-4.25
-5.29
-6.33
-7.14
-7.51
-7.42
-7.20
-7.27
-8.01
-9.44
-11.16
-12.51
-12.89
-12.01
-10.05
-7.52
-5.00
-2.90
-1.34
-0.17
0.85
1.87
2.89
3.75
4.32
4.53
4.47
4.31
4.22
4.30
4.47
4.62
4.56
4.25
3.76
3.28
3.07
3.25
3.80
4.53
5.16
5.46
5.37
4.98
4.49
4.05
3.68
3.23
2.55
1.62
0.60
-0.21
-0.54
-0.34
0.15
0.55
0.50
-0.11
-1.11
-2.15
-2.90
-3.21
-3.27
-3.44
-4.07
-5.27
-6.86
-8.41
-9.50
-9.87
-9.58
-8.85
-7.93
-6.92
-5.70
-4.13
-2.18
-0.04
1.93
3.36
4.11
4.30
4.21
4.13
4.22
4.46
4.74
4.88
4.83
4.59
4.27
4.03
4.01
4.30
4.81
5.34
5.64
5.52
4.97
4.20
3.50
3.13
3.13
3.34
3.49
3.40
3.03
2.59
2.30
2.28
2.43
2.45
2.07
1.15
-0.16
-1.53
-2.63
-3.28
-3.55
-3.68
-3.92
-4.39
-5.04
-5.72
-6.36
-6.97
-7.72
-8.73
-9.99
-11.27
-12.18
-12.33
-11.50
-9.75
-7.43
-5.05
-3.05
-1.65
-0.79
-0.20
0.39
1.18
2.16
3.19
4.09
4.71
5.04
5.11
5.02
4.84
4.60
4.31
3.99
3.67
3.45
3.47
3.82
4.48
5.27
5.88
6.04
5.62
4.77
3.86
3.25
3.15
3.49
3.92
4.07
3.71
2.88
1.84
0.92
0.36
0.13
0.06
-0.13
-0.60
-1.37
-2.29
-3.16
-3.81
-4.23
-4.54
-4.89
-5.37
-6.00
-6.70
-7.40
-8.10
-8.87
-9.76
-10.68
-11.40
-11.60
-10.99
-9.49
-7.27
-4.71
-2.25
-0.24
1.19
2.10
2.68
3.14
3.63
4.15
4.61
4.87
4.86
4.61
4.24
3.94
3.82
3.87
3.98
4.01
3.89
3.73
3.73
4.08
4.81
5.71
6.44
6.66
6.26
5.40
4.42
3.65
3.27
3.16
3.07
2.74
2.06
1.14
0.23
-0.46
-0.84
-1.00
-1.14
-1.45
-1.98
-2.62
-3.18
-3.48
-3.51
-3.46
-3.66
-4.40
-5.76
-7.56
-9.38
-10.72
-11.22
-10.78
-9.53
-7.77
-5.80
-3.83
-1.99
-0.33
1.11
2.23
2.96
3.29
3.30
3.18
3.15
3.37
3.88
4.51
5.05
5.30
5.17
4.78
4.37
4.15
4.29
4.71
5.22
5.60
5.65
5.35
4.83
4.34
4.09
4.15
4.42
4.61
4.47
3.84
2.82
1.67
0.72
0.14
-0.06
-0.07
-0.12
-0.32
-0.68
-1.09
-1.47
-1.85
-2.34
-3.03
-3.90
-4.82
-5.58
-6.07
-6.35
-6.69
-7.41
-8.64
-10.22
-11.67
-12.36
-11.83
-9.98
-7.16
-4.02
-1.21
0.82
1.97
2.48
2.69
2.96
3.37
3.87
4.26
4.40
4.30
4.15
4.18
4.55
5.14
5.62
5.64
5.07
4.09
3.17
2.80
3.20
4.20
5.34
6.12
6.25
5.79
5.05
4.44
4.15
4.16
4.22
4.09
3.60
2.81
1.93
1.16
0.64
0.30
-0.06
-0.60
-1.42
-2.40
-3.32
-3.93
-4.15
-4.08
-3.97
-4.06
-4.48
-5.19
-6.02
-6.81
-7.50
-8.12
-8.74
-9.38
-9.92
-10.14
-9.79
-8.70
-6.93
-4.77
-2.68
-1.08
-0.18
0.11
0.18
0.47
1.31
2.64
4.13
5.31
5.84
5.71
5.20
4.72
4.55
4.69
4.92
5.02
4.86
4.57
4.40
4.54
5.03
5.63
6.06
6.09
5.71
5.09
4.50
4.10
3.91
3.77
3.49
2.93
2.12
1.22
0.45
-0.03
-0.20
-0.20
-0.25
-0.55
-1.18
-2.06
-2.99
-3.74
-4.19
-4.37
-4.45
-4.64
-5.07
-5.74
-6.50
-7.23
-7.82
-8.27
-8.62
-8.80
-8.66
-7.98
-6.61
-4.63
-2.30
-0.07
1.66
2.68
3.07
3.08
3.02
3.12
3.44
3.84
4.15
4.20
3.96
3.56
3.24
3.23
3.63
4.34
5.07
5.53
5.51
5.06
4.42
3.85
3.57
3.55
3.60
3.49
3.11
2.51
1.91
1.55
1.50
1.68
1.83
1.71
1.24
0.51
-0.24
-0.79
-1.03
-1.10
-1.22
-1.61
-2.34
-3.27
-4.11
-4.61
-4.67
-4.42
-4.15
-4.16
-4.64
-5.56
-6.76
-7.99
-9.06
-9.85
-10.26
-10.22
-9.63
-8.47
-6.80
-4.81
-2.75
-0.89
0.58
1.59
2.18
2.51
2.73
3.00
3.40
3.86
4.23
4.38
4.23
3.88
3.50
3.30
3.38
3.66
3.97
4.15
4.14
3.99
3.87
3.92
4.15
4.42
4.55
4.34
3.77
2.95
2.16
1.65
1.56
1.79
2.08
2.09
1.60
0.66
-0.45
-1.34
-1.72
-1.54
-1.06
-0.68
-0.71
-1.20
-1.93
-2.55
-2.79
-2.68
-2.47
-2.51
-3.04
-4.05
-5.30
-6.47
-7.35
-7.95
-8.38
-8.78
-9.16
-9.30
-8.92
-7.81
-6.00
-3.81
-1.68
-0.03
0.96
1.42
1.66
1.99
2.57
3.34
4.06
4.48
4.46
4.08
3.58
3.21
3.16
3.41
3.79
4.09
4.17
4.08
4.01
4.15
4.56
5.08
5.45
5.43
4.96
4.20
3.44
2.93
2.73
2.72
2.65
2.32
1.70
0.91
0.19
-0.29
-0.46
-0.46
-0.54
-0.91
-1.68
-2.73
-3.78
-4.56
-4.88
-4.77
-4.47
-4.24
-4.33
-4.83
-5.68
-6.71
-7.72
-8.54
-9.03
-9.12
-8.77
-7.98
-6.80
-5.30
-3.59
-1.84
-0.24
1.04
1.90
2.39
2.65
2.91
3.30
3.85
4.38
4.69
4.59
4.09
3.40
2.80
2.52
2.59
2.88
3.19
3.42
3.62
3.94
4.48
5.19
5.83
6.09
5.75
4.84
3.62
2.45
1.67
1.40
1.52
1.79
1.91
1.73
1.21
0.51
-0.22
-0.80
-1.17
-1.41
-1.62
-1.92
-2.33
-2.81
-3.24
-3.57
-3.83
-4.14
-4.62
-5.31
-6.13
-6.92
-7.57
-8.05
-8.45
-8.89
-9.38
-9.76
-9.77
-9.15
-7.77
-5.78
-3.55
-1.57
-0.23
0.33
0.27
-0.01
-0.08
0.34
1.24
2.36
3.30
3.82
3.89
3.72
3.59
3.64
3.83
3.94
3.83
3.51
3.20
3.17
3.61
4.46
5.40
6.04
6.10
5.55
4.62
3.71
3.15
3.10
3.42
3.83
4.01
3.76
3.11
2.24
1.41
0.80
0.42
0.16
-0.14
-0.59
-1.15
-1.74
-2.25
-2.64
-2.97
-3.34
-3.82
-4.42
-5.08
-5.74
-6.36
-6.95
-7.59
-8.35
-9.21
-10.03
-10.58
-10.57
-9.83
-8.36
-6.37
-4.21
-2.22
-0.62
0.57
1.45
2.18
2.88
3.52
3.99
4.15
3.94
3.49
3.04
2.87
3.15
3.84
4.69
5.39
5.68
5.58
5.29
5.10
5.21
5.58
5.99
6.17
5.95
5.41
4.78
4.32
4.14
4.17
4.19
3.98
3.47
2.78
2.14
1.73
1.59
1.55
1.35
0.78
-0.18
-1.37
-2.52
-3.43
-4.07
-4.52
-4.95
-5.48
-6.12
-6.83
-7.55
-8.26
-8.97
-9.71
-10.41
-10.93
-11.09
-10.70
-9.68
-8.05
-5.99
-3.81
-1.86
-0.41
0.45
0.88
1.17
1.65
2.50
3.61
4.71
5.49
5.76
5.56
5.14
4.79
4.72
4.91
5.19
5.36
5.33
5.21
5.22
5.56
6.25
7.08
7.68
7.76
7.21
6.24
5.19
4.45
4.14
4.13
4.07
3.61
2.61
1.26
-0.06
-0.95
-1.18
-0.85
-0.31
0.06
-0.01
-0.51
-1.25
-1.96
-2.51
-2.92
-3.38
-4.06
-5.00
-6.11
-7.19
-8.06
-8.67
-9.13
-9.60
-10.22
-10.93
-11.48
-11.53
-10.82
-9.30
-7.23
-5.02
-3.09
-1.64
-0.65
0.09
0.84
1.71
2.63
3.42
3.90
4.06
4.00
3.95
4.09
4.48
4.99
5.44
5.64
5.52
5.22
4.95
4.93
5.26
5.85
6.48
6.89
6.91
6.59
6.10
5.69
5.51
5.51
5.47
5.17
4.49
3.54
2.54
1.77
1.35
1.20
1.09
0.81
0.24
-0.58
-1.49
-2.29
-2.88
-3.28
-3.57
-3.89
-4.34
-4.94
-5.65
-6.41
-7.21
-8.12
-9.22
-10.48
-11.71
-12.52
-12.48
-11.33
-9.12
-6.23
-3.25
-0.72
1.07
2.15
2.74
3.17
3.61
4.10
4.53
4.77
4.75
4.55
4.33
4.23
4.34
4.61
4.90
5.11
5.23
5.36
5.68
6.25
7.03
7.80
8.33
8.44
8.12
7.48
6.74
6.11
5.70
5.49
5.35
5.11
4.61
3.79
2.70
1.51
0.42
-0.43
-1.00
-1.38
-1.71
-2.11
-2.60
-3.12
-3.57
-3.93
-4.26
-4.68
-5.34
-6.26
-7.39
-8.59
-9.71
-10.70
-11.57
-12.31
-12.84
-12.94
-12.36
-10.93
-8.71
-6.00
-3.23
-0.85
0.87
1.91
2.47
2.85
3.29
3.86
4.47
4.91
5.07
4.93
4.68
4.52
4.59
4.84
5.07
5.06
4.78
4.39
4.21
4.51
5.32
6.32
7.06
7.17
6.55
5.48
4.42
3.79
3.71
3.94
4.08
3.78
2.95
1.86
0.93
0.48
0.60
0.98
1.20
0.90
-0.02
-1.34
-2.69
-3.73
-4.28
-4.43
-4.41
-4.47
-4.79
-5.40
-6.27
-7.31
-8.44
-9.59
-10.65
-11.45
-11.78
-11.40
-10.19
-8.17
-5.59
-2.93
-0.69
0.78
1.42
1.54
1.60
2.05
3.04
4.38
5.63
6.38
6.45
6.01
5.45
5.14
5.25
5.63
5.94
5.90
5.46
4.86
4.50
4.66
5.39
6.35
7.08
7.23
6.76
5.92
5.07
4.52
4.29
4.15
3.78
3.00
1.83
0.54
-0.54
-1.19
-1.38
-1.32
-1.29
-1.52
-2.09
-2.89
-3.70
-4.33
-4.70
-4.92
-5.26
-6.00
-7.26
-8.94
-10.68
-12.05
-12.62
-12.24
-10.99
-9.18
-7.16
-5.19
-3.37
-1.68
-0.10
1.31
2.47
3.29
3.81
4.17
4.52
4.97
5.55
6.11
6.49
6.59
6.37
5.97
5.57
5.34
5.39
5.65
5.98
6.20
6.21
6.03
5.78
5.56
5.45
5.37
5.21
4.90
4.46
4.04
3.77
3.70
3.72
3.63
3.22
2.42
1.32
0.11
-0.99
-1.82
-2.32
-2.59
-2.83
-3.18
-3.76
-4.50
-5.24
-5.81
-6.10
-6.21
-6.36
-6.82
-7.78
-9.17
-10.76
-12.16
-13.03
-13.16
-12.56
-11.36
-9.73
-7.84
-5.76
-3.58
-1.41
0.57
2.15
3.17
3.63
3.66
3.52
3.49
3.72
4.18
4.70
5.10
5.27
5.28
5.28
5.45
5.83
6.29
6.55
6.37
5.68
4.68
3.78
3.35
3.56
4.25
5.00
5.39
5.21
4.54
3.70
3.03
2.69
2.60
2.51
2.16
1.48
0.61
-0.19
-0.68
-0.80
-0.73
-0.75
-1.10
-1.87
-2.90
-3.87
-4.47
-4.56
-4.28
-3.97
-4.04
-4.74
-6.06
-7.74
-9.40
-10.67
-11.37
-11.42
-10.89
-9.83
-8.28
-6.30
-4.00
-1.61
0.56
2.23
3.26
3.67
3.67
3.58
3.62
3.92
4.35
4.72
4.79
4.48
3.94
3.46
3.36
3.75
4.50
5.28
5.79
5.88
5.66
5.39
5.30
5.48
5.77
5.96
5.82
5.29
4.48
3.63
2.96
2.63
2.59
2.69
2.66
2.33
1.64
0.71
-0.25
-1.03
-1.62
-2.08
-2.59
-3.24
-3.97
-4.63
-5.03
-5.15
-5.15
-5.29
-5.81
-6.78
-8.08
-9.46
-10.64
-11.43
-11.78
-11.67
-11.10
-10.06
-8.52
-6.52
-4.22
-1.88
0.17
1.65
2.44
2.61
2.45
2.33
2.57
3.27
4.27
5.26
5.86
5.87
5.36
4.60
3.98
3.78
4.05
4.63
5.24
5.67
5.84
5.86
5.89
6.04
6.23
6.33
6.17
5.70
5.02
4.33
3.79
3.51
3.38
3.24
2.91
2.32
1.55
0.78
0.17
-0.12
-0.13
0.02
0.11
-0.01
-0.41
-0.99
-1.63
-2.21
-2.79
-3.51
-4.47
-5.68
-6.92
-7.94
-8.56
-8.84
-9.09
-9.66
-10.71
-12.06
-13.22
-13.60
-12.82
-10.88
-8.19
-5.34
-2.84
-0.96
0.32
1.20
1.93
2.66
3.36
3.92
4.22
4.24
4.11
3.99
4.01
4.21
4.49
4.71
4.77
4.68
4.59
4.69
5.08
5.73
6.41
6.86
6.86
6.39
5.67
4.97
4.57
4.52
4.68
4.79
4.61
4.07
3.26
2.38
1.59
0.98
0.48
0.01
-0.54
-1.15
-1.79
-2.40
-2.93
-3.35
-3.71
-4.02
-4.36
-4.78
-5.30
-5.91
-6.57
-7.22
-7.93
-8.76
-9.74
-10.77
-11.53
-11.62
-10.69
-8.68
-5.96
-3.16
-0.91
0.44
0.99
1.18
1.54
2.38
3.56
4.68
5.26
5.04
4.22
3.27
2.74
2.93
3.75
4.77
5.51
5.69
5.41
5.02
4.95
5.37
6.11
6.81
7.06
6.73
5.98
5.22
4.82
4.95
5.46
5.93
5.96
5.32
4.10
2.66
1.40
0.58
0.21
0.05
-0.15
-0.56
-1.12
-1.66
-2.00
-2.11
-2.12
-2.26
-2.71
-3.50
-4.49
-5.41
-6.07
-6.39
-6.58
-6.88
-7.57
-8.70
-10.08
-11.31
-11.96
-11.78
-10.82
-9.35
-7.75
-6.25
-4.91
-3.60
-2.18
-0.61
0.93
2.20
2.97
3.22
3.15
3.09
3.28
3.81
4.47
4.96
5.04
4.67
4.06
3.56
3.45
3.85
4.58
5.37
5.98
6.31
6.45
6.53
6.64
6.72
6.57
6.00
4.99
3.73
2.54
1.79
1.64
1.98
2.47
2.72
2.46
1.70
0.68
-0.25
-0.81
-0.92
-0.75
-0.59
-0.69
-1.18
-1.95
-2.81
-3.57
-4.12
-4.52
-4.94
-5.54
-6.41
-7.49
-8.65
-9.74
-10.65
-11.32
-11.68
-11.63
-11.05
-9.83
-7.98
-5.66
-3.16
-0.87
0.89
1.95
2.36
2.37
2.31
2.48
3.02
3.84
4.70
5.29
5.43
5.14
4.60
4.11
3.94
4.16
4.69
5.31
5.83
6.16
6.32
6.39
6.44
6.38
6.08
5.43
4.44
3.32
2.38
1.91
2.00
2.47
3.02
3.31
3.14
2.54
1.68
0.80
0.08
-0.41
-0.75
-1.07
-1.52
-2.16
-2.93
-3.72
-4.40
-4.97
-5.51
-6.19
-7.13
-8.31
-9.53
-10.54
-11.11
-11.18
-10.85
-10.28
-9.56
-8.66
-7.43
-5.74
-3.65
-1.40
0.58
1.95
2.60
2.74
2.80
3.15
3.96
5.02
5.92
6.24
5.86
4.96
3.96
3.28
3.16
3.54
4.17
4.75
5.10
5.22
5.28
5.43
5.74
6.10
6.28
6.08
5.43
4.48
3.56
2.99
2.93
3.28
3.73
3.96
3.77
3.17
2.36
1.57
0.94
0.48
0.09
-0.33
-0.83
-1.38
-1.93
-2.42
-2.83
-3.24
-3.73
-4.38
-5.18
-6.04
-6.84
-7.48
-7.95
-8.37
-8.93
-9.75
-10.81
-11.89
-12.58
-12.54
-11.53
-9.69
-7.37
-5.02
-3.03
-1.54
-0.46
0.44
1.34
2.24
3.00
3.44
3.52
3.37
3.26
3.47
4.06
4.88
5.61
5.94
5.77
5.27
4.76
4.56
4.83
5.45
6.11
6.53
6.53
6.18
5.69
5.32
5.20
5.25
5.26
4.99
4.32
3.35
2.31
1.46
1.00
0.90
0.98
1.01
0.79
0.28
-0.44
-1.21
-1.89
-2.46
-2.98
-3.58
-4.33
-5.16
-5.91
-6.35
-6.41
-6.19
-6.02
-6.27
-7.17
-8.64
-10.26
-11.43
-11.60
-10.57
-8.52
-5.98
-3.52
-1.55
-0.17
0.79
1.58
2.36
3.08
3.57
3.68
3.42
2.98
2.67
2.74
3.18
3.80
4.31
4.49
4.35
4.08
3.96
4.15
4.62
5.10
5.36
5.23
4.82
4.36
4.10
4.10
4.19
4.08
3.53
2.56
1.43
0.49
0.03
0.05
0.32
0.50
0.34
-0.22
-1.05
-1.89
-2.55
-2.95
-3.16
-3.36
-3.70
-4.24
-4.91
-5.53
-5.91
-6.00
-6.00
-6.29
-7.19
-8.76
-10.64
-12.14
-12.58
-11.58
-9.32
-6.43
-3.65
-1.53
-0.19
0.65
1.35
2.21
3.23
4.20
4.92
5.30
5.48
5.70
6.16
6.89
7.65
8.11
8.04
7.40
6.45
5.59
5.14
5.26
5.76
6.34
6.66
6.57
6.14
5.56
5.07
4.81
4.76
4.76
4.62
4.18
3.43
2.47
1.50
0.70
0.16
-0.17
-0.40
-0.69
-1.08
-1.56
-2.04
-2.44
-2.78
-3.15
-3.67
-4.38
-5.20
-5.96
-6.54
-6.92
-7.26
-7.82
-8.78
-10.06
-11.34
-12.09
-11.86
-10.46
-8.13
-5.39
-2.87
-0.99
0.18
0.91
1.57
2.45
3.49
4.39
4.80
4.54
3.80
3.01
2.62
2.91
3.76
4.79
5.56
5.86
5.75
5.57
5.63
6.03
6.59
6.94
6.78
6.07
5.06
4.16
3.74
3.89
4.40
4.84
4.84
4.20
3.07
1.78
0.70
0.07
-0.13
-0.15
-0.30
-0.80
-1.66
-2.67
-3.55
-4.08
-4.29
-4.37
-4.60
-5.13
-5.93
-6.83
-7.61
-8.17
-8.58
-8.93
-9.29
-9.57
-9.50
-8.83
-7.45
-5.44
-3.17
-1.04
0.63
1.73
2.38
2.85
3.37
4.01
4.60
4.89
4.66
3.96
3.10
2.49
2.45
3.02
3.89
4.65
5.00
4.94
4.73
4.73
5.13
5.83
6.49
6.69
6.24
5.20
3.93
2.85
2.24
2.16
2.37
2.51
2.29
1.59
0.58
-0.40
-1.04
-1.24
-1.17
-1.23
-1.76
-2.89
-4.38
-5.79
-6.66
-6.83
-6.52
-6.19
-6.34
-7.19
-8.60
-10.18
-11.51
-12.29
-12.46
-12.14
-11.42
-10.37
-8.95
-7.11
-4.92
-2.59
-0.44
1.21
2.23
2.67
2.85
3.12
3.74
4.72
5.80
6.59
6.78
6.35
5.59
4.92
4.68
4.97
5.58
6.21
6.61
6.74
6.75
6.85
7.12
7.49
7.71
7.53
6.85
5.76
4.53
3.47
2.79
2.54
2.55
2.61
2.49
2.10
1.49
0.83
0.26
-0.12
-0.39
-0.69
-1.18
-1.93
-2.86
-3.78
-4.50
-4.93
-5.17
-5.46
-6.04
-7.06
-8.47
-10.01
-11.38
-12.32
-12.74
-12.69
-12.27
-11.50
-10.31
-8.59
-6.33
-3.68
-1.03
1.20
2.71
3.47
3.73
3.91
4.33
5.10
6.03
6.79
7.06
6.76
6.07
5.34
4.91
4.95
5.41
6.02
6.54
6.80
6.84
6.84
6.96
7.23
7.48
7.45
6.97
6.02
4.85
3.82
3.23
3.19
3.49
3.79
3.77
3.25
2.32
1.27
0.40
-0.08
-0.22
-0.26
-0.50
-1.13
-2.15
-3.32
-4.36
-5.06
-5.41
-5.62
-5.94
-6.54
-7.45
-8.53
-9.56
-10.34
-10.74
-10.68
-10.09
-8.95
-7.26
-5.14
-2.79
-0.50
1.45
2.84
3.59
3.81
3.75
3.73
4.00
4.63
5.47
6.21
6.54
6.33
5.68
4.90
4.32
4.16
4.40
4.85
5.30
5.63
5.87
6.10
6.41
6.72
6.85
6.60
5.87
4.78
3.62
2.67
2.15
2.02
2.07
2.00
1.61
0.88
-0.01
-0.78
-1.22
-1.31
-1.23
-1.24
-1.57
-2.30
-3.30
-4.34
-5.17
-5.67
-5.95
-6.24
-6.76
-7.65
-8.85
-10.19
-11.43
-12.41
-13.04
-13.29
-13.14
-12.51
-11.32
-9.52
-7.19
-4.56
-2.01
0.12
1.58
2.35
2.63
2.73
2.97
3.55
4.47
5.53
6.47
7.04
7.12
6.80
6.25
5.72
5.37
5.26
5.36
5.60
5.96
6.44
7.06
7.74
8.21
8.15
7.36
5.90
4.16
2.72
2.05
2.30
3.15
4.04
4.40
3.97
2.90
1.59
0.49
-0.14
-0.37
-0.45
-0.70
-1.26
-2.10
-3.05
-3.89
-4.50
-4.90
-5.21
-5.56
-6.03
-6.62
-7.30
-8.07
-8.95
-9.94
-10.94
-11.73
-12.02
-11.54
-10.17
-8.00
-5.34
-2.69
-0.52
0.85
1.36
1.27
0.99
0.99
1.54
2.62
3.90
4.98
5.54
5.53
5.16
4.81
4.78
5.13
5.71
6.24
6.48
6.41
6.16
5.98
6.04
6.28
6.47
6.30
5.61
4.50
3.33
2.52
2.34
2.73
3.32
3.64
3.36
2.50
1.36
0.38
-0.13
-0.18
-0.06
-0.14
-0.72
-1.76
-3.00
-4.09
-4.78
-5.13
-5.37
-5.81
-6.62
-7.77
-9.01
-10.10
-10.85
-11.28
-11.46
-11.41
-11.03
-10.12
-8.50
-6.23
-3.58
-1.03
0.97
2.16
2.58
2.55
2.49
2.76
3.49
4.52
5.51
6.13
6.19
5.75
5.05
4.39
4.01
3.92
4.01
4.13
4.18
4.18
4.27
4.56
5.08
5.67
6.07
6.05
5.55
4.71
3.84
3.27
3.13
3.33
3.55
3.48
2.97
2.11
1.20
0.51
0.19
0.14
0.10
-0.21
-0.92
-1.98
-3.14
-4.10
-4.65
-4.79
-4.67
-4.58
-4.76
-5.29
-6.08
-6.94
-7.68
-8.25
-8.77
-9.41
-10.24
-11.13
-11.76
-11.73
-10.78
-8.93
-6.50
-3.94
-1.66
0.14
1.50
2.58
3.55
4.37
4.90
4.97
4.57
3.90
3.31
3.11
3.39
3.98
4.55
4.81
4.68
4.34
4.12
4.29
4.89
5.71
6.37
6.56
6.16
5.30
4.25
3.36
2.84
2.71
2.84
2.99
2.94
2.60
2.05
1.44
0.94
0.62
0.41
0.20
-0.12
-0.54
-1.00
-1.39
-1.63
-1.83
-2.17
-2.79
-3.73
-4.82
-5.74
-6.26
-6.33
-6.19
-6.30
-7.08
-8.63
-10.63
-12.44
-13.37
-12.94
-11.20
-8.57
-5.69
-3.12
-1.09
0.45
1.71
2.89
3.98
4.81
5.19
5.08
4.67
4.27
4.17
4.46
4.97
5.39
5.44
5.04
4.38
3.83
3.70
4.12
4.92
5.77
6.29
6.29
5.83
5.17
4.61
4.32
4.21
4.03
3.53
2.66
1.61
0.72
0.30
0.42
0.84
1.19
1.11
0.50
-0.50
-1.56
-2.35
-2.73
-2.80
-2.85
-3.12
-3.71
-4.49
-5.16
-5.49
-5.42
-5.19
-5.25
-5.98
-7.50
-9.54
-11.55
-12.93
-13.25
-12.46
-10.82
-8.75
-6.63
-4.67
-2.87
-1.20
0.39
1.78
2.80
3.30
3.29
2.95
2.60
2.48
2.73
3.21
3.67
3.88
3.71
3.29
2.90
2.82
3.18
3.91
4.71
5.30
5.49
5.33
5.04
4.87
4.97
5.21
5.34
5.08
4.36
3.35
2.39
1.80
1.67
1.86
2.05
1.95
1.47
0.70
-0.09
-0.69
-0.98
-1.03
-1.07
-1.29
-1.82
-2.58
-3.38
-3.98
-4.24
-4.25
-4.23
-4.49
-5.23
-6.44
-7.91
-9.34
-10.46
-11.12
-11.33
-11.13
-10.56
-9.59
-8.13
-6.18
-3.86
-1.47
0.62
2.10
2.82
2.91
2.69
2.57
2.85
3.55
4.47
5.29
5.75
5.77
5.49
5.14
4.92
4.88
4.90
4.83
4.58
4.25
4.03
4.12
4.57
5.19
5.68
5.75
5.29
4.44
3.52
2.85
2.57
2.61
2.70
2.60
2.16
1.47
0.77
0.28
0.13
0.22
0.28
0.05
-0.64
-1.71
-2.90
-3.91
-4.57
-4.95
-5.32
-5.99
-7.12
-8.58
-10.06
-11.19
-11.83
-12.04
-12.07
-12.08
-12.06
-11.73
-10.76
-8.96
-6.44
-3.64
-1.11
0.71
1.68
1.97
1.98
2.11
2.61
3.43
4.35
5.08
5.39
5.28
4.92
4.58
4.46
4.61
4.91
5.17
5.22
5.08
4.92
4.93
5.24
5.75
6.23
6.39
6.11
5.45
4.68
4.08
3.82
3.81
3.86
3.74
3.37
2.85
2.38
2.12
2.12
2.18
2.05
1.53
0.60
-0.56
-1.65
-2.45
-2.87
-3.08
-3.36
-3.95
-4.92
-6.16
-7.42
-8.53
-9.40
-10.17
-10.99
-11.92
-12.83
-13.43
-13.36
-12.38
-10.49
-7.96
-5.23
-2.73
-0.74
0.68
1.65
2.35
2.97
3.54
4.06
4.45
4.66
4.73
4.72
4.74
4.82
4.98
5.15
5.30
5.43
5.59
5.83
6.20
6.70
7.20
7.56
7.61
7.28
6.63
5.88
5.28
5.03
5.11
5.32
5.33
4.88
3.94
2.71
1.54
0.74
0.37
0.29
0.23
-0.01
-0.46
-0.96
-1.34
-1.53
-1.66
-1.96
-2.61
-3.63
-4.82
-5.92
-6.71
-7.15
-7.46
-7.93
-8.77
-9.97
-11.23
-12.07
-12.07
-11.02
-9.05
-6.58
-4.14
-2.13
-0.71
0.20
0.85
1.47
2.14
2.82
3.36
3.69
3.87
4.07
4.44
5.04
5.72
6.24
6.38
6.07
5.49
4.95
4.77
5.10
5.84
6.72
7.42
7.73
7.61
7.18
6.62
6.08
5.60
5.10
4.50
3.80
3.12
2.62
2.44
2.58
2.84
2.92
2.58
1.75
0.61
-0.53
-1.38
-1.83
-2.00
-2.16
-2.56
-3.31
-4.34
-5.42
-6.34
-6.97
-7.37
-7.73
-8.27
-9.16
-10.38
-11.70
-12.81
-13.37
-13.20
-12.31
-10.84
-9.02
-7.01
-4.89
-2.75
-0.68
1.10
2.39
3.09
3.29
3.28
3.40
3.89
4.76
5.77
6.63
7.08
7.06
6.67
6.13
5.64
5.40
5.44
5.74
6.16
6.57
6.84
6.93
6.86
6.70
6.48
6.21
5.83
5.36
4.86
4.46
4.26
4.27
4.32
4.20
3.71
2.85
1.81
0.88
0.28
0.07
0.08
0.04
-0.27
-0.93
-1.83
-2.80
-3.65
-4.28
-4.72
-5.05
-5.43
-5.98
-6.78
-7.82
-9.02
-10.23
-11.30
-12.07
-12.40
-12.16
-11.24
-9.64
-7.47
-4.94
-2.43
-0.25
1.41
2.53
3.24
3.76
4.24
4.71
5.11
5.30
5.19
4.81
4.34
4.02
4.06
4.53
5.32
6.19
6.90
7.32
7.51
7.61
7.76
7.97
8.14
8.10
7.76
7.15
6.46
5.89
5.56
5.46
5.41
5.21
4.71
3.89
2.88
1.89
1.11
0.66
0.47
0.34
0.04
-0.61
-1.57
-2.63
-3.47
-3.88
-3.86
-3.64
-3.57
-3.93
-4.77
-5.94
-7.20
-8.36
-9.41
-10.51
-11.75
-13.07
-14.17
-14.64
-14.13
-12.52
-10.06
-7.20
-4.45
-2.21
-0.63
0.35
0.96
1.47
2.03
2.71
3.45
4.14
4.72
5.19
5.60
6.00
6.34
6.49
6.31
5.77
5.09
4.64
4.76
5.61
6.95
8.29
9.12
9.16
8.49
7.49
6.62
6.11
5.89
5.66
5.17
4.35
3.42
2.74
2.53
2.78
3.16
3.28
2.87
1.97
0.86
-0.08
-0.63
-0.82
-0.92
-1.26
-2.02
-3.13
-4.35
-5.37
-6.03
-6.31
-6.42
-6.58
-7.03
-7.85
-9.03
-10.43
-11.85
-13.08
-13.87
-14.04
-13.48
-12.17
-10.24
-7.90
-5.43
-3.08
-1.11
0.37
1.35
1.95
2.37
2.83
3.46
4.22
4.98
5.50
5.63
5.36
4.84
4.34
4.09
4.20
4.62
5.20
5.76
6.19
6.49
6.72
6.92
7.10
7.17
7.03
6.60
5.95
5.22
4.60
4.24
4.18
4.29
4.38
4.26
3.82
3.08
2.17
1.29
0.63
0.28
0.22
0.27
0.22
-0.08
-0.68
-1.45
-2.26
-3.04
-3.86
-4.84
-6.05
-7.36
-8.50
-9.24
-9.51
-9.53
-9.67
-10.21
-11.13
-12.03
-12.32
-11.56
-9.65
-6.96
-4.11
-1.71
-0.04
0.98
1.70
2.46
3.44
4.51
5.40
5.86
5.84
5.51
5.20
5.17
5.53
6.11
6.60
6.75
6.47
5.90
5.34
5.05
5.15
5.48
5.77
5.76
5.34
4.65
3.97
3.59
3.62
3.88
4.08
3.90
3.29
2.42
1.61
1.14
1.07
1.17
1.12
0.69
-0.12
-1.06
-1.77
-2.05
-1.94
-1.75
-1.87
-2.57
-3.85
-5.43
-6.92
-7.95
-8.39
-8.41
-8.38
-8.64
-9.39
-10.57
-11.83
-12.77
-13.04
-12.51
-11.31
-9.69
-7.90
-6.07
-4.21
-2.29
-0.36
1.39
2.72
3.44
3.57
3.38
3.26
3.52
4.21
5.06
5.66
5.68
5.08
4.15
3.35
3.11
3.60
4.63
5.81
6.72
7.13
7.04
6.68
6.31
6.07
5.90
5.62
5.04
4.13
3.08
2.17
1.68
1.65
1.87
1.98
1.68
0.90
-0.19
-1.18
-1.77
-1.84
-1.59
-1.42
-1.69
-2.58
-3.92
-5.35
-6.49
-7.12
-7.30
-7.33
-7.54
-8.16
-9.23
-10.58
-11.91
-12.89
-13.30
-13.01
-11.99
-10.36
-8.29
-5.97
-3.60
-1.36
0.59
2.13
3.20
3.84
4.22
4.58
5.12
5.89
6.74
7.40
7.62
7.33
6.71
6.08
5.74
5.87
6.36
6.96
7.42
7.55
7.39
7.10
6.88
6.83
6.89
6.85
6.50
5.73
4.66
3.51
2.56
1.94
1.61
1.38
0.99
0.34
-0.54
-1.45
-2.19
-2.65
-2.93
-3.20
-3.69
-4.45
-5.38
-6.25
-6.86
-7.12
-7.19
-7.33
-7.81
-8.72
-9.94
-11.17
-12.02
-12.21
-11.63
-10.35
-8.60
-6.64
-4.64
-2.72
-0.94
0.65
1.98
2.94
3.48
3.67
3.70
3.87
4.36
5.21
6.19
6.95
7.18
6.80
6.01
5.20
4.79
4.98
5.66
6.51
7.17
7.43
7.33
7.09
6.90
6.83
6.72
6.32
5.46
4.20
2.83
1.72
1.15
1.16
1.51
1.82
1.80
1.35
0.62
-0.09
-0.51
-0.58
-0.52
-0.69
-1.39
-2.65
-4.21
-5.60
-6.43
-6.57
-6.22
-5.83
-5.82
-6.46
-7.69
-9.23
-10.73
-11.89
-12.54
-12.64
-12.21
-11.28
-9.87
-8.04
-5.91
-3.62
-1.39
0.56
2.07
3.06
3.59
3.85
4.06
4.43
4.95
5.44
5.62
5.30
4.49
3.52
2.84
2.83
3.55
4.73
5.88
6.57
6.67
6.37
6.02
5.90
6.01
6.08
5.78
4.96
3.82
2.77
2.19
2.21
2.61
2.93
2.81
2.13
1.08
0.05
-0.69
-1.10
-1.40
-1.89
-2.76
-3.93
-5.10
-5.95
-6.31
-6.26
-6.20
-6.56
-7.64
-9.42
-11.49
-13.22
-14.03
-13.60
-12.07
-9.88
-7.55
-5.47
-3.75
-2.25
-0.78
0.75
2.22
3.44
4.22
4.54
4.56
4.48
4.51
4.67
4.88
4.97
4.86
4.57
4.23
4.03
4.14
4.59
5.24
5.91
6.33
6.40
6.13
5.72
5.40
5.30
5.36
5.40
5.18
4.57
3.62
2.56
1.66
1.10
0.87
0.80
0.68
0.35
-0.22
-0.98
-1.84
-2.72
-3.64
-4.58
-5.54
-6.45
-7.28
-8.03
-8.76
-9.55
-10.48
-11.49
-12.39
-12.91
-12.74
-11.72
-9.80
-7.18
-4.25
-1.48
0.74
2.20
2.99
3.39
3.70
4.13
4.68
5.17
5.46
5.50
5.42
5.40
5.57
5.94
6.34
6.59
6.62
6.50
6.40
6.54
6.99
7.72
8.50
9.00
8.95
8.24
6.99
5.57
4.39
3.78
3.76
4.09
4.41
4.42
4.03
3.36
2.60
1.86
1.06
0.10
-1.12
-2.46
-3.66
-4.47
-4.78
-4.75
-4.74
-5.09
-5.96
-7.25
-8.66
-9.86
-10.70
-11.20
-11.61
-12.08
-12.59
-12.89
-12.63
-11.50
-9.48
-6.84
-4.06
-1.65
0.08
1.07
1.56
1.88
2.34
3.11
4.15
5.24
6.17
6.76
6.98
6.94
6.81
6.72
6.68
6.66
6.57
6.43
6.33
6.39
6.69
7.22
7.75
8.07
7.95
7.35
6.43
5.50
4.89
4.75
4.99
5.24
5.12
4.38
3.08
1.60
0.40
-0.19
-0.16
0.19
0.43
0.23
-0.49
-1.56
-2.67
-3.57
-4.18
-4.59
-4.95
-5.40
-5.98
-6.63
-7.29
-7.93
-8.67
-9.64
-10.90
-12.30
-13.46
-13.90
-13.23
-11.37
-8.65
-5.68
-3.13
-1.37
-0.35
0.30
1.03
2.09
3.34
4.43
5.00
4.98
4.59
4.26
4.32
4.84
5.56
6.10
6.18
5.78
5.16
4.70
4.68
5.18
6.01
6.83
7.29
7.23
6.69
5.94
5.24
4.82
4.65
4.58
4.38
3.89
3.11
2.22
1.45
0.96
0.73
0.58
0.31
-0.22
-0.96
-1.77
-2.48
-2.99
-3.36
-3.70
-4.11
-4.65
-5.23
-5.80
-6.30
-6.78
-7.37
-8.20
-9.29
-10.51
-11.55
-11.99
-11.48
-9.90
-7.49
-4.77
-2.36
-0.65
0.33
0.86
1.38
2.14
3.10
3.97
4.46
4.45
4.13
3.83
3.83
4.19
4.70
5.05
5.04
4.64
4.08
3.63
3.48
3.72
4.20
4.74
5.15
5.32
5.28
5.15
5.09
5.14
5.20
5.05
4.44
3.30
1.81
0.35
-0.68
-1.04
-0.83
-0.39
-0.11
-0.22
-0.70
-1.37
-2.01
-2.53
-3.06
-3.77
-4.81
-6.12
-7.48
-8.62
-9.38
-9.76
-10.02
-10.44
-11.16
-12.02
-12.62
-12.44
-11.16
-8.82
-5.85
-2.88
-0.46
1.12
1.98
2.44
2.89
3.54
4.38
5.21
5.79
5.96
5.76
5.39
5.06
4.96
5.11
5.38
5.61
5.69
5.64
5.59
5.70
6.07
6.67
7.31
7.76
7.85
7.51
6.91
6.26
5.75
5.35
4.92
4.24
3.23
2.01
0.90
0.22
0.11
0.42
0.78
0.80
0.29
-0.68
-1.86
-2.95
-3.82
-4.51
-5.22
-6.07
-7.08
-8.08
-8.87
-9.38
-9.72
-10.18
-11.01
-12.22
-13.48
-14.22
-13.86
-12.13
-9.22
-5.77
-2.51
-0.05
1.43
2.11
2.39
2.66
3.16
3.85
4.58
5.11
5.33
5.25
5.01
4.77
4.64
4.62
4.67
4.72
4.76
4.87
5.14
5.62
6.29
6.95
7.42
7.56
7.32
6.79
6.15
5.59
5.18
4.85
4.43
3.76
2.77
1.59
0.48
-0.28
-0.51
-0.33
-0.02
0.04
-0.40
-1.32
-2.49
-3.54
-4.20
-4.44
-4.43
-4.47
-4.79
-5.48
-6.45
-7.55
-8.63
-9.65
-10.60
-11.45
-12.05
-12.16
-11.53
-10.05
-7.82
-5.20
-2.67
-0.61
0.75
1.50
1.90
2.32
2.98
3.87
4.76
5.39
5.59
5.39
5.01
4.70
4.59
4.66
4.75
4.72
4.53
4.33
4.34
4.71
5.43
6.30
6.98
7.21
6.87
6.07
5.06
4.12
3.48
3.12
2.88
2.54
1.94
1.12
0.27
-0.36
-0.57
-0.45
-0.30
-0.46
-1.16
-2.36
-3.71
-4.82
-5.42
-5.51
-5.36
-5.32
-5.59
-6.20
-7.00
-7.85
-8.68
-9.60
-10.67
-11.83
-12.85
-13.29
-12.78
-11.15
-8.52
-5.33
-2.17
0.42
2.12
2.96
3.29
3.51
4.00
4.83
5.80
6.54
6.79
6.51
5.95
5.48
5.39
5.66
6.04
6.21
6.02
5.58
5.24
5.31
5.86
6.64
7.24
7.31
6.77
5.84
4.92
4.35
4.23
4.42
4.58
4.43
3.84
2.91
1.88
0.99
0.36
-0.09
-0.55
-1.22
-2.19
-3.35
-4.49
-5.37
-5.88
-6.10
-6.26
-6.61
-7.30
-8.24
-9.23
-10.04
-10.59
-11.05
-11.72
-12.83
-14.41
-16.16
-17.58
-18.23
-17.85
-16.59
-14.83
-13.04
-11.59
-10.58
-9.94
-9.46
-9.00
-8.51
-8.07
-7.81
-7.78
-7.91
-7.98
-7.71
-6.88
-5.42
-3.46
-1.20
1.16
3.55
6.02
8.65
11.44
14.18
16.59
18.34
19.25
19.38
18.99
18.37
17.76
17.12
16.29
15.06
13.39
11.46
9.63
8.25
7.47
7.15
6.91
6.39
5.38
3.97
2.42
1.04
-0.01
-0.81
-1.60
-2.67
-4.14
-5.94
-7.76
-9.23
-10.03
-10.09
-9.55
-8.64
-7.53
-6.26
-4.75
-2.95
-0.90
1.15
2.84
3.90
4.26
4.13
3.87
3.83
4.18
4.80
5.36
5.55
5.26
4.65
4.06
3.85
4.20
4.96
5.80
6.36
6.49
6.27
5.94
5.74
5.75
5.80
5.66
5.14
4.27
3.26
2.39
1.88
1.78
1.87
1.84
1.40
0.47
-0.82
-2.14
-3.15
-3.62
-3.58
-3.28
-3.08
-3.29
-4.01
-5.12
-6.38
-7.57
-8.62
-9.64
-10.70
-11.78
-12.59
-12.72
-11.80
-9.73
-6.85
-3.78
-1.14
0.63
1.54
1.91
2.18
2.70
3.56
4.57
5.46
6.01
6.18
6.13
6.05
6.11
6.28
6.43
6.40
6.11
5.68
5.38
5.48
6.06
6.90
7.55
7.61
6.90
5.62
4.23
3.18
2.75
2.84
3.15
3.36
3.30
2.98
2.57
2.24
2.03
1.78
1.27
0.35
-0.99
-2.53
-3.94
-4.91
-5.28
-5.16
-4.89
-4.82
-5.16
-5.91
-6.87
-7.85
-8.72
-9.54
-10.40
-11.29
-12.04
-12.32
-11.81
-10.38
-8.13
-5.45
-2.87
-0.84
0.41
0.99
1.23
1.54
2.20
3.18
4.24
5.04
5.36
5.24
4.95
4.83
5.08
5.62
6.18
6.47
6.35
5.98
5.70
5.81
6.43
7.37
8.24
8.62
8.31
7.39
6.17
5.04
4.26
3.84
3.63
3.40
2.97
2.35
1.69
1.11
0.69
0.30
-0.26
-1.14
-2.35
-3.67
-4.76
-5.35
-5.37
-5.04
-4.75
-4.84
-5.43
-6.35
-7.26
-7.88
-8.15
-8.31
-8.71
-9.57
-10.80
-11.97
-12.52
-12.01
-10.32
-7.79
-4.96
-2.44
-0.53
0.74
1.64
2.49
3.50
4.60
5.56
6.12
6.18
5.84
5.40
5.14
5.21
5.50
5.75
5.69
5.22
4.52
3.92
3.79
4.30
5.30
6.38
7.03
6.93
6.11
4.92
3.91
3.49
3.73
4.35
4.90
4.99
4.54
3.75
2.91
2.21
1.58
0.81
-0.30
-1.71
-3.10
-4.07
-4.34
-3.93
-3.19
-2.62
-2.61
-3.28
-4.43
-5.69
-6.70
-7.37
-7.83
-8.39
-9.27
-10.49
-11.74
-12.57
-12.53
-11.43
-9.41
-6.91
-4.45
-2.43
-0.98
-0.01
0.75
1.55
2.46
3.42
4.28
4.93
5.36
5.70
6.09
6.58
7.04
7.27
7.09
6.48
5.66
4.96
4.65
4.87
5.46
6.14
6.61
6.73
6.54
6.19
5.84
5.53
5.21
4.75
4.12
3.37
2.67
2.16
1.90
1.83
1.73
1.41
0.78
-0.11
-1.02
-1.74
-2.12
-2.15
-2.00
-1.89
-2.01
-2.40
-2.98
-3.59
-4.09
-4.46
-4.84
-5.44
-6.42
-7.80
-9.36
-10.74
-11.56
-11.54
-10.66
-9.11
-7.21
-5.29
-3.53
-2.00
-0.66
0.54
1.59
2.44
3.02
3.35
3.51
3.67
3.99
4.53
5.19
5.72
5.87
5.53
4.81
4.04
3.61
3.79
4.53
5.54
6.41
6.82
6.69
6.17
5.56
5.07
4.73
4.46
4.09
3.57
2.96
2.41
2.07
1.95
1.92
1.76
1.32
0.61
-0.21
-0.89
-1.24
-1.27
-1.19
-1.26
-1.70
-2.53
-3.56
-4.51
-5.17
-5.50
-5.69
-6.03
-6.78
-8.01
-9.59
-11.16
-12.36
-12.90
-12.68
-11.79
-10.43
-8.75
-6.85
-4.75
-2.55
-0.38
1.50
2.85
3.56
3.71
3.54
3.36
3.42
3.77
4.29
4.74
4.90
4.73
4.34
4.02
4.02
4.48
5.27
6.12
6.68
6.78
6.44
5.92
5.51
5.38
5.50
5.66
5.63
5.30
4.72
4.10
3.66
3.50
3.48
3.38
2.95
2.07
0.85
-0.43
-1.43
-1.94
-1.97
-1.78
-1.70
-1.99
-2.69
-3.61
-4.46
-5.00
-5.16
-5.05
-4.92
-5.01
-5.42
-6.13
-6.97
-7.82
-8.61
-9.40
-10.22
-11.00
-11.49
-11.36
-10.33
-8.36
-5.78
-3.12
-0.94
0.44
1.07
1.32
1.61
2.20
3.04
3.85
4.31
4.29
3.91
3.51
3.44
3.88
4.69
5.55
6.10
6.14
5.73
5.16
4.76
4.75
5.06
5.45
5.62
5.37
4.74
3.97
3.35
3.05
3.01
2.99
2.71
2.04
1.09
0.15
-0.49
-0.66
-0.49
-0.26
-0.24
-0.58
-1.19
-1.84
-2.30
-2.51
-2.60
-2.78
-3.22
-3.94
-4.83
-5.69
-6.38
-6.89
-7.38
-8.07
-9.08
-10.34
-11.57
-12.35
-12.30
-11.25
-9.31
-6.83
-4.23
-1.89
0.00
1.46
2.57
3.42
4.03
4.29
4.14
3.65
3.02
2.51
2.37
2.66
3.21
3.71
3.89
3.67
3.22
2.84
2.78
3.12
3.68
4.18
4.39
4.25
3.90
3.60
3.55
3.78
4.10
4.22
3.91
3.11
2.01
0.94
0.22
-0.02
0.07
0.17
-0.05
-0.76
-1.85
-2.99
-3.86
-4.25
-4.26
-4.16
-4.30
-4.86
-5.83
-7.01
-8.14
-9.03
-9.66
-10.07
-10.28
-10.20
-9.62
-8.39
-6.49
-4.19
-1.94
-0.19
0.84
1.23
1.32
1.51
2.06
2.92
3.85
4.55
4.88
4.85
4.67
4.51
4.48
4.54
4.56
4.45
4.19
3.87
3.63
3.58
3.77
4.17
4.65
5.04
5.22
5.09
4.72
4.24
3.85
3.68
3.68
3.65
3.36
2.67
1.70
0.70
-0.00
-0.23
-0.06
0.24
0.33
0.00
-0.73
-1.69
-2.62
-3.33
-3.80
-4.14
-4.52
-5.08
-5.82
-6.63
-7.37
-7.90
-8.27
-8.64
-9.19
-9.98
-10.81
-11.33
-11.14
-10.02
-8.09
-5.74
-3.49
-1.73
-0.60
0.04
0.50
1.04
1.75
2.51
3.16
3.55
3.65
3.59
3.56
3.68
3.92
4.13
4.12
3.83
3.39
3.06
3.16
3.78
4.78
5.79
6.43
6.48
6.02
5.35
4.81
4.60
4.63
4.64
4.38
3.72
2.76
1.74
0.90
0.36
0.03
-0.27
-0.74
-1.46
-2.35
-3.21
-3.84
-4.11
-4.11
-4.02
-4.10
-4.52
-5.28
-6.24
-7.22
-8.08
-8.84
-9.61
-10.40
-11.06
-11.29
-10.75
-9.31
-7.11
-4.62
-2.33
-0.60
0.49
1.15
1.68
2.32
3.14
3.99
4.65
4.98
4.97
4.81
4.75
4.97
5.53
6.21
6.68
6.64
6.05
5.15
4.35
4.01
4.24
4.85
5.49
5.83
5.80
5.52
5.21
5.01
4.86
4.56
3.91
2.85
1.57
0.35
-0.49
-0.81
-0.64
-0.26
0.03
-0.02
-0.50
-1.31
-2.25
-3.11
-3.73
-4.10
-4.30
-4.42
-4.56
-4.80
-5.20
-5.80
-6.67
-7.84
-9.28
-10.85
-12.25
-13.15
-13.19
-12.20
-10.20
-7.47
-4.44
-1.62
0.61
2.05
2.78
3.02
3.12
3.31
3.71
4.25
4.82
5.29
5.65
5.93
6.16
6.28
6.20
5.83
5.22
4.59
4.25
4.42
5.09
6.00
6.76
7.06
6.84
6.30
5.76
5.46
5.45
5.55
5.45
4.93
3.94
2.64
1.36
0.40
-0.07
-0.12
0.02
0.07
-0.16
-0.67
-1.34
-2.01
-2.54
-2.92
-3.25
-3.64
-4.15
-4.78
-5.46
-6.16
-6.91
-7.82
-8.98
-10.37
-11.78
-12.82
-13.05
-12.15
-10.08
-7.19
-4.05
-1.28
0.70
1.82
2.33
2.62
3.02
3.62
4.28
4.76
4.88
4.68
4.36
4.16
4.22
4.44
4.59
4.42
3.88
3.14
2.56
2.48
3.01
3.94
4.89
5.46
5.46
4.99
4.34
3.85
3.67
3.73
3.80
3.66
3.24
2.67
2.18
1.94
1.97
2.06
1.96
1.43
0.45
-0.76
-1.86
-2.54
-2.70
-2.53
-2.42
-2.72
-3.60
-4.94
-6.44
-7.78
-8.83
-9.66
-10.44
-11.24
-11.90
-12.06
-11.36
-9.67
-7.20
-4.47
-2.07
-0.37
0.58
1.06
1.48
2.17
3.26
4.56
5.76
6.55
6.81
6.65
6.34
6.21
6.41
6.83
7.16
7.09
6.53
5.69
5.03
4.94
5.56
6.66
7.74
8.35
8.29
7.73
7.01
6.47
6.24
6.14
5.88
5.21
4.10
2.77
1.54
0.69
0.32
0.27
0.29
0.09
-0.45
-1.28
-2.18
-2.94
-3.38
-3.55
-3.63
-3.84
-4.37
-5.27
-6.48
-7.83
-9.20
-10.50
-11.68
-12.65
-13.25
-13.22
-12.38
-10.70
-8.38
-5.82
-3.42
-1.51
-0.15
0.80
1.63
2.55
3.65
4.81
5.76
6.29
6.30
5.91
5.38
4.98
4.91
5.14
5.50
5.79
5.92
5.95
6.04
6.33
6.83
7.36
7.65
7.51
6.91
6.08
5.33
4.90
4.82
4.91
4.86
4.45
3.67
2.72
1.90
1.48
1.51
1.83
2.12
2.07
1.52
0.51
-0.74
-1.94
-2.87
-3.50
-3.93
-4.31
-4.80
-5.39
-6.02
-6.57
-7.06
-7.63
-8.51
-9.83
-11.52
-13.25
-14.56
-14.97
-14.22
-12.35
-9.71
-6.76
-4.01
-1.77
-0.14
0.99
1.79
2.43
2.97
3.35
3.55
3.58
3.62
3.87
4.50
5.42
6.37
7.01
7.15
6.83
6.36
6.07
6.19
6.63
7.11
7.33
7.17
6.75
6.32
6.12
6.21
6.38
6.38
6.01
5.29
4.43
3.72
3.35
3.32
3.39
3.29
2.79
1.92
0.89
0.02
-0.45
-0.45
-0.19
-0.01
-0.23
-0.99
-2.17
-3.45
-4.51
-5.14
-5.41
-5.58
-5.99
-6.90
-8.33
-10.07
-11.72
-12.90
-13.32
-12.90
-11.76
-10.10
-8.13
-6.01
-3.85
-1.77
0.06
1.47
2.32
2.61
2.52
2.39
2.53
3.11
4.07
5.10
5.86
6.11
5.85
5.30
4.81
4.66
4.88
5.34
5.79
6.08
6.21
6.32
6.60
7.07
7.56
7.72
7.28
6.21
4.79
3.47
2.66
2.51
2.78
3.09
3.05
2.54
1.70
0.84
0.21
-0.11
-0.28
-0.52
-0.98
-1.68
-2.55
-3.43
-4.21
-4.79
-5.20
-5.49
-5.75
-6.10
-6.61
-7.30
-8.13
-9.00
-9.85
-10.65
-11.35
-11.87
-12.02
-11.52
-10.15
-7.85
-4.89
-1.78
0.89
2.66
3.44
3.47
3.21
3.07
3.27
3.75
4.32
4.77
5.05
5.19
5.31
5.45
5.56
5.54
5.30
4.87
4.39
4.06
4.04
4.39
4.99
5.59
5.89
5.71
5.07
4.19
3.39
2.94
2.86
2.94
2.91
2.54
1.85
1.10
0.55
0.35
0.41
0.44
0.16
-0.57
-1.64
-2.78
-3.68
-4.18
-4.34
-4.39
-4.57
-5.07
-5.86
-6.83
-7.83
-8.75
-9.58
-10.36
-11.08
-11.63
-11.77
-11.29
-10.05
-8.14
-5.84
-3.54
-1.56
-0.05
1.01
1.78
2.46
3.15
3.81
4.33
4.59
4.53
4.27
3.99
3.90
4.07
4.40
4.72
4.83
4.68
4.40
4.25
4.43
4.94
5.57
5.97
5.86
5.16
4.07
2.96
2.16
1.85
1.92
2.12
2.18
1.95
1.48
0.93
0.48
0.20
0.02
-0.21
-0.63
-1.27
-2.05
-2.78
-3.32
-3.62
-3.82
-4.13
-4.73
-5.64
-6.68
-7.61
-8.22
-8.50
-8.61
-8.79
-9.20
-9.73
-10.09
-9.89
-8.86
-7.00
-4.63
-2.24
-0.27
1.02
1.68
1.97
2.23
2.66
3.29
3.95
4.45
4.69
4.71
4.67
4.72
4.93
5.19
5.35
5.30
5.01
4.64
4.43
4.58
5.11
5.79
6.26
6.16
5.37
4.11
2.79
1.86
1.51
1.62
1.86
1.88
1.54
0.95
0.37
0.03
0.01
0.15
0.19
-0.07
-0.71
-1.61
-2.57
-3.39
-3.96
-4.37
-4.77
-5.31
-6.03
-6.81
-7.45
-7.80
-7.89
-7.96
-8.31
-9.09
-10.11
-10.91
-10.96
-9.89
-7.72
-4.89
-2.03
0.29
1.76
2.44
2.62
2.69
2.90
3.31
3.77
4.09
4.13
3.93
3.68
3.60
3.85
4.35
4.86
5.14
5.04
4.66
4.28
4.21
4.58
5.30
6.04
6.47
6.37
5.76
4.88
4.04
3.48
3.24
3.17
3.04
2.66
2.02
1.24
0.57
0.19
0.11
0.17
0.12
-0.20
-0.82
-1.61
-2.36
-2.94
-3.39
-3.89
-4.60
-5.54
-6.58
-7.52
-8.22
-8.71
-9.15
-9.69
-10.29
-10.72
-10.63
-9.71
-7.90
-5.41
-2.69
-0.21
1.69
2.88
3.49
3.81
4.13
4.62
5.21
5.69
5.80
5.44
4.72
3.96
3.48
3.51
3.96
4.56
5.02
5.14
4.99
4.78
4.79
5.14
5.73
6.31
6.58
6.40
5.80
5.01
4.31
3.90
3.74
3.65
3.39
2.83
2.03
1.21
0.60
0.35
0.40
0.54
0.53
0.18
-0.51
-1.38
-2.21
-2.82
-3.23
-3.58
-4.04
-4.74
-5.62
-6.51
-7.26
-7.80
-8.23
-8.71
-9.28
-9.81
-10.00
-9.52
-8.20
-6.12
-3.67
-1.29
0.65
1.98
2.77
3.21
3.53
3.82
3.96
3.76
3.05
1.90
0.65
-0.21
-0.28
0.54
1.90
3.24
4.04
4.08
3.57
2.97
2.68
2.85
3.29
3.63
3.59
3.07
2.27
1.45
0.87
0.61
0.54
0.45
0.10
-0.57
-1.48
-2.40
-3.06
-3.33
-3.26
-3.10
-3.16
-3.67
-4.64
-5.90
-7.12
-8.10
-8.75
-9.16
-9.46
-9.62
-9.50
-8.84
-7.46
-5.38
-2.91
-0.52
1.37
2.53
3.03
3.16
3.22
3.40
3.67
3.91
3.97
3.86
3.69
3.66
3.91
4.44
5.01
5.36
5.24
4.66
3.81
3.06
2.72
2.93
3.56
4.28
4.66
4.44
3.59
2.35
1.09
0.12
-0.42
-0.64
-0.76
-0.96
-1.31
-1.75
-2.19
-2.62
-3.22
-4.25
-5.84
-7.87
-9.91
-11.34
-11.65
-10.65
-8.58
-6.03
-3.64
-1.82
-0.62
0.21
1.03
2.06
3.25
4.34
5.05
5.22
4.93
4.43
3.96
3.70
3.58
3.48
3.29
2.96
2.59
2.31
2.21
2.33
2.59
2.86
3.03
3.01
2.84
2.53
2.17
1.81
1.40
0.88
0.18
-0.73
-1.76
-2.72
-3.44
-3.80
-3.96
-4.19
-4.86
-6.16
-8.01
-10.00
-11.54
-12.13
-11.55
-9.96
-7.75
-5.44
-3.36
-1.63
-0.19
1.10
2.27
3.27
3.98
4.37
4.54
4.67
4.92
5.36
5.83
6.11
6.00
5.48
4.74
4.07
3.75
3.95
4.58
5.39
6.09
6.45
6.45
6.21
5.95
5.79
5.67
5.39
4.70
3.57
2.18
0.90
0.10
-0.10
0.13
0.42
0.41
-0.06
-0.90
-1.82
-2.58
-3.09
-3.50
-4.01
-4.80
-5.90
-7.20
-8.51
-9.69
-10.70
-11.56
-12.30
-12.81
-12.86
-12.18
-10.61
-8.20
-5.26
-2.27
0.29
2.13
3.22
3.81
4.22
4.74
5.49
6.32
6.98
7.25
7.04
6.54
6.03
5.80
5.96
6.39
6.82
6.99
6.83
6.43
6.04
5.88
6.00
6.30
6.55
6.56
6.27
5.76
5.18
4.68
4.28
3.91
3.43
2.75
1.87
0.92
0.11
-0.42
-0.58
-0.49
-0.38
-0.50
-1.00
-1.84
-2.84
-3.70
-4.26
-4.50
-4.63
-4.91
-5.55
-6.61
-7.96
-9.42
-10.78
-11.88
-12.59
-12.78
-12.30
-11.03
-9.01
-6.41
-3.62
-1.10
0.78
1.86
2.24
2.25
2.27
2.59
3.31
4.27
5.18
5.75
5.86
5.60
5.23
5.03
5.16
5.54
5.95
6.17
6.09
5.84
5.64
5.66
5.98
6.43
6.75
6.73
6.32
5.67
5.03
4.63
4.53
4.62
4.63
4.35
3.69
2.78
1.90
1.31
1.11
1.19
1.25
1.02
0.39
-0.50
-1.38
-1.98
-2.20
-2.22
-2.35
-2.84
-3.80
-5.04
-6.26
-7.16
-7.66
-7.93
-8.27
-8.98
-10.13
-11.48
-12.60
-13.01
-12.39
-10.76
-8.41
-5.79
-3.34
-1.36
0.11
1.15
1.96
2.64
3.25
3.78
4.19
4.52
4.87
5.30
5.79
6.20
6.31
5.98
5.27
4.44
3.85
3.78
4.32
5.23
6.16
6.76
6.88
6.59
6.11
5.67
5.39
5.24
5.07
4.77
4.27
3.62
2.94
2.36
2.01
1.83
1.71
1.47
1.02
0.38
-0.27
-0.74
-0.90
-0.86
-0.91
-1.36
-2.37
-3.78
-5.20
-6.23
-6.60
-6.41
-6.02
-5.87
-6.26
-7.22
-8.56
-9.94
-11.07
-11.80
-12.09
-11.98
-11.47
-10.52
-9.06
-7.09
-4.73
-2.27
-0.06
1.57
2.48
2.80
2.86
3.01
3.50
4.26
5.01
5.42
5.31
4.77
4.16
3.88
4.15
4.90
5.79
6.43
6.57
6.23
5.68
5.27
5.23
5.48
5.78
5.82
5.44
4.70
3.86
3.20
2.85
2.67
2.42
1.89
1.06
0.10
-0.67
-1.05
-1.01
-0.79
-0.71
-1.06
-1.93
-3.20
-4.59
-5.79
-6.53
-6.80
-6.75
-6.66
-6.85
-7.50
-8.60
-9.95
-11.23
-12.14
-12.47
-12.11
-11.06
-9.40
-7.22
-4.70
-2.07
0.30
2.08
3.08
3.33
3.11
2.87
3.01
3.73
4.92
6.20
7.15
7.49
7.18
6.46
5.69
5.16
4.96
4.98
5.05
5.04
4.97
4.97
5.17
5.56
5.94
6.02
5.58
4.59
3.31
2.12
1.39
1.27
1.60
2.01
2.11
1.67
0.76
-0.30
-1.13
-1.49
-1.44
-1.35
-1.61
-2.48
-3.84
-5.29
-6.35
-6.76
-6.63
-6.36
-6.47
-7.26
-8.67
-10.33
-11.72
-12.44
-12.29
-11.37
-9.92
-8.22
-6.49
-4.83
-3.23
-1.66
-0.15
1.21
2.28
2.98
3.35
3.56
3.85
4.37
5.09
5.77
6.13
6.01
5.48
4.84
4.41
4.42
4.85
5.47
6.01
6.29
6.30
6.16
6.01
5.89
5.73
5.44
4.94
4.32
3.70
3.27
3.07
3.06
3.08
2.96
2.59
1.95
1.13
0.27
-0.47
-0.98
-1.32
-1.61
-2.05
-2.75
-3.69
-4.67
-5.46
-5.90
-6.08
-6.29
-6.88
-8.05
-9.72
-11.51
-12.91
-13.50
-13.10
-11.80
-9.89
-7.68
-5.43
-3.30
-1.35
0.38
1.80
2.82
3.38
3.50
3.31
3.02
2.86
2.98
3.38
3.93
4.46
4.81
4.93
4.90
4.86
4.97
5.29
5.73
6.15
6.40
6.43
6.32
6.22
6.23
6.32
6.33
6.06
5.38
4.38
3.27
2.30
1.68
1.36
1.19
0.95
0.48
-0.17
-0.84
-1.33
-1.57
-1.69
-1.96
-2.62
-3.69
-4.95
-5.96
-6.38
-6.17
-5.65
-5.38
-5.85
-7.22
-9.20
-11.19
-12.53
-12.77
-11.83
-9.97
-7.61
-5.19
-2.98
-1.08
0.53
1.96
3.20
4.17
4.77
4.95
4.76
4.45
4.29
4.45
4.87
5.30
5.44
5.12
4.45
3.79
3.54
3.94
4.93
6.17
7.23
7.73
7.60
6.97
6.17
5.49
5.06
4.87
4.76
4.58
4.27
3.86
3.46
3.15
2.90
2.58
2.07
1.31
0.38
-0.50
-1.13
-1.40
-1.38
-1.30
-1.43
-1.93
-2.77
-3.79
-4.72
-5.40
-5.85
-6.25
-6.84
-7.78
-9.06
-10.41
-11.48
-11.95
-11.69
-10.78
-9.44
-7.91
-6.30
-4.60
-2.77
-0.83
1.03
2.55
3.51
3.85
3.77
3.57
3.54
3.80
4.18
4.43
4.32
3.84
3.24
2.88
3.01
3.67
4.57
5.36
5.76
5.71
5.41
5.14
5.09
5.25
5.39
5.26
4.74
3.90
3.01
2.38
2.17
2.37
2.73
2.90
2.63
1.87
0.78
-0.32
-1.16
-1.60
-1.75
-1.87
-2.20
-2.91
-3.95
-5.11
-6.13
-6.82
-7.23
-7.57
-8.12
-9.09
-10.41
-11.79
-12.81
-13.12
-12.61
-11.40
-9.73
-7.86
-5.88
-3.84
-1.73
0.34
2.13
3.39
3.97
3.98
3.72
3.61
3.93
4.69
5.61
6.27
6.34
5.81
4.99
4.35
4.31
4.97
6.08
7.17
7.83
7.90
7.52
7.03
6.74
6.73
6.87
6.85
6.46
5.65
4.64
3.72
3.13
2.93
2.93
2.85
2.47
1.73
0.81
-0.04
-0.60
-0.85
-0.96
-1.19
-1.75
-2.66
-3.77
-4.82
-5.55
-5.90
-5.98
-6.02
-6.31
-7.01
-8.13
-9.48
-10.81
-11.81
-12.25
-12.02
-11.11
-9.63
-7.71
-5.52
-3.18
-0.85
1.28
2.97
4.02
4.40
4.29
4.02
3.95
4.31
5.03
5.82
6.34
6.33
5.84
5.13
4.57
4.45
4.78
5.41
6.05
6.48
6.66
6.71
6.80
7.00
7.16
7.02
6.32
5.08
3.58
2.29
1.60
1.66
2.26
2.97
3.37
3.22
2.58
1.68
0.79
0.07
-0.49
-0.99
-1.54
-2.16
-2.78
-3.29
-3.58
-3.69
-3.78
-4.07
-4.73
-5.79
-7.08
-8.32
-9.27
-9.86
-10.25
-10.71
-11.41
-12.29
-12.98
-12.97
-11.88
-9.69
-6.80
-3.91
-1.64
-0.29
0.26
0.47
0.83
1.61
2.71
3.79
4.48
4.62
4.35
3.96
3.78
3.97
4.43
4.95
5.35
5.58
5.76
6.09
6.71
7.56
8.41
8.89
8.75
7.96
6.78
5.61
4.85
4.64
4.86
5.14
5.10
4.55
3.55
2.40
1.44
0.89
0.71
0.66
0.47
-0.05
-0.86
-1.79
-2.60
-3.16
-3.56
-4.00
-4.68
-5.65
-6.76
-7.72
-8.30
-8.51
-8.62
-8.98
-9.82
-11.01
-12.09
-12.44
-11.61
-9.54
-6.63
-3.60
-1.13
0.41
1.08
1.29
1.56
2.24
3.26
4.31
4.96
4.98
4.46
3.78
3.37
3.47
4.00
4.64
5.07
5.16
5.07
5.10
5.52
6.33
7.22
7.78
7.67
6.84
5.61
4.41
3.65
3.49
3.75
4.12
4.27
4.06
3.58
3.01
2.54
2.25
2.05
1.77
1.25
0.46
-0.53
-1.52
-2.29
-2.72
-2.86
-2.90
-3.09
-3.60
-4.43
-5.43
-6.40
-7.24
-8.01
-8.87
-9.93
-11.07
-11.93
-12.09
-11.25
-9.43
-7.01
-4.55
-2.57
-1.28
-0.52
0.09
0.92
2.12
3.50
4.62
5.11
4.88
4.18
3.50
3.26
3.61
4.34
5.04
5.35
5.19
4.78
4.51
4.71
5.45
6.45
7.26
7.49
7.00
5.98
4.83
3.97
3.60
3.59
3.62
3.35
2.65
1.69
0.81
0.32
0.29
0.52
0.63
0.33
-0.42
-1.43
-2.34
-2.88
-3.00
-2.87
-2.80
-3.01
-3.57
-4.31
-5.01
-5.50
-5.76
-5.98
-6.45
-7.36
-8.69
-10.15
-11.28
-11.61
-10.88
-9.18
-6.89
-4.53
-2.53
-1.06
-0.02
0.84
1.72
2.63
3.41
3.85
3.87
3.55
3.14
2.85
2.83
3.02
3.27
3.46
3.57
3.72
4.06
4.70
5.55
6.41
6.99
7.11
6.74
6.04
5.28
4.71
4.42
4.32
4.19
3.84
3.18
2.35
1.53
0.94
0.62
0.43
0.16
-0.33
-1.02
-1.70
-2.12
-2.16
-1.89
-1.63
-1.72
-2.35
-3.46
-4.73
-5.81
-6.44
-6.60
-6.56
-6.67
-7.26
-8.44
-10.06
-11.70
-12.88
-13.16
-12.41
-10.77
-8.59
-6.26
-4.05
-2.03
-0.20
1.45
2.83
3.75
4.11
3.95
3.56
3.32
3.51
4.18
5.06
5.74
5.87
5.38
4.51
3.69
3.31
3.54
4.23
5.02
5.55
5.65
5.39
5.02
4.74
4.68
4.74
4.74
4.57
4.21
3.83
3.63
3.74
4.12
4.51
4.59
4.13
3.12
1.80
0.57
-0.24
-0.53
-0.53
-0.61
-1.14
-2.20
-3.56
-4.82
-5.65
-5.94
-5.90
-5.88
-6.17
-6.82
-7.68
-8.48
-9.07
-9.42
-9.67
-9.96
-10.28
-10.46
-10.21
-9.25
-7.51
-5.13
-2.50
-0.11
1.65
2.62
2.89
2.79
2.66
2.75
3.12
3.67
4.24
4.67
4.93
5.05
5.12
5.21
5.31
5.34
5.21
4.89
4.47
4.13
4.05
4.34
4.90
5.49
5.78
5.59
4.94
4.03
3.18
2.62
2.40
2.35
2.23
1.87
1.26
0.53
-0.11
-0.53
-0.75
-0.93
-1.24
-1.77
-2.44
-3.06
-3.45
-3.59
-3.61
-3.78
-4.30
-5.23
-6.40
-7.54
-8.41
-8.93
-9.25
-9.62
-10.18
-10.87
-11.33
-11.11
-9.88
-7.64
-4.77
-1.87
0.48
1.97
2.63
2.79
2.85
3.09
3.56
4.10
4.54
4.72
4.69
4.61
4.69
5.01
5.52
6.00
6.25
6.16
5.80
5.39
5.18
5.32
5.74
6.21
6.46
6.31
5.77
5.07
4.47
4.19
4.22
4.35
4.29
3.85
3.03
2.03
1.12
0.49
0.14
-0.07
-0.30
-0.62
-0.99
-1.28
-1.43
-1.47
-1.56
-1.91
-2.61
-3.59
-4.65
-5.52
-6.01
-6.14
-6.14
-6.34
-7.03
-8.33
-10.04
-11.76
-12.99
-13.35
-12.73
-11.27
-9.34
-7.30
-5.41
-3.75
-2.25
-0.79
0.62
1.89
2.83
3.31
3.37
3.23
3.21
3.53
4.19
4.95
5.48
5.54
5.15
4.56
4.14
4.15
4.61
5.30
5.95
6.34
6.48
6.55
6.74
7.10
7.43
7.40
6.75
5.51
3.99
2.67
1.95
1.94
2.39
2.88
3.05
2.76
2.17
1.56
1.18
1.07
1.08
0.96
0.57
-0.09
-0.89
-1.63
-2.24
-2.74
-3.26
-3.97
-4.89
-5.92
-6.84
-7.42
-7.61
-7.54
-7.51
-7.84
-8.69
-9.99
-11.38
-12.37
-12.55
-11.72
-10.01
-7.79
-5.55
-3.65
-2.24
-1.22
-0.36
0.56
1.56
2.52
3.24
3.57
3.57
3.45
3.47
3.79
4.36
4.95
5.36
5.46
5.33
5.19
5.27
5.68
6.30
6.86
7.08
6.81
6.11
5.21
4.44
4.01
3.96
4.12
4.21
4.02
3.52
2.84
2.24
1.87
1.73
1.63
1.37
0.81
0.00
-0.84
-1.49
-1.83
-1.99
-2.21
-2.76
-3.68
-4.83
-5.88
-6.56
-6.79
-6.78
-6.92
-7.50
-8.63
-10.11
-11.54
-12.50
-12.74
-12.24
-11.16
-9.70
-8.05
-6.28
-4.41
-2.46
-0.48
1.36
2.91
4.04
4.74
5.14
5.45
5.84
6.38
6.97
7.44
7.64
7.57
7.34
7.16
7.17
7.37
7.60
7.68
7.48
7.07
6.64
6.42
6.55
6.95
7.34
7.37
6.80
5.65
4.19
2.84
1.92
1.53
1.49
1.47
1.21
0.65
-0.06
-0.70
-1.07
-1.12
-0.95
-0.76
-0.72
-0.92
-1.40
-2.08
-2.87
-3.64
-4.29
-4.81
-5.29
-5.87
-6.65
-7.66
-8.82
-9.96
-10.98
-11.80
-12.38
-12.67
-12.48
-11.58
-9.78
-7.14
-4.04
-1.13
0.97
1.96
2.01
1.68
1.63
2.31
3.68
5.30
6.62
7.27
7.26
6.89
6.57
6.57
6.87
7.25
7.48
7.49
7.38
7.38
7.60
8.01
8.36
8.38
7.95
7.17
6.36
5.84
5.80
6.12
6.45
6.39
5.69
4.40
2.82
1.40
0.44
0.06
0.08
0.18
0.07
-0.39
-1.12
-1.94
-2.64
-3.10
-3.40
-3.67
-4.10
-4.75
-5.60
-6.53
-7.43
-8.25
-9.08
-10.01
-11.06
-12.11
-12.83
-12.84
-11.88
-9.97
-7.42
-4.79
-2.56
-1.03
-0.14
0.37
0.80
1.35
1.98
2.51
2.73
2.57
2.09
1.48
0.93
0.58
0.39
0.31
0.23
0.16
0.19
0.47
1.11
2.12
3.29
4.29
4.80
4.65
3.92
2.92
2.00
1.42
1.18
1.07
0.82
0.29
-0.43
-1.13
-1.60
-1.77
-1.80
-1.91
-2.30
-2.98
-3.80
-4.57
-5.15
-5.61
-6.13
-6.90
-7.97
-9.20
-10.26
-10.75
-10.39
-9.12
-7.18
-4.98
-3.01
-1.55
-0.65
-0.04
0.60
1.51
2.66
3.80
4.61
4.87
4.64
4.17
3.82
3.81
4.13
4.61
5.02
5.20
5.22
5.30
5.65
6.37
7.30
8.07
8.32
7.87
6.80
5.47
4.33
3.68
3.52
3.58
3.50
3.02
2.13
1.06
0.09
-0.62
-1.10
-1.55
-2.17
-3.08
-4.24
-5.49
-6.68
-7.75
-8.74
-9.75
-10.80
-11.79
-12.48
-12.52
-11.66
-9.85
-7.38
-4.77
-2.56
-1.10
-0.34
0.09
0.71
1.91
3.67
5.65
7.31
8.22
8.30
7.78
7.09
6.61
6.46
6.54
6.60
6.46
6.11
5.73
5.55
5.73
6.21
6.76
7.09
7.01
6.55
5.91
5.38
5.13
5.10
5.02
4.62
3.75
2.53
1.30
0.40
0.04
0.07
0.14
-0.15
-0.93
-2.09
-3.24
-4.07
-4.47
-4.69
-5.11
-6.05
-7.57
-9.44
-11.23
-12.59
-13.27
-13.28
-12.73
-11.77
-10.49
-8.91
-7.05
-4.96
-2.77
-0.70
1.01
2.18
2.81
3.09
3.33
3.82
4.67
5.71
6.64
7.17
7.17
6.79
6.37
6.20
6.45
7.02
7.58
7.85
7.66
7.09
6.39
5.86
5.65
5.69
5.74
5.58
5.14
4.57
4.13
3.99
4.11
4.20
3.93
3.11
1.83
0.41
-0.74
-1.42
-1.64
-1.65
-1.76
-2.20
-2.99
-3.98
-4.95
-5.73
-6.26
-6.62
-6.97
-7.47
-8.23
-9.25
-10.45
-11.66
-12.72
-13.47
-13.79
-13.57
-12.70
-11.12
-8.86
-6.10
-3.21
-0.65
1.16
2.07
2.23
2.07
2.12
2.73
3.94
5.47
6.87
7.73
7.93
7.62
7.18
6.96
7.15
7.65
8.20
8.49
8.41
8.06
7.69
7.56
7.70
7.93
7.94
7.45
6.45
5.11
3.78
2.73
2.09
1.73
1.47
1.14
0.70
0.27
0.02
0.08
0.42
0.81
0.94
0.54
-0.40
-1.69
-2.94
-3.85
-4.28
-4.42
-4.64
-5.30
-6.54
-8.18
-9.76
-10.73
-10.70
-9.59
-7.66
-5.37
-3.19
-1.36
0.08
1.31
2.52
3.76
4.90
5.70
5.95
5.66
5.01
4.27
3.69
3.31
3.01
2.62
2.09
1.55
1.29
1.55
2.36
3.46
4.38
4.70
4.23
3.11
1.70
0.43
-0.42
-0.88
-1.19
-1.62
-2.35
-3.34
-4.37
-5.19
-5.67
-5.95
-6.35
-7.19
-8.56
-10.15
-11.37
-11.64
-10.65
-8.61
-6.10
-3.80
-2.13
-1.09
-0.36
0.45
1.54
2.79
3.91
4.66
4.95
4.94
4.88
4.96
5.25
5.60
5.81
5.71
5.29
4.68
4.14
3.92
4.13
4.67
5.28
5.66
5.60
5.11
4.39
3.69
3.19
2.83
2.45
1.83
0.89
-0.25
-1.34
-2.16
-2.64
-2.96
-3.41
-4.24
-5.48
-6.95
-8.35
-9.45
-10.21
-10.76
-11.24
-11.61
-11.66
-11.03
-9.49
-7.03
-4.00
-0.95
1.56
3.18
3.86
3.91
3.77
3.84
4.35
5.18
6.06
6.64
6.77
6.49
6.05
5.71
5.58
5.61
5.60
5.43
5.09
4.76
4.66
4.90
5.43
5.99
6.33
6.24
5.73
4.95
4.16
3.54
3.18
2.97
2.75
2.33
1.64
0.77
-0.12
-0.86
-1.34
-1.62
-1.87
-2.25
-2.87
-3.67
-4.50
-5.19
-5.64
-5.93
-6.27
-6.92
-8.01
-9.48
-11.01
-12.14
-12.44
-11.70
-10.01
-7.74
-5.38
-3.30
-1.64
-0.31
0.88
2.00
2.99
3.67
3.91
3.79
3.60
3.67
4.19
4.99
5.71
5.93
5.48
4.50
3.48
2.90
3.07
3.94
5.13
6.21
6.82
6.89
6.57
6.12
5.75
5.50
5.24
4.84
4.23
3.55
2.99
2.74
2.78
2.93
2.88
2.41
1.51
0.38
-0.67
-1.41
-1.76
-1.86
-1.93
-2.16
-2.60
-3.14
-3.65
-4.03
-4.30
-4.63
-5.26
-6.34
-7.86
-9.61
-11.23
-12.37
-12.75
-12.36
-11.30
-9.81
-8.10
-6.27
-4.36
-2.41
-0.50
1.19
2.44
3.15
3.38
3.38
3.47
3.89
4.65
5.52
6.18
6.37
6.04
5.40
4.74
4.34
4.34
4.65
5.07
5.40
5.54
5.53
5.55
5.73
6.13
6.53
6.65
6.24
5.27
4.04
3.00
2.49
2.58
2.95
3.15
2.83
1.99
0.94
0.13
-0.18
-0.06
0.09
-0.19
-1.09
-2.48
-3.95
-5.03
-5.51
-5.49
-5.31
-5.39
-5.96
-6.99
-8.25
-9.40
-10.21
-10.56
-10.47
-10.01
-9.21
-8.06
-6.56
-4.71
-2.62
-0.48
1.43
2.83
3.56
3.69
3.44
3.15
3.07
3.31
3.70
4.04
4.15
4.00
3.75
3.63
3.78
4.16
4.60
4.85
4.77
4.37
3.81
3.32
3.07
3.09
3.25
3.30
3.06
2.46
1.64
0.87
0.36
0.21
0.28
0.31
0.02
-0.70
-1.73
-2.78
-3.54
-3.82
-3.72
-3.49
-3.40
-3.69
-4.34
-5.18
-6.00
-6.66
-7.21
-7.80
-8.55
-9.38
-9.97
-9.91
-8.92
-7.02
-4.60
-2.22
-0.38
0.77
1.38
1.81
2.36
3.11
3.87
4.38
4.47
4.16
3.66
3.25
3.10
3.26
3.59
3.91
4.11
4.15
4.13
4.20
4.49
5.01
5.61
5.99
5.91
5.22
4.05
2.76
1.75
1.33
1.47
1.88
2.17
2.08
1.60
0.96
0.43
0.14
-0.04
-0.41
-1.20
-2.38
-3.67
-4.63
-4.94
-4.63
-4.08
-3.83
-4.33
-5.66
-7.55
-9.44
-10.80
-11.29
-10.84
-9.66
-8.02
-6.19
-4.35
-2.58
-0.97
0.43
1.53
2.26
2.62
2.74
2.78
2.93
3.29
3.83
4.37
4.65
4.51
3.95
3.19
2.57
2.37
2.69
3.38
4.12
4.60
4.66
4.39
4.00
3.75
3.76
3.90
3.94
3.66
3.02
2.22
1.55
1.23
1.29
1.48
1.49
1.09
0.33
-0.56
-1.28
-1.65
-1.72
-1.71
-1.89
-2.37
-3.12
-3.96
-4.67
-5.20
-5.60
-6.10
-6.91
-8.09
-9.48
-10.67
-11.18
-10.67
-9.11
-6.89
-4.58
-2.67
-1.42
-0.71
-0.24
0.32
1.10
2.01
2.86
3.47
3.78
3.88
3.92
4.03
4.25
4.50
4.63
4.50
4.10
3.51
2.98
2.72
2.90
3.47
4.19
4.73
4.84
4.46
3.77
3.06
2.59
2.42
2.41
2.28
1.83
1.01
0.02
-0.83
-1.26
-1.25
-0.98
-0.74
-0.80
-1.22
-1.89
-2.59
-3.14
-3.57
-4.02
-4.70
-5.74
-7.01
-8.23
-9.00
-9.01
-8.22
-6.83
-5.18
-3.56
-2.12
-0.78
0.55
1.92
3.17
4.07
4.42
4.22
3.72
3.21
2.96
3.01
3.20
3.34
3.27
3.01
2.73
2.63
2.85
3.40
4.09
4.69
5.00
4.92
4.54
4.03
3.60
3.36
3.25
3.10
2.79
2.26
1.65
1.18
0.99
1.12
1.37
1.48
1.23
0.60
-0.27
-1.11
-1.71
-1.99
-2.05
-2.11
-2.31
-2.76
-3.37
-4.03
-4.65
-5.19
-5.74
-6.44
-7.40
-8.60
-9.86
-10.88
-11.34
-11.05
-10.06
-8.61
-7.01
-5.52
-4.24
-3.10
-1.99
-0.82
0.35
1.38
2.11
2.51
2.65
2.70
2.82
3.10
3.49
3.86
4.04
3.94
3.62
3.29
3.18
3.46
4.06
4.72
5.15
5.18
4.85
4.40
4.11
4.13
4.36
4.53
4.41
3.89
3.14
2.41
1.99
1.96
2.16
2.33
2.21
1.70
0.93
0.16
-0.40
-0.65
-0.70
-0.77
-1.06
-1.63
-2.38
-3.11
-3.65
-3.92
-4.01
-4.10
-4.37
-4.89
-5.62
-6.42
-7.16
-7.77
-8.29
-8.80
-9.31
-9.71
-9.72
-9.07
-7.62
-5.50
-3.10
-0.92
0.69
1.62
2.02
2.24
2.55
3.08
3.70
4.19
4.32
4.03
3.42
2.74
2.25
2.12
2.34
2.71
3.01
3.09
2.97
2.88
3.09
3.73
4.64
5.45
5.77
5.45
4.65
3.83
3.40
3.55
4.05
4.42
4.27
3.49
2.37
1.39
0.93
1.03
1.36
1.44
1.01
0.09
-0.97
-1.77
-2.09
-2.03
-1.91
-2.11
-2.81
-3.92
-5.16
-6.19
-6.79
-6.93
-6.83
-6.78
-7.07
-7.79
-8.84
-9.92
-10.68
-10.87
-10.42
-9.43
-8.11
-6.64
-5.10
-3.50
-1.88
-0.28
1.13
2.17
2.76
2.97
3.04
3.20
3.61
4.21
4.75
4.96
4.66
3.93
3.06
2.47
2.44
3.05
4.07
5.09
5.76
5.90
5.59
5.10
4.71
4.60
4.72
4.90
4.91
4.67
4.24
3.81
3.57
3.60
3.73
3.71
3.26
2.33
1.10
-0.03
-0.71
-0.76
-0.35
0.10
0.17
-0.36
-1.39
-2.56
-3.48
-3.92
-3.98
-3.94
-4.14
-4.77
-5.76
-6.90
-7.95
-8.78
-9.40
-9.89
-10.25
-10.39
-10.13
-9.30
-7.86
-5.95
-3.88
-1.99
-0.52
0.42
0.92
1.21
1.51
1.99
2.65
3.35
3.90
4.16
4.13
3.92
3.69
3.57
3.55
3.57
3.54
3.47
3.49
3.79
4.50
5.56
6.68
7.45
7.55
6.91
5.76
4.53
3.63
3.26
3.32
3.53
3.59
3.40
3.02
2.65
2.44
2.42
2.44
2.29
1.81
0.99
-0.03
-1.05
-1.88
-2.43
-2.73
-2.93
-3.17
-3.57
-4.11
-4.71
-5.25
-5.69
-6.10
-6.65
-7.49
-8.64
-9.91
-10.94
-11.33
-10.82
-9.44
-7.47
-5.31
-3.32
-1.65
-0.23
1.09
2.37
3.48
4.18
4.27
3.73
2.85
2.05
1.69
1.90
2.49
3.08
3.37
3.28
3.03
2.97
3.37
4.22
5.27
6.17
6.63
6.64
6.34
5.98
5.70
5.53
5.30
4.88
4.22
3.46
2.81
2.48
2.54
2.88
3.23
3.30
2.90
2.05
0.96
-0.06
-0.78
-1.13
-1.24
-1.38
-1.75
-2.43
-3.31
-4.18
-4.84
-5.21
-5.42
-5.70
-6.31
-7.35
-8.70
-10.02
-10.90
-10.95
-10.11
-8.54
-6.63
-4.78
-3.21
-1.93
-0.78
0.39
1.61
2.74
3.55
3.92
3.87
3.63
3.46
3.51
3.74
4.00
4.11
3.98
3.70
3.46
3.43
3.70
4.19
4.75
5.23
5.54
5.68
5.75
5.81
5.90
5.94
5.81
5.42
4.77
4.02
3.37
2.98
2.86
2.83
2.69
2.26
1.59
0.86
0.31
0.04
-0.00
-0.08
-0.46
-1.23
-2.26
-3.26
-3.91
-4.07
-3.87
-3.65
-3.82
-4.65
-6.11
-7.93
-9.68
-10.95
-11.49
-11.33
-10.60
-9.56
-8.39
-7.16
-5.83
-4.31
-2.60
-0.84
0.71
1.77
2.22
2.18
1.96
1.91
2.23
2.82
3.38
3.60
3.32
2.69
2.04
1.70
1.87
2.50
3.34
4.15
4.74
5.07
5.24
5.35
5.47
5.52
5.41
5.03
4.40
3.63
2.91
2.40
2.15
2.06
1.94
1.62
1.01
0.15
-0.83
-1.79
-2.61
-3.30
-3.89
-4.45
-5.03
-5.60
-6.08
-6.41
-6.66
-7.02
-7.75
-8.96
-10.46
-11.75
-12.22
-11.45
-9.42
-6.62
-3.77
-1.49
-0.04
0.78
1.38
2.13
3.15
4.24
5.07
5.39
5.22
4.77
4.39
4.33
4.66
5.20
5.67
5.82
5.61
5.23
4.95
5.04
5.57
6.34
7.02
7.26
6.94
6.21
5.38
4.78
4.58
4.65
4.71
4.49
3.87
2.97
2.04
1.33
0.93
0.74
0.56
0.21
-0.37
-1.10
-1.81
-2.39
-2.80
-3.13
-3.56
-4.23
-5.22
-6.45
-7.78
-9.03
-10.07
-10.90
-11.57
-12.06
-12.22
-11.81
-10.58
-8.46
-5.67
-2.69
-0.07
1.74
2.63
2.82
2.76
2.86
3.35
4.12
4.89
5.38
5.44
5.19
4.91
4.83
5.05
5.43
5.73
5.79
5.65
5.52
5.68
6.26
7.15
8.03
8.55
8.49
7.89
6.98
6.12
5.52
5.25
5.10
4.80
4.15
3.13
1.92
0.81
0.05
-0.32
-0.47
-0.66
-1.08
-1.76
-2.53
-3.19
-3.57
-3.68
-3.68
-3.80
-4.21
-4.96
-5.96
-7.03
-8.03
-8.87
-9.62
-10.37
-11.15
-11.80
-12.02
-11.46
-9.95
-7.62
-4.93
-2.43
-0.59
0.46
0.92
1.21
1.70
2.55
3.67
4.72
5.42
5.62
5.41
5.04
4.80
4.85
5.15
5.48
5.66
5.61
5.45
5.45
5.79
6.49
7.34
7.96
8.09
7.62
6.72
5.71
4.90
4.48
4.35
4.30
4.08
3.56
2.82
2.07
1.56
1.40
1.45
1.43
1.04
0.13
-1.17
-2.51
-3.50
-3.90
-3.75
-3.39
-3.24
-3.59
-4.44
-5.56
-6.62
-7.44
-8.08
-8.79
-9.80
-11.07
-12.24
-12.76
-12.17
-10.36
-7.68
-4.80
-2.32
-0.58
0.49
1.24
2.04
3.02
4.04
4.80
5.07
4.86
4.41
4.09
4.15
4.60
5.21
5.64
5.64
5.23
4.67
4.32
4.48
5.19
6.23
7.19
7.73
7.68
7.13
6.37
5.71
5.33
5.21
5.15
4.95
4.50
3.86
3.17
2.62
2.26
1.99
1.62
1.00
0.13
-0.85
-1.72
-2.29
-2.55
-2.66
-2.84
-3.27
-3.96
-4.76
-5.43
-5.84
-6.00
-6.13
-6.54
-7.45
-8.90
-10.65
-12.28
-13.30
-13.40
-12.53
-10.89
-8.82
-6.64
-4.52
-2.51
-0.59
1.17
2.62
3.56
3.88
3.64
3.08
2.55
2.35
2.60
3.18
3.82
4.26
4.33
4.10
3.80
3.76
4.19
5.07
6.14
7.01
7.34
7.06
6.36
5.59
5.08
4.91
4.91
4.78
4.29
3.45
2.48
1.68
1.21
1.02
0.84
0.40
-0.38
-1.38
-2.30
-2.91
-3.16
-3.23
-3.41
-3.89
-4.69
-5.61
-6.38
-6.81
-6.91
-6.91
-7.13
-7.80
-8.90
-10.11
-10.95
-10.98
-9.99
-8.12
-5.77
-3.42
-1.45
-0.01
0.99
1.73
2.37
3.00
3.57
4.04
4.36
4.54
4.65
4.77
4.91
5.01
4.95
4.64
4.09
3.48
3.08
3.12
3.66
4.50
5.28
5.67
5.53
4.98
4.32
3.86
3.75
3.90
4.04
3.94
3.49
2.78
2.06
1.57
1.41
1.48
1.51
1.21
0.45
-0.71
-2.04
-3.23
-4.10
-4.64
-4.98
-5.34
-5.87
-6.60
-7.45
-8.31
-9.13
-9.92
-10.72
-11.47
-11.98
-11.92
-11.00
-9.12
-6.52
-3.69
-1.24
0.40
1.18
1.40
1.56
2.08
3.08
4.36
5.54
6.25
6.34
5.96
5.41
4.99
4.85
4.92
5.05
5.07
5.01
4.99
5.18
5.66
6.32
6.90
7.09
6.77
6.00
5.06
4.30
3.92
3.94
4.11
4.13
3.74
2.93
1.92
1.04
0.54
0.44
0.52
0.44
-0.06
-0.99
-2.16
-3.26
-4.08
-4.55
-4.80
-5.03
-5.36
-5.89
-6.61
-7.49
-8.48
-9.51
-10.46
-11.22
-11.63
-11.54
-10.85
-9.49
-7.52
-5.11
-2.59
-0.34
1.29
2.15
2.37
2.29
2.32
2.71
3.46
4.30
4.92
5.10
4.91
4.60
4.45
4.64
5.10
5.62
5.96
6.01
5.86
5.69
5.66
5.79
5.90
5.75
5.16
4.18
3.07
2.14
1.65
1.65
1.91
2.10
1.98
1.44
0.65
-0.13
-0.68
-0.93
-1.03
-1.23
-1.71
-2.52
-3.48
-4.36
-4.92
-5.09
-4.99
-4.88
-5.04
-5.64
-6.64
-7.80
-8.83
-9.43
-9.48
-9.01
-8.13
-6.97
-5.58
-3.98
-2.20
-0.36
1.31
2.59
3.34
3.62
3.64
3.68
3.93
4.44
5.10
5.66
5.90
5.70
5.14
4.41
3.81
3.59
3.78
4.26
4.77
5.09
5.11
4.94
4.77
4.74
4.83
4.86
4.63
4.02
3.11
2.10
1.24
0.66
0.34
0.14
-0.11
-0.51
-1.03
-1.57
-2.04
-2.41
-2.78
-3.28
-4.02
-5.00
-6.08
-7.07
-7.83
-8.37
-8.85
-9.49
-10.39
-11.41
-12.19
-12.31
-11.48
-9.74
-7.43
-5.07
-3.08
-1.62
-0.58
0.30
1.28
2.40
3.52
4.40
4.86
4.89
4.66
4.41
4.34
4.54
4.92
5.33
5.62
5.69
5.62
5.53
5.58
5.88
6.39
6.92
7.25
7.13
6.54
5.64
4.75
4.17
4.00
4.06
4.04
3.62
2.74
1.60
0.58
-0.00
-0.15
-0.10
-0.23
-0.79
-1.76
-2.85
-3.70
-4.11
-4.22
-4.36
-4.88
-5.90
-7.26
-8.56
-9.49
-9.92
-10.00
-9.97
-10.01
-10.00
-9.69
-8.75
-7.11
-4.96
-2.74
-0.90
0.30
0.92
1.26
1.67
2.38
3.41
4.51
5.37
5.78
5.71
5.31
4.86
4.56
4.52
4.65
4.81
4.85
4.73
4.59
4.62
4.97
5.66
6.43
6.97
6.97
6.38
5.43
4.57
4.16
4.32
4.75
4.97
4.54
3.35
1.73
0.20
-0.76
-1.00
-0.77
-0.52
-0.64
-1.26
-2.20
-3.11
-3.70
-3.89
-3.86
-3.93
-4.38
-5.29
-6.60
-8.07
-9.50
-10.72
-11.64
-12.20
-12.29
-11.79
-10.59
-8.71
-6.28
-3.58
-1.01
1.06
2.38
2.94
2.96
2.81
2.87
3.32
4.08
4.87
5.36
5.33
4.88
4.31
3.99
4.15
4.77
5.56
6.19
6.43
6.30
6.02
5.86
5.99
6.30
6.50
6.27
5.49
4.33
3.22
2.57
2.59
3.12
3.72
3.95
3.54
2.58
1.44
0.50
0.00
-0.15
-0.25
-0.60
-1.32
-2.27
-3.16
-3.76
-3.99
-4.02
-4.12
-4.54
-5.34
-6.40
-7.51
-8.46
-9.21
-9.83
-10.44
-11.05
-11.51
-11.53
-10.80
-9.17
-6.73
-3.87
-1.15
0.94
2.11
2.43
2.22
1.92
1.88
2.21
2.80
3.39
3.80
3.97
4.04
4.15
4.42
4.78
5.09
5.19
5.03
4.77
4.61
4.79
5.33
6.05
6.59
6.62
6.02
4.96
3.85
3.10
2.92
3.22
3.64
3.81
3.50
2.75
1.82
1.00
0.49
0.26
0.14
-0.08
-0.53
-1.21
-1.99
-2.68
-3.13
-3.32
-3.39
-3.55
-3.98
-4.69
-5.58
-6.47
-7.23
-7.92
-8.69
-9.66
-10.71
-11.51
-11.61
-10.68
-8.68
-6.01
-3.28
-1.11
0.17
0.59
0.56
0.60
1.09
2.11
3.38
4.52
5.20
5.36
5.21
5.05
5.09
5.33
5.55
5.54
5.25
4.84
4.65
4.90
5.61
6.52
7.21
7.37
6.90
6.00
5.02
4.32
4.07
4.20
4.44
4.54
4.29
3.67
2.83
1.96
1.22
0.67
0.24
-0.19
-0.69
-1.24
-1.74
-2.06
-2.20
-2.36
-2.82
-3.78
-5.20
-6.76
-8.00
-8.60
-8.53
-8.12
-7.86
-8.12
-8.96
-10.06
-10.93
-11.11
-10.38
-8.88
-6.94
-4.98
-3.28
-1.91
-0.76
0.32
1.44
2.50
3.35
3.83
3.93
3.81
3.71
3.83
4.19
4.63
4.91
4.89
4.60
4.28
4.23
4.63
5.46
6.44
7.24
7.57
7.36
6.77
6.06
5.44
5.05
4.83
4.68
4.50
4.25
3.92
3.57
3.25
2.96
2.66
2.28
1.75
1.04
0.26
-0.43
-0.88
-1.04
-1.07
-1.21
-1.72
-2.69
-3.97
-5.27
-6.27
-6.85
-7.14
-7.42
-7.97
-8.88
-10.02
-11.04
-11.56
-11.31
-10.29
-8.72
-6.92
-5.19
-3.66
-2.35
-1.17
-0.10
0.79
1.39
1.63
1.58
1.46
1.53
1.95
2.70
3.53
4.11
4.23
3.90
3.32
2.84
2.75
3.17
4.04
5.11
6.12
6.84
7.18
7.18
6.94
6.55
6.04
5.39
4.56
3.57
2.54
1.63
1.00
0.70
0.60
0.47
0.08
-0.64
-1.62
-2.60
-3.37
-3.82
-4.03
-4.22
-4.57
-5.10
-5.70
-6.18
-6.42
-6.47
-6.57
-6.97
-7.74
-8.77
-9.65
-9.95
-9.34
-7.79
-5.59
-3.25
-1.26
0.09
0.79
1.09
1.29
1.61
2.04
2.41
2.50
2.22
1.65
1.04
0.65
0.64
0.97
1.42
1.77
1.85
1.71
1.52
1.51
1.82
2.38
2.91
3.13
2.85
2.15
1.34
0.76
0.63
0.89
1.24
1.33
0.94
0.14
-0.81
-1.58
-1.96
-2.00
-1.96
-2.11
-2.64
-3.49
-4.46
-5.32
-6.00
-6.60
-7.30
-8.14
-8.98
-9.42
-9.06
-7.69
-5.43
-2.79
-0.36
1.37
2.22
2.38
2.27
2.30
2.69
3.41
4.20
4.73
4.83
4.54
4.04
3.62
3.42
3.43
3.47
3.39
3.13
2.80
2.61
2.69
3.02
3.36
3.43
3.02
2.10
0.86
-0.38
-1.34
-1.87
-2.08
-2.22
-2.62
-3.49
-4.77
-6.20
-7.40
-8.04
-8.05
-7.54
-6.77
-5.93
-5.01
-3.88
-2.39
-0.57
1.34
2.95
3.93
4.22
4.03
3.79
3.83
4.28
4.90
5.33
5.23
4.53
3.46
2.44
1.87
1.95
2.52
3.23
3.73
3.83
3.60
3.28
3.12
3.21
3.40
3.43
3.07
2.27
1.18
0.06
-0.81
-1.34
-1.66
-2.03
-2.67
-3.67
-4.87
-6.01
-6.85
-7.32
-7.59
-7.91
-8.45
-9.13
-9.56
-9.30
-8.07
-5.93
-3.34
-0.93
0.81
1.73
2.05
2.17
2.47
3.11
3.99
4.84
5.44
5.66
5.54
5.26
4.97
4.82
4.85
5.03
5.28
5.53
5.72
5.90
6.13
6.48
6.90
7.21
7.24
6.84
6.08
5.15
4.37
3.95
3.92
4.10
4.21
4.02
3.48
2.72
2.00
1.55
1.38
1.35
1.21
0.76
-0.03
-0.99
-1.88
-2.53
-2.94
-3.29
-3.77
-4.48
-5.36
-6.20
-6.80
-7.11
-7.28
-7.56
-8.18
-9.21
-10.42
-11.44
-11.84
-11.36
-10.01
-8.07
-5.95
-4.00
-2.39
-1.09
0.06
1.19
2.31
3.29
3.99
4.31
4.31
4.18
4.16
4.40
4.85
5.35
5.66
5.62
5.31
4.93
4.80
5.09
5.74
6.47
6.97
7.01
6.60
6.00
5.50
5.30
5.39
5.57
5.56
5.19
4.46
3.58
2.85
2.50
2.54
2.77
2.84
2.51
1.74
0.76
-0.08
-0.50
-0.51
-0.40
-0.59
-1.37
-2.72
-4.30
-5.66
-6.41
-6.52
-6.23
-5.88
-5.80
-6.07
-6.61
-7.26
-7.89
-8.52
-9.23
-10.03
-10.76
-11.11
-10.73
-9.41
-7.22
-4.56
-2.02
-0.09
0.99
1.33
1.33
1.42
1.90
2.75
3.72
4.51
4.89
4.87
4.63
4.41
4.40
4.60
4.91
5.18
5.32
5.32
5.29
5.39
5.70
6.15
6.56
6.70
6.42
5.75
4.92
4.20
3.79
3.69
3.67
3.45
2.86
1.98
1.08
0.46
0.26
0.38
0.53
0.43
-0.04
-0.77
-1.53
-2.12
-2.51
-2.79
-3.09
-3.46
-3.85
-4.13
-4.26
-4.32
-4.51
-5.11
-6.26
-7.87
-9.64
-11.13
-11.87
-11.59
-10.27
-8.19
-5.82
-3.64
-1.95
-0.79
0.01
0.74
1.57
2.49
3.33
3.91
4.14
4.13
4.09
4.21
4.57
5.03
5.35
5.37
5.05
4.57
4.24
4.28
4.77
5.52
6.22
6.62
6.60
6.26
5.85
5.56
5.47
5.44
5.20
4.58
3.61
2.56
1.74
1.40
1.51
1.76
1.79
1.34
0.44
-0.62
-1.49
-1.94
-1.97
-1.83
-1.87
-2.31
-3.18
-4.30
-5.40
-6.24
-6.71
-6.98
-7.30
-7.95
-8.98
-10.17
-11.11
-11.34
-10.59
-8.97
-6.85
-4.68
-2.83
-1.38
-0.20
0.91
2.06
3.16
3.98
4.33
4.17
3.68
3.13
2.84
2.93
3.31
3.75
3.97
3.87
3.51
3.13
2.97
3.16
3.63
4.15
4.49
4.49
4.21
3.82
3.51
3.35
3.26
3.03
2.53
1.78
0.98
0.43
0.37
0.80
1.51
2.12
2.35
2.06
1.37
0.51
-0.29
-0.92
-1.44
-1.98
-2.64
-3.42
-4.24
-4.94
-5.47
-5.82
-6.19
-6.75
-7.62
-8.73
-9.76
-10.30
-9.98
-8.71
-6.75
-4.60
-2.79
-1.60
-0.96
-0.53
0.07
1.00
2.11
3.03
3.44
3.29
2.84
2.48
2.54
3.10
3.90
4.58
4.83
4.59
4.05
3.60
3.53
3.99
4.77
5.52
5.87
5.62
4.88
3.94
3.20
2.88
2.96
3.17
3.16
2.76
2.02
1.20
0.61
0.38
0.37
0.28
-0.15
-0.99
-2.05
-3.01
-3.61
-3.77
-3.64
-3.50
-3.55
-3.87
-4.42
-5.05
-5.68
-6.25
-6.83
-7.47
-8.15
-8.75
-9.07
-8.88
-8.06
-6.62
-4.77
-2.86
-1.24
-0.10
0.54
0.88
1.15
1.57
2.18
2.86
3.41
3.67
3.62
3.43
3.32
3.43
3.72
3.97
3.95
3.57
3.00
2.56
2.57
3.11
3.95
4.68
4.92
4.55
3.73
2.83
2.16
1.91
1.95
2.05
1.97
1.62
1.10
0.62
0.41
0.58
0.97
1.28
1.20
0.55
-0.59
-1.91
-3.00
-3.56
-3.58
-3.31
-3.12
-3.30
-3.92
-4.84
-5.79
-6.56
-7.14
-7.68
-8.34
-9.09
-9.66
-9.63
-8.69
-6.81
-4.37
-1.98
-0.24
0.60
0.70
0.56
0.64
1.21
2.10
2.92
3.28
3.03
2.38
1.76
1.56
1.89
2.53
3.12
3.33
3.13
2.77
2.63
2.95
3.70
4.54
5.06
4.95
4.23
3.21
2.32
1.92
2.12
2.70
3.32
3.61
3.40
2.74
1.89
1.17
0.76
0.58
0.42
-0.02
-0.86
-2.01
-3.19
-4.09
-4.49
-4.46
-4.27
-4.21
-4.49
-5.09
-5.83
-6.51
-7.04
-7.43
-7.78
-8.11
-8.27
-8.03
-7.15
-5.54
-3.41
-1.19
0.64
1.76
2.15
2.11
2.05
2.31
2.93
3.68
4.20
4.27
3.87
3.24
2.72
2.57
2.81
3.26
3.66
3.81
3.68
3.45
3.33
3.49
3.94
4.49
4.86
4.83
4.33
3.54
2.78
2.35
2.36
2.69
3.03
3.05
2.60
1.74
0.73
-0.14
-0.70
-0.98
-1.12
-1.33
-1.72
-2.29
-2.92
-3.49
-3.91
-4.22
-4.53
-4.99
-5.65
-6.52
-7.50
-8.42
-9.16
-9.66
-9.87
-9.78
-9.32
-8.42
-7.04
-5.28
-3.33
-1.49
-0.02
0.92
1.37
1.53
1.65
1.92
2.41
3.05
3.67
4.11
4.29
4.24
4.07
3.93
3.91
3.97
3.96
3.76
3.37
2.96
2.79
3.05
3.74
4.62
5.29
5.45
5.02
4.21
3.39
2.90
2.86
3.14
3.45
3.50
3.16
2.51
1.73
1.03
0.55
0.26
0.02
-0.32
-0.85
-1.50
-2.14
-2.58
-2.71
-2.61
-2.47
-2.60
-3.17
-4.21
-5.51
-6.79
-7.80
-8.49
-8.99
-9.43
-9.84
-10.04
-9.71
-8.59
-6.69
-4.32
-2.02
-0.27
0.71
1.02
1.05
1.18
1.65
2.41
3.23
3.80
3.99
3.88
3.68
3.62
3.81
4.17
4.49
4.61
4.52
4.35
4.36
4.67
5.25
5.85
6.13
5.88
5.15
4.19
3.37
2.96
2.99
3.23
3.37
3.20
2.72
2.13
1.65
1.46
1.51
1.55
1.29
0.59
-0.45
-1.55
-2.37
-2.71
-2.60
-2.32
-2.24
-2.66
-3.64
-5.03
-6.50
-7.75
-8.59
-9.04
-9.22
-9.23
-9.05
-8.58
-7.68
-6.28
-4.48
-2.55
-0.83
0.46
1.23
1.65
1.96
2.38
2.99
3.66
4.17
4.32
4.06
3.59
3.20
3.19
3.66
4.45
5.21
5.62
5.54
5.13
4.70
4.57
4.84
5.33
5.68
5.59
5.01
4.16
3.38
2.97
2.98
3.20
3.32
3.09
2.50
1.74
1.09
0.79
0.86
1.11
1.25
1.04
0.39
-0.55
-1.49
-2.20
-2.58
-2.76
-3.01
-3.56
-4.46
-5.51
-6.42
-6.97
-7.13
-7.11
-7.22
-7.65
-8.33
-8.96
-9.11
-8.47
-7.06
-5.20
-3.40
-2.06
-1.33
-1.02
-0.75
-0.21
0.70
1.80
2.74
3.30
3.40
3.24
3.10
3.20
3.58
4.06
4.38
4.34
3.95
3.42
3.08
3.17
3.76
4.66
5.54
6.12
6.26
6.05
5.69
5.39
5.25
5.20
5.11
4.85
4.42
3.90
3.43
3.07
2.78
2.43
1.88
1.06
0.05
-0.96
-1.77
-2.25
-2.45
-2.50
-2.63
-2.96
-3.48
-4.10
-4.69
-5.15
-5.50
-5.87
-6.42
-7.22
-8.26
-9.30
-10.04
-10.15
-9.44
-8.00
-6.15
-4.33
-2.92
-2.01
-1.46
-0.94
-0.21
0.77
1.77
2.49
2.73
2.57
2.29
2.24
2.57
3.20
3.84
4.20
4.19
3.90
3.60
3.54
3.84
4.39
5.02
5.50
5.74
5.80
5.81
5.90
6.07
6.17
5.97
5.31
4.23
3.00
1.96
1.38
1.29
1.42
1.42
1.06
0.34
-0.51
-1.16
-1.44
-1.39
-1.28
-1.43
-2.04
-3.05
-4.19
-5.12
-5.63
-5.72
-5.62
-5.66
-6.07
-6.83
-7.70
-8.27
-8.26
-7.57
-6.41
-5.12
-4.02
-3.23
-2.60
-1.91
-0.92
0.40
1.82
3.01
3.70
3.78
3.44
2.99
2.72
2.80
3.17
3.60
3.86
3.86
3.65
3.42
3.39
3.68
4.21
4.77
5.13
5.14
4.85
4.49
4.29
4.36
4.63
4.86
4.80
4.34
3.58
2.77
2.18
1.93
1.90
1.84
1.51
0.81
-0.12
-1.01
-1.60
-1.79
-1.75
-1.80
-2.20
-3.01
-4.02
-4.88
-5.32
-5.28
-5.02
-4.91
-5.23
-5.99
-7.02
-8.01
-8.73
-9.04
-8.97
-8.54
-7.72
-6.52
-4.96
-3.17
-1.40
0.14
1.24
1.85
2.05
2.00
1.90
1.90
2.08
2.46
2.93
3.33
3.55
3.49
3.20
2.85
2.66
2.81
3.34
4.11
4.88
5.39
5.50
5.24
4.81
4.43
4.22
4.17
4.17
4.05
3.76
3.37
3.03
2.87
2.88
2.91
2.73
2.17
1.27
0.27
-0.52
-0.87
-0.81
-0.62
-0.67
-1.20
-2.19
-3.34
-4.26
-4.69
-4.63
-4.35
-4.21
-4.46
-5.17
-6.20
-7.30
-8.29
-9.08
-9.65
-9.99
-9.98
-9.44
-8.23
-6.35
-4.04
-1.74
0.11
1.21
1.58
1.49
1.36
1.48
1.96
2.65
3.29
3.65
3.66
3.46
3.30
3.39
3.79
4.36
4.81
4.91
4.60
4.06
3.62
3.60
4.12
5.00
5.87
6.35
6.24
5.64
4.85
4.21
3.91
3.91
3.94
3.74
3.18
2.33
1.49
0.90
0.72
0.78
0.83
0.58
-0.04
-0.87
-1.61
-2.03
-2.12
-2.11
-2.32
-2.96
-3.96
-5.04
-5.83
-6.15
-6.07
-6.01
-6.41
-7.50
-9.14
-10.80
-11.80
-11.65
-10.28
-8.07
-5.66
-3.59
-2.11
-1.10
-0.24
0.74
1.89
3.02
3.87
4.28
4.28
4.09
3.98
4.09
4.42
4.76
4.86
4.61
4.12
3.63
3.47
3.82
4.65
5.71
6.67
7.24
7.30
6.90
6.22
5.48
4.83
4.27
3.73
3.08
2.28
1.37
0.57
0.07
0.00
0.26
0.59
0.68
0.36
-0.29
-1.05
-1.65
-1.95
-2.07
-2.20
-2.54
-3.10
-3.72
-4.18
-4.41
-4.56
-5.03
-6.16
-8.06
-10.42
-12.58
-13.81
-13.61
-11.98
-9.38
-6.55
-4.10
-2.37
-1.27
-0.47
0.38
1.45
2.65
3.73
4.43
4.63
4.42
4.06
3.80
3.83
4.09
4.39
4.52
4.36
4.01
3.74
3.81
4.32
5.13
5.91
6.35
6.28
5.81
5.19
4.74
4.60
4.71
4.85
4.78
4.38
3.72
2.99
2.42
2.11
2.02
1.97
1.78
1.33
0.62
-0.21
-1.01
-1.68
-2.24
-2.77
-3.35
-4.02
-4.69
-5.24
-5.56
-5.65
-5.66
-5.82
-6.36
-7.40
-8.82
-10.28
-11.34
-11.60
-10.93
-9.47
-7.60
-5.73
-4.13
-2.83
-1.70
-0.58
0.54
1.54
2.24
2.60
2.74
2.90
3.30
3.96
4.69
5.21
5.30
4.95
4.40
3.97
3.92
4.33
5.06
5.82
6.35
6.51
6.33
5.97
5.63
5.42
5.34
5.24
4.99
4.50
3.84
3.16
2.63
2.36
2.27
2.22
2.03
1.62
1.04
0.43
-0.06
-0.38
-0.64
-1.00
-1.62
-2.49
-3.48
-4.37
-4.97
-5.26
-5.40
-5.65
-6.25
-7.27
-8.57
-9.85
-10.76
-11.03
-10.59
-9.57
-8.18
-6.67
-5.16
-3.68
-2.18
-0.63
0.85
2.05
2.80
3.08
3.08
3.10
3.42
4.12
4.99
5.69
5.95
5.69
5.11
4.55
4.28
4.42
4.82
5.25
5.46
5.37
5.07
4.74
4.55
4.53
4.55
4.43
4.04
3.40
2.69
2.18
2.07
2.37
2.83
3.07
2.80
1.97
0.82
-0.26
-0.95
-1.15
-1.07
-1.03
-1.28
-1.89
-2.69
-3.44
-3.95
-4.20
-4.37
-4.70
-5.37
-6.43
-7.77
-9.11
-10.16
-10.64
-10.41
-9.52
-8.18
-6.67
-5.18
-3.78
-2.45
-1.11
0.22
1.40
2.30
2.83
3.08
3.29
3.66
4.28
4.97
5.44
5.43
4.95
4.25
3.67
3.52
3.86
4.49
5.13
5.54
5.65
5.58
5.52
5.59
5.78
5.91
5.79
5.31
4.49
3.52
2.67
2.15
2.00
2.10
2.16
1.96
1.37
0.50
-0.42
-1.15
-1.55
-1.67
-1.72
-1.88
-2.31
-2.98
-3.75
-4.45
-4.94
-5.28
-5.63
-6.18
-7.06
-8.21
-9.37
-10.24
-10.53
-10.16
-9.22
-7.94
-6.52
-5.10
-3.69
-2.27
-0.85
0.46
1.52
2.24
2.63
2.82
3.02
3.38
3.94
4.56
5.01
5.07
4.67
3.94
3.19
2.71
2.70
3.10
3.67
4.15
4.40
4.45
4.48
4.61
4.85
5.07
5.07
4.76
4.20
3.60
3.20
3.11
3.27
3.40
3.23
2.59
1.56
0.42
-0.45
-0.85
-0.76
-0.47
-0.35
-0.66
-1.45
-2.50
-3.50
-4.18
-4.45
-4.42
-4.34
-4.42
-4.80
-5.51
-6.45
-7.49
-8.47
-9.32
-9.92
-10.21
-10.04
-9.30
-7.92
-5.98
-3.75
-1.60
0.11
1.20
1.71
1.89
2.04
2.37
2.90
3.50
3.97
4.18
4.10
3.84
3.58
3.48
3.62
3.95
4.35
4.66
4.79
4.75
4.66
4.66
4.78
4.92
4.89
4.51
3.80
2.98
2.39
2.27
2.66
3.29
3.73
3.60
2.81
1.58
0.34
-0.49
-0.74
-0.58
-0.37
-0.49
-1.12
-2.18
-3.36
-4.27
-4.70
-4.75
-4.74
-5.07
-6.00
-7.46
-9.12
-10.50
-11.24
-11.25
-10.72
-9.92
-9.06
-8.12
-6.95
-5.38
-3.44
-1.40
0.38
1.59
2.18
2.37
2.51
2.88
3.59
4.45
5.18
5.53
5.40
4.90
4.24
3.64
3.29
3.20
3.33
3.63
4.03
4.49
4.99
5.50
5.94
6.21
6.18
5.81
5.16
4.41
3.81
3.56
3.68
4.01
4.21
3.97
3.18
1.96
0.69
-0.26
-0.63
-0.50
-0.13
0.13
0.05
-0.36
-0.93
-1.46
-1.84
-2.17
-2.65
-3.45
-4.58
-5.90
-7.15
-8.16
-8.91
-9.52
-10.14
-10.80
-11.35
-11.51
-11.00
-9.69
-7.70
-5.38
-3.15
-1.36
-0.14
0.62
1.17
1.76
2.51
3.33
4.00
4.34
4.25
3.89
3.47
3.24
3.31
3.62
3.97
4.19
4.19
4.02
3.86
3.88
4.16
4.65
5.14
5.39
5.24
4.71
3.97
3.29
2.91
2.90
3.10
3.24
3.10
2.58
1.81
1.05
0.59
0.51
0.70
0.91
0.86
0.46
-0.18
-0.82
-1.26
-1.55
-1.91
-2.62
-3.75
-5.13
-6.38
-7.18
-7.44
-7.44
-7.58
-8.17
-9.15
-10.12
-10.56
-10.05
-8.52
-6.28
-3.83
-1.64
0.04
1.23
2.08
2.81
3.53
4.18
4.59
4.62
4.22
3.54
2.82
2.34
2.27
2.59
3.12
3.61
3.86
3.83
3.66
3.57
3.75
4.23
4.86
5.43
5.73
5.72
5.49
5.20
4.95
4.71
4.35
3.73
2.80
1.69
0.66
-0.05
-0.30
-0.21
-0.06
-0.17
-0.74
-1.73
-2.89
-3.87
-4.42
-4.57
-4.55
-4.66
-5.12
-5.92
-6.88
-7.74
-8.36
-8.78
-9.11
-9.39
-9.52
-9.27
-8.41
-6.86
-4.79
-2.55
-0.51
1.07
2.12
2.76
3.14
3.44
3.75
4.09
4.44
4.73
4.93
5.00
4.93
4.75
4.49
4.21
3.94
3.75
3.70
3.82
4.13
4.57
5.01
5.31
5.30
4.92
4.24
3.44
2.81
2.54
2.69
3.10
3.47
3.52
3.12
2.36
1.44
0.61
-0.02
-0.55
-1.10
-1.82
-2.71
-3.61
-4.35
-4.79
-4.89
-4.78
-4.69
-4.81
-5.27
-6.04
-6.99
-7.93
-8.73
-9.32
-9.72
-9.93
-9.87
-9.39
-8.30
-6.53
-4.23
-1.76
0.46
2.07
2.96
3.28
3.30
3.32
3.49
3.79
4.09
4.25
4.21
4.03
3.86
3.78
3.85
4.00
4.12
4.15
4.09
4.04
4.10
4.33
4.69
5.03
5.17
5.01
4.56
3.94
3.38
3.02
2.89
2.87
2.75
2.39
1.77
1.06
0.49
0.24
0.32
0.53
0.56
0.19
-0.64
-1.74
-2.84
-3.66
-4.10
-4.29
-4.48
-4.94
-5.84
-7.10
-8.52
-9.77
-10.59
-10.87
-10.68
-10.14
-9.36
-8.35
-7.08
-5.49
-3.65
-1.78
-0.14
1.05
1.77
2.17
2.49
2.92
3.53
4.16
4.60
4.71
4.45
3.98
3.54
3.39
3.63
4.18
4.83
5.33
5.55
5.49
5.30
5.17
5.21
5.36
5.44
5.26
4.73
3.92
3.05
2.34
1.93
1.74
1.57
1.18
0.46
-0.50
-1.44
-2.11
-2.37
-2.33
-2.27
-2.48
-3.10
-4.02
-4.93
-5.55
-5.77
-5.80
-6.00
-6.69
-7.94
-9.42
-10.57
-10.86
-10.04
-8.31
-6.20
-4.21
-2.67
-1.57
-0.64
0.42
1.72
3.13
4.36
5.15
5.38
5.19
4.82
4.55
4.51
4.65
4.78
4.68
4.27
3.67
3.15
2.97
3.30
4.02
4.84
5.41
5.51
5.16
4.57
4.01
3.69
3.63
3.66
3.60
3.33
2.87
2.41
2.11
2.10
2.25
2.35
2.13
1.46
0.42
-0.77
-1.81
-2.53
-2.93
-3.18
-3.48
-3.97
-4.63
-5.36
-6.05
-6.69
-7.40
-8.39
-9.72
-11.21
-12.42
-12.84
-12.09
-10.18
-7.54
-4.81
-2.59
-1.12
-0.29
0.29
0.94
1.80
2.76
3.57
4.06
4.20
4.13
4.06
4.14
4.46
4.95
5.49
5.92
6.14
6.14
6.00
5.88
5.92
6.14
6.43
6.59
6.42
5.88
5.11
4.36
3.87
3.75
3.89
4.07
4.04
3.71
3.16
2.56
2.09
1.79
1.53
1.13
0.47
-0.44
-1.46
-2.40
-3.10
-3.57
-3.94
-4.32
-4.83
-5.44
-6.09
-6.73
-7.40
-8.15
-9.05
-10.05
-10.94
-11.42
-11.17
-10.08
-8.24
-5.99
-3.75
-1.84
-0.41
0.60
1.38
2.11
2.85
3.55
4.06
4.29
4.25
4.06
3.89
3.90
4.12
4.46
4.72
4.74
4.49
4.11
3.81
3.83
4.23
4.89
5.58
6.06
6.18
5.95
5.51
5.00
4.51
4.05
3.58
3.06
2.50
1.96
1.51
1.18
0.95
0.73
0.39
-0.16
-0.94
-1.89
-2.86
-3.70
-4.28
-4.64
-4.93
-5.35
-6.05
-7.06
-8.23
-9.32
-10.10
-10.45
-10.40
-10.00
-9.29
-8.18
-6.57
-4.46
-2.03
0.33
2.14
3.15
3.39
3.20
3.04
3.26
3.92
4.77
5.41
5.58
5.20
4.51
3.86
3.53
3.69
4.23
4.95
5.61
6.11
6.44
6.71
7.01
7.33
7.51
7.38
6.83
5.94
4.94
4.11
3.62
3.47
3.42
3.21
2.67
1.80
0.82
0.01
-0.43
-0.50
-0.42
-0.52
-1.07
-2.14
-3.53
-4.86
-5.77
-6.11
-6.05
-5.98
-6.30
-7.22
-8.59
-10.01
-11.03
-11.30
-10.79
-9.73
-8.45
-7.18
-5.96
-4.68
-3.21
-1.52
0.20
1.66
2.62
3.07
3.20
3.36
3.79
4.51
5.30
5.80
5.78
5.24
4.45
3.79
3.59
3.93
4.63
5.34
5.71
5.57
5.03
4.43
4.09
4.20
4.69
5.24
5.53
5.36
4.78
3.99
3.27
2.81
2.61
2.56
2.47
2.23
1.82
1.32
0.86
0.51
0.23
-0.11
-0.67
-1.51
-2.54
-3.55
-4.29
-4.65
-4.75
-4.88
-5.37
-6.41
-7.91
-9.50
-10.70
-11.14
-10.72
-9.64
-8.25
-6.86
-5.61
-4.39
-3.03
-1.45
0.20
1.63
2.52
2.78
2.58
2.30
2.28
2.66
3.32
3.95
4.31
4.29
4.04
3.80
3.78
4.06
4.52
4.94
5.15
5.07
4.81
4.55
4.47
4.64
4.95
5.20
5.17
4.77
4.09
3.32
2.70
2.34
2.18
2.08
1.86
1.43
0.84
0.23
-0.29
-0.67
-1.02
-1.47
-2.15
-3.02
-3.93
-4.66
-5.10
-5.27
-5.38
-5.74
-6.53
-7.74
-9.10
-10.19
-10.65
-10.30
-9.22
-7.67
-5.99
-4.38
-2.93
-1.58
-0.27
1.03
2.22
3.18
3.81
4.07
4.11
4.10
4.21
4.49
4.81
4.97
4.82
4.37
3.84
3.56
3.74
4.41
5.34
6.13
6.46
6.20
5.51
4.73
4.18
4.03
4.17
4.33
4.21
3.69
2.89
2.06
1.42
1.05
0.82
0.50
-0.06
-0.84
-1.66
-2.30
-2.67
-2.81
-2.93
-3.17
-3.62
-4.21
-4.80
-5.27
-5.59
-5.81
-6.08
-6.55
-7.27
-8.18
-9.09
-9.73
-9.83
-9.21
-7.90
-6.08
-4.08
-2.26
-0.88
0.01
0.48
0.75
0.96
1.22
1.54
1.90
2.30
2.77
3.36
4.02
4.60
4.90
4.80
4.35
3.81
3.50
3.70
4.43
5.41
6.25
6.58
6.27
5.48
4.53
3.79
3.42
3.33
3.28
3.02
2.46
1.70
0.96
0.42
0.16
0.07
-0.03
-0.27
-0.73
-1.33
-1.93
-2.40
-2.73
-3.04
-3.49
-4.18
-5.04
-5.90
-6.52
-6.80
-6.83
-6.90
-7.29
-8.07
-9.03
-9.74
-9.76
-8.86
-7.14
-4.96
-2.84
-1.14
-0.03
0.61
1.06
1.60
2.39
3.37
4.27
4.83
4.86
4.46
3.87
3.44
3.36
3.58
3.89
4.01
3.84
3.47
3.16
3.17
3.57
4.22
4.79
4.99
4.71
4.07
3.38
2.95
2.94
3.23
3.50
3.44
2.88
1.91
0.83
-0.04
-0.50
-0.61
-0.59
-0.70
-1.12
-1.82
-2.65
-3.41
-3.93
-4.23
-4.44
-4.74
-5.30
-6.13
-7.09
-7.99
-8.63
-8.97
-9.08
-9.05
-8.90
-8.51
-7.66
-6.19
-4.12
-1.76
0.45
2.05
2.86
2.97
2.76
2.62
2.77
3.14
3.49
3.53
3.21
2.71
2.37
2.47
3.06
3.86
4.46
4.54
4.07
3.33
2.75
2.68
3.18
3.96
4.57
4.62
4.02
3.04
2.13
1.65
1.71
2.07
2.33
2.16
1.50
0.61
-0.12
-0.38
-0.14
0.31
0.57
0.32
-0.50
-1.67
-2.82
-3.66
-4.10
-4.30
-4.53
-5.03
-5.87
-6.94
-8.01
-8.89
-9.45
-9.67
-9.57
-9.16
-8.41
-7.32
-5.91
-4.30
-2.64
-1.13
0.11
1.03
1.66
2.09
2.46
2.87
3.34
3.80
4.10
4.09
3.76
3.25
2.83
2.73
3.06
3.68
4.33
4.73
4.76
4.52
4.23
4.08
4.16
4.34
4.43
4.26
3.79
3.17
2.62
2.31
2.28
2.40
2.43
2.19
1.62
0.86
0.17
-0.25
-0.33
-0.21
-0.15
-0.43
-1.14
-2.18
-3.26
-4.11
-4.56
-4.66
-4.68
-4.89
-5.50
-6.52
-7.77
-8.96
-9.85
-10.31
-10.32
-9.94
-9.17
-7.98
-6.34
-4.31
-2.13
-0.12
1.37
2.20
2.47
2.46
2.49
2.76
3.23
3.73
4.03
4.04
3.80
3.48
3.27
3.32
3.66
4.20
4.74
5.09
5.15
4.93
4.59
4.35
4.36
4.59
4.84
4.88
4.54
3.84
3.01
2.32
1.94
1.84
1.82
1.66
1.26
0.64
-0.04
-0.62
-1.03
-1.36
-1.72
-2.22
-2.86
-3.52
-4.03
-4.33
-4.49
-4.75
-5.36
-6.45
-7.92
-9.45
-10.60
-11.01
-10.51
-9.22
-7.47
-5.68
-4.15
-3.01
-2.17
-1.46
-0.67
0.26
1.27
2.20
2.92
3.35
3.55
3.64
3.73
3.86
3.99
4.04
4.01
3.97
4.06
4.40
5.05
5.86
6.61
7.07
7.07
6.64
5.97
5.32
4.91
4.78
4.80
4.75
4.44
3.82
3.04
2.32
1.86
1.67
1.59
1.35
0.77
-0.16
-1.21
-2.09
-2.56
-2.63
-2.53
-2.56
-2.93
-3.65
-4.51
-5.27
-5.77
-6.16
-6.71
-7.71
-9.18
-10.81
-12.04
-12.27
-11.19
-8.98
-6.19
-3.55
-1.61
-0.54
-0.07
0.25
0.82
1.75
2.84
3.75
4.22
4.25
4.08
4.04
4.34
4.89
5.41
5.57
5.21
4.45
3.70
3.34
3.58
4.28
5.08
5.59
5.61
5.22
4.73
4.45
4.51
4.79
5.00
4.87
4.31
3.46
2.59
1.98
1.76
1.83
1.95
1.83
1.33
0.51
-0.41
-1.20
-1.73
-2.03
-2.30
-2.72
-3.36
-4.11
-4.80
-5.29
-5.62
-6.00
-6.68
-7.79
-9.19
-10.48
-11.15
-10.84
-9.49
-7.45
-5.23
-3.28
-1.81
-0.74
0.22
1.28
2.46
3.54
4.23
4.33
3.85
3.08
2.39
2.08
2.24
2.74
3.34
3.83
4.15
4.38
4.71
5.21
5.84
6.38
6.57
6.30
5.64
4.87
4.27
4.02
4.08
4.20
4.12
3.68
2.91
2.04
1.34
1.01
1.06
1.29
1.40
1.15
0.42
-0.68
-1.88
-2.89
-3.50
-3.72
-3.75
-3.88
-4.39
-5.38
-6.71
-8.09
-9.18
-9.82
-10.01
-9.87
-9.54
-9.00
-8.11
-6.73
-4.85
-2.70
-0.65
0.92
1.85
2.25
2.42
2.64
3.05
3.58
4.03
4.26
4.22
4.06
3.95
4.04
4.39
4.87
5.31
5.56
5.57
5.39
5.16
5.03
5.07
5.20
5.28
5.19
4.90
4.47
4.09
3.87
3.84
3.85
3.68
3.14
2.24
1.21
0.35
-0.07
-0.03
0.20
0.24
-0.25
-1.33
-2.78
-4.18
-5.17
-5.60
-5.65
-5.67
-6.02
-6.86
-8.12
-9.51
-10.68
-11.31
-11.25
-10.52
-9.26
-7.64
-5.83
-3.92
-1.98
-0.12
1.51
2.72
3.41
3.57
3.44
3.33
3.52
4.09
4.79
5.27
5.19
4.52
3.53
2.72
2.48
2.94
3.84
4.72
5.21
5.16
4.76
4.31
4.11
4.21
4.46
4.61
4.47
4.03
3.45
2.97
2.72
2.72
2.80
2.75
2.40
1.73
0.87
0.03
-0.62
-1.01
-1.21
-1.41
-1.76
-2.28
-2.89
-3.44
-3.84
-4.10
-4.40
-4.96
-5.90
-7.18
-8.59
-9.77
-10.40
-10.31
-9.54
-8.29
-6.84
-5.42
-4.15
-3.06
-2.07
-1.11
-0.16
0.75
1.55
2.23
2.82
3.37
3.89
4.35
4.63
4.62
4.31
3.81
3.36
3.20
3.47
4.15
5.04
5.83
6.25
6.17
5.68
5.00
4.39
4.04
3.95
3.98
3.94
3.67
3.18
2.62
2.17
2.01
2.08
2.20
2.11
1.63
0.78
-0.24
-1.20
-1.89
-2.35
-2.77
-3.37
-4.21
-5.17
-5.97
-6.42
-6.53
-6.59
-6.94
-7.79
-9.01
-10.13
-10.60
-10.02
-8.34
-5.94
-3.37
-1.19
0.31
1.15
1.58
1.90
2.32
2.86
3.39
3.79
3.98
4.01
4.01
4.11
4.32
4.53
4.61
4.45
4.10
3.79
3.77
4.20
5.01
5.89
6.43
6.34
5.59
4.49
3.47
2.89
2.83
3.07
3.25
3.09
2.55
1.84
1.24
0.92
0.86
0.85
0.66
0.17
-0.53
-1.25
-1.78
-2.02
-2.04
-2.03
-2.21
-2.71
-3.52
-4.52
-5.51
-6.38
-7.11
-7.82
-8.65
-9.64
-10.69
-11.49
-11.69
-11.03
-9.47
-7.27
-4.90
-2.79
-1.25
-0.26
0.40
1.02
1.79
2.67
3.43
3.86
3.87
3.63
3.45
3.62
4.19
4.94
5.50
5.59
5.17
4.49
3.92
3.75
4.05
4.59
5.05
5.17
4.91
4.43
3.98
3.73
3.71
3.78
3.75
3.51
3.06
2.49
1.97
1.59
1.33
1.10
0.74
0.18
-0.57
-1.39
-2.11
-2.59
-2.82
-2.91
-3.05
-3.40
-4.02
-4.82
-5.66
-6.40
-7.01
-7.59
-8.27
-9.08
-9.88
-10.39
-10.31
-9.45
-7.84
-5.77
-3.64
-1.81
-0.47
0.40
0.98
1.49
2.07
2.66
3.14
3.35
3.25
2.94
2.62
2.49
2.65
2.98
3.27
3.32
3.07
2.68
2.43
2.57
3.19
4.08
4.90
5.29
5.10
4.46
3.68
3.10
2.92
3.04
3.18
3.08
2.61
1.87
1.12
0.59
0.36
0.28
0.08
-0.46
-1.37
-2.44
-3.37
-3.92
-4.07
-4.06
-4.29
-5.06
-6.39
-8.04
-9.52
-10.34
-10.19
-9.08
-7.32
-5.34
-3.55
-2.15
-1.12
-0.28
0.58
1.50
2.42
3.19
3.67
3.91
4.05
4.28
4.63
4.98
5.09
4.78
4.08
3.27
2.75
2.79
3.37
4.20
4.85
5.03
4.70
4.09
3.52
3.21
3.17
3.23
3.15
2.81
2.25
1.60
1.02
0.57
0.20
-0.23
-0.85
-1.67
-2.62
-3.51
-4.17
-4.51
-4.59
-4.62
-4.86
-5.51
-6.60
-7.98
-9.32
-10.26
-10.49
-9.97
-8.82
-7.30
-5.66
-4.05
-2.50
-0.96
0.55
1.91
2.93
3.47
3.54
3.35
3.18
3.30
3.76
4.37
4.82
4.84
4.37
3.61
2.94
2.73
3.17
4.11
5.20
6.01
6.31
6.12
5.68
5.30
5.15
5.15
5.04
4.59
3.75
2.68
1.70
1.06
0.85
0.91
0.97
0.78
0.24
-0.55
-1.40
-2.12
-2.60
-2.91
-3.20
-3.65
-4.39
-5.35
-6.35
-7.20
-7.74
-8.05
-8.30
-8.67
-9.18
-9.59
-9.54
-8.69
-7.01
-4.81
-2.68
-1.12
-0.38
-0.26
-0.26
0.10
1.04
2.38
3.66
4.47
4.60
4.26
3.83
3.71
4.03
4.63
5.14
5.29
5.00
4.52
4.21
4.34
4.93
5.71
6.27
6.31
5.83
5.09
4.46
4.20
4.30
4.47
4.36
3.76
2.76
1.68
0.89
0.56
0.60
0.68
0.44
-0.29
-1.42
-2.64
-3.60
-4.11
-4.20
-4.12
-4.17
-4.58
-5.38
-6.43
-7.52
-8.41
-8.99
-9.25
-9.21
-8.87
-8.20
-7.11
-5.59
-3.73
-1.73
0.12
1.56
2.46
2.88
3.00
3.06
3.23
3.54
3.88
4.10
4.11
3.92
3.65
3.48
3.51
3.74
4.04
4.23
4.24
4.07
3.89
3.87
4.11
4.59
5.10
5.38
5.22
4.58
3.60
2.55
1.71
1.23
1.05
0.97
0.75
0.27
-0.44
-1.22
-1.86
-2.27
-2.52
-2.76
-3.17
-3.82
-4.59
-5.26
-5.65
-5.70
-5.61
-5.73
-6.35
-7.60
-9.26
-10.89
-11.97
-12.14
-11.32
-9.74
-7.79
-5.83
-4.06
-2.52
-1.18
-0.02
0.87
1.40
1.54
1.40
1.24
1.37
1.96
3.00
4.25
5.40
6.14
6.39
6.22
5.87
5.59
5.53
5.67
5.87
5.91
5.71
5.31
4.91
4.73
4.87
5.22
5.49
5.40
4.83
3.92
2.95
2.20
1.81
1.68
1.60
1.35
0.87
0.24
-0.37
-0.83
-1.12
-1.38
-1.77
-2.37
-3.20
-4.11
-4.94
-5.60
-6.10
-6.55
-7.08
-7.69
-8.21
-8.35
-7.83
-6.51
-4.52
-2.19
0.05
1.86
3.12
3.92
4.47
4.96
5.48
5.91
6.10
5.93
5.44
4.80
4.25
3.97
4.01
4.25
4.48
4.49
4.23
3.80
3.38
3.14
3.15
3.33
3.47
3.38
2.97
2.35
1.73
1.31
1.15
1.11
0.98
0.57
-0.14
-0.97
-1.69
-2.13
-2.29
-2.35
-2.58
-3.15
-4.15
-5.48
-6.96
-8.35
-9.42
-10.02
-10.06
-9.55
-8.53
-7.08
-5.32
-3.37
-1.39
0.37
1.71
2.46
2.67
2.56
2.44
2.60
3.11
3.83
4.45
4.68
4.44
3.87
3.24
2.86
2.88
3.24
3.74
4.15
4.37
4.38
4.31
4.27
4.28
4.26
4.06
3.57
2.81
1.93
1.16
0.66
0.48
0.48
0.43
0.10
-0.57
-1.49
-2.41
-3.08
-3.41
-3.52
-3.69
-4.18
-5.12
-6.40
-7.75
-8.89
-9.61
-9.93
-9.89
-9.52
-8.77
-7.51
-5.70
-3.48
-1.14
0.96
2.53
3.50
4.01
4.29
4.51
4.77
5.02
5.12
4.97
4.51
3.82
3.05
2.41
2.06
2.14
2.61
3.32
4.05
4.57
4.81
4.83
4.76
4.79
4.90
5.01
4.97
4.70
4.29
3.94
3.84
4.01
4.23
4.20
3.65
2.60
1.36
0.39
0.01
0.25
0.78
1.11
0.79
-0.32
-2.00
-3.80
-5.28
-6.21
-6.68
-7.01
-7.57
-8.53
-9.82
-11.17
-12.22
-12.71
-12.58
-11.92
-10.91
-9.65
-8.21
-6.57
-4.75
-2.82
-0.96
0.59
1.66
2.18
2.25
2.14
2.13
2.44
3.07
3.81
4.38
4.54
4.28
3.78
3.38
3.33
3.69
4.27
4.84
5.20
5.35
5.42
5.59
5.86
6.06
5.91
5.23
4.09
2.82
1.86
1.50
1.77
2.33
2.75
2.66
2.02
1.04
0.12
-0.45
-0.65
-0.69
-0.88
-1.40
-2.22
-3.06
-3.62
-3.75
-3.56
-3.42
-3.70
-4.63
-6.15
-7.95
-9.65
-10.92
-11.59
-11.70
-11.37
-10.69
-9.70
-8.34
-6.57
-4.43
-2.08
0.16
1.96
3.08
3.49
3.37
3.10
3.01
3.30
3.86
4.41
4.58
4.20
3.35
2.39
1.75
1.71
2.22
3.01
3.70
4.07
4.17
4.24
4.54
5.14
5.82
6.24
6.11
5.39
4.34
3.34
2.73
2.58
2.71
2.81
2.62
2.09
1.36
0.66
0.18
-0.06
-0.20
-0.43
-0.93
-1.73
-2.73
-3.68
-4.37
-4.67
-4.68
-4.67
-4.96
-5.79
-7.17
-8.85
-10.40
-11.41
-11.65
-11.09
-9.91
-8.36
-6.61
-4.77
-2.89
-1.03
0.67
2.04
2.95
3.38
3.44
3.36
3.38
3.66
4.19
4.74
5.08
5.02
4.55
3.88
3.31
3.08
3.21
3.54
3.85
4.01
4.06
4.18
4.53
5.09
5.64
5.84
5.46
4.53
3.34
2.32
1.78
1.77
2.03
2.17
1.86
1.05
-0.05
-1.06
-1.71
-1.95
-1.98
-2.14
-2.63
-3.44
-4.35
-5.07
-5.49
-5.68
-5.94
-6.60
-7.81
-9.42
-11.00
-12.02
-12.06
-10.95
-8.88
-6.31
-3.79
-1.75
-0.35
0.57
1.29
2.10
3.06
4.02
4.72
4.94
4.72
4.29
3.95
3.91
4.10
4.28
4.19
3.74
3.11
2.64
2.60
3.06
3.80
4.49
4.86
4.83
4.55
4.27
4.16
4.23
4.32
