1563030699.00
64.000000
-0.00
-0.00
-0.00
-0.00
-0.00
-0.00
-0.00
-0.00
-0.00
-0.00
0.00
0.01
0.01
-0.00
-0.03
-0.05
-0.05
0.00
0.13
0.36
0.66
1.01
1.37
1.72
2.06
2.40
2.79
3.24
3.80
4.42
5.06
5.66
6.20
6.68
7.15
7.68
8.31
9.14
10.09
11.04
11.88
12.56
13.14
13.76
14.65
15.96
17.91
20.32
22.90
25.38
27.58
29.57
31.68
34.32
37.81
42.54
48.15
54.10
59.83
64.97
69.58
74.14
79.34
85.71
93.76
103.00
112.62
121.73
129.77
136.75
143.30
150.75
157.77
166.64
177.95
191.79
206.97
220.57
228.25
225.36
208.53
176.87
132.76
80.05
23.07
-34.94
-92.44
-149.16
-205.23
-260.37
-313.74
-363.87
-409.83
-450.91
-486.50
-515.74
-537.23
-549.22
-549.96
-538.37
-514.21
-478.67
-433.88
-382.45
-327.02
-269.84
-212.63
-156.66
-102.95
-52.37
-5.90
35.58
71.43
101.35
125.50
144.38
158.69
169.15
176.37
180.75
182.57
182.07
179.51
175.23
169.65
163.18
156.15
148.81
141.30
133.69
126.02
118.33
110.69
103.16
95.80
88.68
81.83
75.25
68.95
62.95
57.25
51.86
46.78
42.03
37.59
33.45
29.61
26.07
22.81
19.83
17.11
14.67
12.48
10.54
8.83
7.35
6.07
4.97
4.05
3.27
2.62
2.09
1.65
1.30
1.01
0.79
0.61
0.47
0.37
0.28
0.22
0.18
0.15
0.13
0.12
0.12
0.13
0.15
0.17
0.20
0.23
0.27
0.31
0.35
0.39
0.44
0.48
0.53
0.58
0.63
0.69
0.75
0.81
0.88
0.96
1.04
1.13
1.24
1.35
1.48
1.63
1.79
1.97
2.17
2.40
2.64
2.92
3.22
3.55
3.91
4.31
4.74
5.21
5.72
6.26
6.84
7.46
8.13
8.84
9.60
10.40
11.24
12.13
13.05
14.04
15.09
16.20
17.37
18.59
19.85
21.10
22.30
23.35
24.15
24.54
24.40
23.60
22.08
19.81
16.84
13.28
9.21
4.82
0.26
-4.27
-8.58
-12.51
-15.86
-18.51
-20.39
-21.51
-21.95
-21.87
-21.44
-20.79
-20.01
-19.10
-18.03
-16.77
-15.32
-13.79
-12.34
-11.14
-10.28
-9.72
-9.28
-8.73
-7.87
-6.68
-5.33
-4.19
-3.62
-3.82
-4.69
-5.86
-6.80
-7.07
-6.58
-5.59
-4.74
-4.63
-5.60
-7.53
-9.86
-11.84
-12.91
-12.94
-12.27
-11.61
-11.71
-13.14
-16.30
-21.27
-27.65
-34.24
-39.04
-39.63
-34.14
-22.08
-4.94
14.19
31.67
44.64
51.92
53.88
52.66
49.97
46.88
43.59
39.77
35.19
30.28
26.05
23.48
22.90
23.43
23.42
21.25
16.19
8.87
0.95
-5.82
-10.48
-13.27
-15.39
-18.18
-22.43
-28.03
-34.18
-39.71
-43.48
-44.52
-42.06
-35.79
-25.89
-13.18
1.03
15.18
27.92
38.27
45.67
50.01
51.44
50.50
48.04
45.12
42.57
40.78
39.47
37.93
35.46
31.76
27.20
22.53
18.48
15.37
13.03
11.05
9.13
7.31
5.77
4.58
3.34
1.28
-2.29
-7.62
-14.18
-20.93
-26.68
-30.67
-32.89
-33.99
-35.04
-36.89
-40.07
-44.52
-49.80
-55.17
-59.69
-62.39
-62.26
-58.61
-51.23
-40.61
-27.87
-14.49
-1.97
8.57
16.62
22.30
26.13
28.76
30.71
32.23
33.31
33.71
33.25
31.78
29.50
26.67
23.64
20.63
17.72
14.87
12.08
9.42
6.99
4.89
3.08
1.44
-0.16
-1.84
-3.74
-5.99
-8.74
-12.08
-15.94
-20.08
-24.17
-27.90
-31.19
-34.19
-37.21
-40.57
-44.47
-48.97
-53.97
-59.19
-64.05
-67.71
-69.03
-66.90
-60.58
-50.12
-36.47
-21.34
-6.67
6.01
16.04
23.68
29.79
35.27
40.52
45.32
48.93
50.62
49.96
47.12
42.74
37.72
32.86
28.66
25.33
22.71
20.49
18.33
16.08
13.89
12.11
11.10
10.84
10.87
10.37
8.49
4.88
-0.29
-6.24
-12.04
-16.95
-20.77
-23.80
-26.72
-30.24
-34.87
-40.82
-47.79
-55.04
-61.29
-65.05
-64.86
-59.87
-50.15
-36.77
-21.58
-6.54
6.80
17.74
26.36
33.15
38.58
42.81
45.78
47.37
47.62
46.74
45.02
42.75
40.13
37.37
34.61
31.96
29.38
26.70
23.75
20.60
17.62
15.25
13.71
12.71
11.49
9.13
5.08
-0.43
-6.60
-12.36
-17.08
-20.71
-23.88
-27.32
-31.53
-36.61
-42.35
-48.51
-54.83
-60.78
-65.28
-66.73
-63.44
-54.53
-40.55
-23.61
-6.67
7.64
18.01
24.76
29.21
32.73
35.86
38.18
38.88
37.54
34.58
31.19
28.60
27.46
27.35
27.11
25.53
22.13
17.55
13.30
10.97
11.29
13.68
16.33
17.17
14.82
9.47
2.77
-3.06
-6.42
-7.39
-7.60
-9.43
-14.54
-22.92
-32.76
-41.51
-47.16
-49.32
-49.13
-48.37
-48.22
-48.37
-47.23
-42.80
-33.97
-21.26
-6.67
7.26
18.58
26.59
31.93
35.92
39.85
44.54
50.26
56.89
64.05
71.09
77.04
80.77
81.36
78.54
72.94
65.98
59.47
55.03
53.75
55.85
60.68
66.90
72.81
76.87
78.13
76.43
72.21
66.09
58.50
49.69
39.64
28.99
19.44
13.14
11.86
15.65
23.38
33.49
44.75
56.21
67.46
78.36
88.43
96.97
102.96
106.16
107.33
107.69
107.17
105.27
101.83
97.35
93.27
90.11
87.88
85.73
81.63
70.32
48.64
18.30
-14.58
-41.53
-58.70
-65.97
-66.50
-65.86
-75.13
-99.92
-136.24
-172.71
-195.03
-199.61
-189.55
-171.90
-155.45
-155.99
-181.29
-226.84
-280.04
-325.65
-363.69
-399.70
-439.48
-487.48
-556.42
-650.79
-762.22
-873.74
-964.29
-1030.31
-1073.49
-1096.01
-1022.74
-823.97
-535.06
-232.55
-14.01
133.64
232.69
299.61
353.09
400.44
433.83
448.21
447.46
441.67
444.17
451.28
456.10
454.43
444.78
420.48
380.74
333.06
289.31
262.12
248.82
242.44
237.03
228.43
210.15
180.13
142.19
103.53
72.71
49.80
32.79
20.16
10.17
-1.36
-17.61
-38.95
-62.70
-83.57
-98.80
-106.29
-104.70
-94.56
-78.80
-60.83
-43.22
-27.07
-12.03
1.81
14.62
26.73
38.20
48.72
57.34
62.89
64.40
61.61
55.18
46.50
37.12
28.31
20.87
15.06
10.84
7.86
5.55
3.01
-0.77
-6.55
-14.26
-22.80
-30.09
-33.76
-32.12
-25.00
-13.98
-1.83
8.42
14.61
16.04
13.23
7.32
-0.58
-9.64
-18.98
-27.39
-33.15
-34.58
-30.80
-22.25
-10.49
2.58
15.73
28.75
42.16
56.45
71.32
85.85
98.91
109.89
118.71
125.61
130.58
133.28
133.46
131.42
128.19
125.34
124.32
126.18
131.52
140.81
154.29
171.41
189.92
205.49
212.67
207.13
187.96
158.86
127.26
101.59
87.73
86.60
93.90
101.78
101.97
88.70
60.09
17.92
-33.83
-90.56
-148.25
-203.61
-253.90
-296.54
-329.04
-349.35
-356.49
-350.84
-334.15
-308.82
-276.97
-239.73
-197.22
-149.10
-95.45
-37.59
21.65
78.33
128.26
168.04
195.56
210.24
212.71
204.44
187.77
165.88
142.73
122.67
109.55
105.71
111.29
124.33
141.69
160.27
177.70
192.38
202.77
206.79
201.95
186.35
160.15
126.03
88.58
52.44
20.37
-7.74
-34.07
-61.03
-89.29
-116.80
-139.60
-153.49
-156.05
-147.63
-130.93
-109.86
-87.91
-67.43
-49.39
-34.07
-21.59
-12.28
-6.45
-4.04
-4.28
-5.70
-6.46
-4.88
0.10
8.55
19.55
31.27
41.41
47.62
48.32
43.15
33.35
21.32
9.88
1.20
-3.88
-5.95
-6.57
-7.37
-9.23
-12.10
-15.17
-17.52
-18.71
-18.97
-19.02
-19.72
-21.73
-25.38
-30.66
-37.28
-44.67
-52.02
-58.33
-62.57
-63.92
-61.99
-56.80
-48.81
-38.63
-26.92
-14.24
-1.11
11.92
24.28
35.43
45.01
52.83
58.89
63.20
65.75
66.48
65.44
62.86
59.31
55.41
51.75
48.62
45.98
43.50
40.87
37.88
34.51
30.85
26.93
22.68
17.99
12.91
7.66
2.61
-1.96
-6.08
-10.24
-15.22
-21.72
-29.94
-39.30
-48.49
-55.91
-60.32
-61.19
-58.81
-53.94
-47.32
-39.39
-30.30
-20.19
-9.50
0.97
10.43
18.41
24.94
30.39
35.16
39.32
42.63
44.74
45.41
44.70
42.88
40.25
37.09
33.64
30.11
26.73
23.79
21.50
19.91
18.83
17.85
16.37
13.84
10.01
5.02
-0.53
-5.81
-10.21
-13.63
-16.48
-19.52
-23.54
-28.97
-35.83
-43.69
-51.81
-59.25
-64.97
-67.99
-67.57
-63.42
-55.81
-45.55
-33.89
-22.14
-11.42
-2.35
4.96
10.80
15.66
19.97
23.91
27.48
30.43
32.48
33.39
32.96
31.17
28.23
24.59
20.90
17.84
15.92
15.28
15.57
16.16
16.34
15.58
13.67
10.76
7.10
2.91
-1.75
-6.87
-12.32
-17.76
-22.67
-26.74
-30.08
-33.41
-37.68
-43.51
-50.63
-57.79
-63.19
-65.20
-63.09
-57.17
-48.53
-38.48
-28.12
-18.08
-8.70
-0.21
7.20
13.35
18.19
21.91
24.85
27.34
29.58
31.57
33.11
34.00
34.00
32.98
30.95
28.10
24.81
21.45
18.32
15.56
13.11
10.76
8.28
5.50
2.32
-1.20
-4.90
-8.62
-12.26
-15.84
-19.48
-23.31
-27.41
-31.79
-36.45
-41.39
-46.60
-51.86
-56.65
-60.08
-61.13
-59.06
-53.71
-45.53
-35.44
-24.42
-13.34
-2.77
6.83
15.08
21.75
26.79
30.48
33.22
35.35
36.89
37.56
36.94
34.89
31.61
27.74
24.05
21.18
19.39
18.55
18.24
17.99
17.46
16.47
14.97
12.87
10.03
6.31
1.75
-3.35
-8.45
-13.02
-16.78
-19.82
-22.53
-25.42
-28.95
-33.37
-38.77
-44.99
-51.56
-57.57
-61.80
-63.05
-60.59
-54.48
-45.62
-35.33
-24.87
-15.01
-5.99
2.36
10.17
17.42
23.85
29.14
33.02
35.46
36.63
36.79
36.18
34.96
33.23
30.99
28.29
25.27
22.21
19.51
17.46
16.14
15.33
14.55
13.23
11.07
8.08
4.69
1.50
-1.10
-3.13
-5.08
-7.65
-11.39
-16.36
-22.06
-27.76
-32.91
-37.48
-41.83
-46.51
-51.65
-56.69
-60.48
-61.82
-59.98
-55.08
-47.89
-39.43
-30.49
-21.44
-12.34
-3.23
5.73
14.15
21.61
27.72
32.24
35.08
36.32
36.23
35.27
33.87
32.29
30.52
28.34
25.61
22.57
19.82
18.04
17.57
18.11
18.83
18.83
17.58
15.17
12.06
8.75
5.40
1.78
-2.45
-7.40
-12.77
-17.95
-22.40
-25.87
-28.73
-31.71
-35.63
-40.92
-47.31
-53.79
-58.97
-61.58
-60.91
-57.09
-50.81
-42.87
-33.89
-24.13
-13.71
-3.00
7.35
16.50
23.80
29.08
32.63
34.98
36.50
37.20
36.84
35.25
32.53
29.16
25.80
23.00
21.02
19.87
19.25
18.80
18.18
17.20
15.74
13.80
11.41
8.55
5.19
1.33
-2.99
-7.64
-12.41
-17.00
-21.21
-25.02
-28.65
-32.48
-36.91
-42.08
-47.85
-53.74
-59.07
-63.14
-65.33
-65.24
-62.69
-57.63
-50.14
-40.52
-29.31
-17.33
-5.58
5.03
13.92
21.00
26.71
31.64
36.26
40.68
44.57
47.44
48.85
48.71
47.22
44.82
42.00
39.15
36.60
34.55
33.15
32.37
31.98
31.49
30.32
28.04
24.55
20.20
15.58
11.32
7.73
4.80
2.17
-0.58
-3.82
-7.66
-12.03
-16.70
-21.40
-25.86
-29.98
-33.89
-37.82
-42.11
-47.03
-52.50
-58.04
-62.77
-65.61
-65.67
-62.54
-56.41
-47.97
-38.13
-27.67
-17.11
-6.77
3.18
12.50
20.89
28.06
33.86
38.31
41.64
44.04
45.66
46.60
46.91
46.73
46.22
45.51
44.68
43.78
42.80
41.79
40.74
39.61
38.28
36.59
34.43
31.82
28.86
25.73
22.62
19.65
16.78
13.93
11.04
8.08
5.12
2.19
-0.72
-3.71
-6.90
-10.35
-14.01
-17.80
-21.70
-25.83
-30.44
-35.75
-41.82
-48.34
-54.73
-60.16
-63.94
-65.55
-64.76
-61.56
-56.06
-48.57
-39.56
-29.65
-19.60
-10.04
-1.41
6.06
12.41
17.75
22.24
25.97
28.95
31.09
32.27
32.44
31.68
30.29
28.77
27.64
27.29
27.79
28.86
29.90
30.25
29.44
27.34
24.27
20.77
17.44
14.66
12.43
10.38
7.98
4.76
0.72
-3.81
-8.22
-11.96
-14.85
-17.08
-19.08
-21.37
-24.29
-28.07
-32.73
-38.25
-44.39
-50.65
-56.18
-59.81
-60.52
-57.64
-51.22
-42.03
-31.37
-20.66
-11.00
-3.00
3.36
8.56
13.26
18.05
23.28
28.89
34.47
39.39
42.94
44.63
44.31
42.24
39.02
35.43
32.27
30.14
29.29
29.53
30.35
31.12
31.27
30.48
28.80
26.56
24.27
22.38
21.12
20.31
19.40
17.71
14.70
10.23
4.74
-0.92
-5.85
-9.55
-12.14
-14.22
-16.47
-19.24
-22.34
-25.30
-27.76
-29.87
-32.18
-35.42
-39.97
-45.61
-51.48
-56.42
-59.43
-59.81
-57.28
-51.92
-44.01
-34.16
-23.27
-12.47
-2.83
4.98
10.85
15.19
18.69
21.93
25.20
28.41
31.26
33.42
34.60
34.72
33.83
32.15
30.04
27.88
26.09
24.92
24.46
24.63
25.22
25.93
26.44
26.49
25.92
24.76
23.21
21.51
19.84
18.16
16.27
13.92
10.96
7.48
3.79
0.32
-2.61
-4.92
-6.75
-8.51
-10.60
-13.22
-16.40
-19.88
-23.34
-26.48
-29.11
-31.30
-33.31
-35.63
-38.76
-43.02
-48.30
-53.91
-58.64
-61.15
-60.34
-55.80
-47.96
-37.91
-27.05
-16.59
-7.24
0.73
7.39
12.92
17.39
20.79
23.09
24.39
24.95
25.14
25.23
25.30
25.18
24.59
23.36
21.59
19.74
18.40
17.98
18.52
19.64
20.71
21.12
20.59
19.17
17.21
15.12
13.08
11.02
8.73
6.02
2.86
-0.51
-3.81
-6.78
-9.40
-11.91
-14.75
-18.28
-22.69
-27.95
-33.80
-39.92
-45.94
-51.48
-56.04
-59.02
-59.70
-57.48
-52.14
-43.95
-33.71
-22.54
-11.60
-1.68
6.85
14.02
20.15
25.49
30.18
34.10
36.97
38.53
38.62
37.34
35.06
32.38
29.95
28.29
27.54
27.48
27.68
27.70
27.32
26.53
25.45
24.14
22.57
20.70
18.51
16.19
13.94
11.88
9.94
7.86
5.33
2.24
-1.29
-5.06
-8.81
-12.55
-16.30
-20.13
-23.86
-27.22
-29.99
-32.20
-34.28
-36.93
-40.78
-46.09
-52.32
-58.27
-62.31
-62.99
-59.57
-52.34
-42.40
-31.24
-20.21
-10.16
-1.43
6.02
12.32
17.55
21.80
25.23
28.13
30.75
33.27
35.56
37.34
38.25
38.20
37.32
35.95
34.49
33.22
32.27
31.64
31.28
31.14
31.16
31.21
31.07
30.53
29.47
27.90
25.97
23.87
21.73
19.52
17.13
14.40
11.29
7.90
4.45
1.19
-1.76
-4.43
-7.01
-9.75
-12.76
-15.95
-19.08
-21.92
-24.36
-26.61
-28.97
-31.74
-35.04
-38.77
-42.85
-47.26
-52.05
-57.10
-61.97
-65.64
-66.90
-64.66
-58.53
-48.95
-37.16
-24.71
-13.02
-3.03
4.96
11.09
15.78
19.50
22.59
25.17
27.18
28.48
28.94
28.59
27.62
26.34
25.12
24.16
23.48
23.01
22.73
22.72
23.15
24.08
25.39
26.67
27.42
27.21
25.89
23.58
20.57
17.18
13.56
9.72
5.59
1.13
-3.45
-7.86
-11.72
-14.80
-17.21
-19.40
-22.04
-25.77
-30.91
-37.30
-44.35
-51.24
-57.14
-61.37
-63.37
-62.68
-58.93
-52.05
-42.46
-31.10
-19.24
-8.15
1.41
9.29
15.81
21.45
26.49
30.81
34.10
36.10
36.85
36.73
36.22
35.69
35.12
34.30
33.03
31.37
29.72
28.57
28.26
28.68
29.35
29.68
29.29
28.17
26.54
24.75
22.91
20.92
18.55
15.66
12.34
8.84
5.39
2.03
-1.37
-5.03
-9.11
-13.52
-17.97
-22.20
-26.05
-29.67
-33.38
-37.62
-42.74
-48.86
-55.68
-62.51
-68.29
-71.80
-71.95
-68.18
-60.69
-50.40
-38.74
-27.10
-16.47
-7.20
0.84
8.06
14.73
20.93
26.50
31.26
35.10
38.05
40.20
41.64
42.27
41.94
40.54
38.23
35.51
33.14
31.81
31.86
33.09
34.80
36.13
36.40
35.37
33.30
30.77
28.38
26.48
25.09
23.85
22.30
20.02
16.92
13.23
9.45
6.00
3.03
0.30
-2.73
-6.55
-11.27
-16.54
-21.65
-25.97
-29.30
-32.04
-35.05
-39.25
-45.14
-52.52
-60.61
-68.24
-74.31
-77.91
-78.44
-75.57
-69.16
-59.35
-46.74
-32.42
-17.89
-4.72
5.95
13.76
19.16
23.10
26.53
29.96
33.31
36.12
37.90
38.45
38.01
37.01
35.91
34.93
34.09
33.29
32.54
31.93
31.56
31.39
31.17
30.54
29.28
27.41
25.19
22.92
20.76
18.64
16.26
13.24
9.32
4.46
-1.09
-6.84
-12.23
-16.86
-20.61
-23.75
-26.80
-30.36
-34.90
-40.63
-47.40
-54.76
-61.96
-67.88
-71.31
-71.15
-66.73
-58.17
-46.42
-32.97
-19.45
-7.13
3.34
11.85
18.69
24.20
28.67
32.23
34.87
36.54
37.17
36.78
35.61
34.00
32.38
31.03
30.07
29.48
29.16
29.07
29.21
29.58
30.07
30.42
30.15
28.92
26.56
23.24
19.44
15.66
12.25
9.15
5.92
1.97
-3.11
-9.25
-15.83
-21.96
-26.97
-30.72
-33.92
-37.62
-42.82
-49.88
-58.36
-67.09
-74.52
-79.28
-80.38
-77.42
-70.59
-60.53
-48.27
-35.04
-22.05
-10.24
-0.09
8.46
15.85
22.68
29.41
36.16
42.66
48.36
52.71
55.37
56.28
55.72
54.11
51.93
49.63
47.63
46.33
45.94
46.47
47.62
48.89
49.78
50.08
49.86
49.40
48.94
48.43
47.62
46.14
43.82
40.74
37.16
33.42
29.74
26.29
23.12
20.23
17.54
14.93
12.22
9.36
6.45
3.73
1.47
-0.26
-1.70
-3.29
-5.41
-8.24
-11.65
-15.34
-19.02
-22.59
-26.11
-29.68
-33.39
-37.17
-40.85
-44.23
-47.21
-49.95
-52.93
-56.79
-62.11
-69.07
-77.23
-85.50
-92.45
-96.66
-97.14
-93.51
-85.96
-75.07
-61.70
-46.90
-31.84
-17.66
-5.34
4.59
12.15
17.90
22.58
26.85
31.01
34.92
38.16
40.37
41.47
41.74
41.56
41.32
41.06
40.64
39.87
38.85
37.97
37.81
38.72
40.60
42.83
44.53
45.03
44.14
42.20
39.78
37.32
34.89
32.24
29.06
25.17
20.67
15.90
11.22
6.86
2.86
-0.95
-4.86
-9.07
-13.64
-18.42
-23.20
-27.83
-32.29
-36.75
-41.50
-46.87
-53.02
-59.90
-67.11
-73.95
-79.41
-82.29
-81.50
-76.35
-66.89
-53.97
-39.09
-23.92
-9.86
2.27
12.29
20.38
26.84
31.95
35.95
39.05
41.48
43.38
44.71
45.34
45.08
43.89
42.00
39.84
37.86
36.45
35.64
35.28
35.10
34.85
34.45
33.89
33.20
32.32
31.12
29.39
26.97
23.78
19.90
15.61
11.23
6.95
2.76
-1.55
-6.23
-11.41
-16.94
-22.47
-27.59
-32.10
-36.17
-40.24
-44.92
-50.66
-57.53
-65.21
-72.93
-79.62
-84.09
-85.24
-82.25
-74.87
-63.52
-49.29
-33.75
-18.55
-5.09
5.82
14.16
20.49
25.66
30.43
35.18
39.89
44.19
47.66
49.96
50.95
50.66
49.32
47.25
44.81
42.39
40.32
38.88
38.27
38.60
39.77
41.44
43.07
44.02
43.81
42.28
39.65
36.36
32.88
29.40
25.92
22.25
18.17
13.60
8.58
3.29
-2.01
-7.07
-11.71
-15.91
-19.85
-23.76
-27.76
-31.86
-35.95
-39.91
-43.91
-48.35
-53.75
-60.42
-68.17
-76.13
-82.90
-86.90
-86.81
-81.98
-72.66
-59.97
-45.59
-31.25
-18.20
-7.01
2.44
10.62
17.94
24.58
30.51
35.56
39.68
42.93
45.39
47.08
47.85
47.49
45.88
43.28
40.32
37.78
36.36
36.27
37.18
38.34
38.98
38.63
37.27
35.26
33.02
30.77
28.47
25.88
22.79
19.07
14.76
9.93
4.82
-0.31
-5.16
-9.54
-13.47
-17.22
-21.18
-25.54
-30.22
-34.93
-39.50
-44.15
-49.52
-56.20
-64.09
-72.10
-78.21
-80.39
-77.28
-69.00
-56.85
-42.85
-28.79
-15.79
-4.21
6.05
15.08
22.84
29.08
33.68
36.75
38.58
39.58
40.01
39.97
39.34
37.99
35.97
33.48
30.94
28.76
27.25
26.45
26.23
26.35
26.58
26.74
26.67
26.19
25.04
23.04
20.13
16.44
12.30
7.95
3.55
-0.97
-5.75
-10.85
-16.16
-21.45
-26.49
-31.25
-35.96
-41.06
-46.99
-53.94
-61.56
-68.97
-74.88
-77.95
-77.17
-72.20
-63.43
-51.83
-38.63
-25.04
-12.02
-0.25
9.83
18.05
24.52
29.61
33.85
37.61
41.06
44.05
46.34
47.74
48.18
47.76
46.58
44.77
42.36
39.51
36.57
34.06
32.45
31.97
32.39
33.10
33.39
32.66
30.72
27.71
23.97
19.86
15.60
11.23
6.79
2.37
-1.94
-6.07
-10.11
-14.24
-18.66
-23.44
-28.48
-33.57
-38.63
-43.78
-49.37
-55.71
-62.82
-70.22
-76.88
-81.49
-82.78
-79.88
-72.63
-61.59
-47.92
-33.12
-18.60
-5.45
5.78
14.96
22.29
28.07
32.67
36.37
39.37
41.75
43.51
44.56
44.82
44.33
43.23
41.76
40.10
38.39
36.69
35.09
33.77
32.82
32.28
31.89
31.20
29.81
27.54
24.58
21.33
18.18
15.30
12.59
9.79
6.69
3.15
-0.83
-5.19
-9.87
-14.74
-19.62
-24.25
-28.51
-32.41
-36.23
-40.45
-45.50
-51.59
-58.50
-65.57
-71.74
-75.77
-76.52
-73.27
-66.00
-55.41
-42.77
-29.47
-16.68
-5.13
4.90
13.41
20.50
26.29
30.85
34.31
36.80
38.38
39.02
38.60
37.09
34.71
31.94
29.44
27.68
26.82
26.62
26.69
26.66
26.42
26.02
25.57
25.00
24.08
22.51
20.04
16.72
12.87
8.92
5.15
1.56
-2.11
-6.20
-10.88
-16.09
-21.52
-26.87
-31.95
-36.81
-41.70
-46.90
-52.63
-58.84
-65.14
-70.70
-74.39
-74.88
-71.14
-62.81
-50.46
-35.58
-20.10
-5.83
6.11
15.45
22.66
28.54
33.71
38.48
42.73
46.11
48.26
49.06
48.64
47.30
45.36
43.11
40.72
38.37
36.28
34.63
33.54
32.94
32.59
32.18
31.39
30.06
28.13
25.60
22.55
19.13
15.53
11.94
8.41
4.85
0.96
-3.47
-8.51
-13.86
-19.08
-23.76
-27.77
-31.33
-34.90
-39.03
-44.13
-50.28
-57.33
-64.82
-72.09
-78.27
-82.39
-83.44
-80.60
-73.47
-62.24
-47.89
-31.94
-16.24
-2.40
8.71
17.17
23.75
29.44
34.91
40.16
44.73
48.05
49.97
50.71
50.75
50.32
49.25
47.26
44.18
40.50
37.10
34.89
34.24
34.78
35.57
35.71
34.80
32.94
30.56
27.94
25.08
21.71
17.69
13.21
8.77
4.85
1.59
-1.32
-4.52
-8.56
-13.54
-19.14
-24.71
-29.64
-33.64
-36.89
-39.95
-43.52
-48.17
-54.08
-60.93
-67.88
-73.63
-76.74
-75.92
-70.43
-60.42
-46.88
-31.41
-15.85
-1.77
9.83
18.63
24.87
29.15
32.09
34.18
35.61
36.33
36.22
35.17
33.26
30.78
28.12
25.70
23.88
22.87
22.77
23.52
24.86
26.31
27.24
27.09
25.60
22.93
19.60
16.21
13.15
10.36
7.49
4.11
0.00
-4.72
-9.76
-14.88
-19.98
-25.11
-30.41
-35.87
-41.57
-47.54
-53.81
-60.19
-66.06
-70.30
-71.62
-68.93
-61.84
-50.82
-37.10
-22.21
-7.68
5.20
15.60
23.11
27.86
30.49
31.91
33.01
34.27
35.58
36.48
36.52
35.49
33.62
31.37
29.14
27.19
25.58
24.29
23.35
22.80
22.63
22.66
22.55
21.82
20.07
17.03
12.79
7.79
2.69
-1.87
-5.55
-8.42
-11.06
-14.12
-18.24
-23.72
-30.58
-38.56
-47.24
-56.01
-63.94
-69.90
-72.60
-71.01
-64.76
-54.31
-40.88
-26.11
-11.59
1.50
12.49
21.22
27.89
32.88
36.69
39.73
42.25
44.22
45.44
45.53
44.26
41.73
38.39
34.99
32.24
30.56
29.89
29.73
29.42
28.52
26.94
24.90
22.69
20.42
17.85
14.64
10.48
5.47
0.02
-5.34
-10.24
-14.70
-19.07
-23.78
-29.15
-35.26
-42.03
-49.25
-56.66
-63.80
-69.87
-73.72
-74.10
-70.05
-61.37
-48.84
-34.10
-19.17
-5.76
5.23
13.81
20.74
26.85
32.69
38.23
43.02
46.55
48.57
49.25
49.01
48.25
47.15
45.65
43.60
41.00
38.03
35.07
32.47
30.38
28.69
27.11
25.33
23.12
20.27
16.63
12.10
6.72
0.84
-4.97
-10.20
-14.59
-18.44
-22.40
-27.16
-33.13
-40.21
-47.97
-55.88
-63.48
-70.33
-75.73
-78.69
-78.06
-73.05
-63.74
-51.10
-36.72
-22.24
-8.80
3.09
13.45
22.41
30.13
36.62
42.02
46.48
50.18
53.20
55.29
56.10
55.33
53.00
49.49
45.47
41.55
38.19
35.47
33.30
31.48
29.85
28.31
26.70
24.70
21.88
17.80
12.39
5.96
-0.82
-7.25
-12.96
-18.02
-22.93
-28.18
-34.09
-40.59
-47.46
-54.42
-61.09
-66.97
-71.18
-72.64
-70.39
-64.01
-53.89
-41.19
-27.45
-14.05
-1.96
8.51
17.48
25.33
32.38
38.76
44.27
48.54
51.26
52.28
51.88
50.58
48.90
47.06
44.93
42.19
38.67
34.59
30.54
27.26
25.15
24.09
23.44
22.34
20.07
16.36
11.44
5.89
0.30
-4.91
-9.66
-14.08
-18.47
-23.13
-28.25
-33.96
-40.28
-46.99
-53.63
-59.34
-63.06
-63.75
-60.76
-54.06
-44.26
-32.44
-19.80
-7.41
3.98
13.93
22.36
29.39
35.29
40.31
44.45
47.51
49.17
49.18
47.57
44.61
40.75
36.36
31.76
27.23
23.07
19.71
17.46
16.39
16.08
15.88
14.96
12.74
9.02
4.05
-1.59
-7.18
-12.15
-16.27
-19.75
-23.14
-27.15
-32.27
-38.53
-45.41
-51.97
-57.07
-59.64
-59.09
-55.26
-48.56
-39.74
-29.69
-19.07
-8.30
2.42
12.82
22.30
30.06
35.35
37.97
38.37
37.54
36.45
35.59
34.86
33.78
31.87
29.07
25.64
22.04
18.63
15.59
12.92
10.57
8.42
6.34
4.10
1.45
-1.73
-5.39
-9.27
-13.10
-16.70
-20.11
-23.59
-27.49
-32.17
-37.75
-44.12
-50.82
-57.09
-61.89
-64.08
-62.70
-57.35
-48.29
-36.52
-23.50
-10.71
0.67
10.02
17.26
22.77
27.06
30.60
33.69
36.37
38.52
39.97
40.59
40.25
38.94
36.74
33.84
30.53
27.19
24.19
21.76
19.97
18.67
17.50
16.05
13.99
11.14
7.52
3.36
-1.02
-5.32
-9.30
-12.94
-16.35
-19.88
-23.87
-28.58
-34.08
-40.18
-46.43
-52.14
-56.50
-58.65
-57.95
-54.09
-47.24
-38.06
-27.49
-16.52
-5.99
3.50
11.67
18.43
23.83
28.04
31.33
33.99
36.21
38.05
39.34
39.77
39.07
37.15
34.26
30.92
27.83
25.49
24.15
23.67
23.66
23.65
23.31
22.50
21.29
19.80
18.14
16.36
14.48
12.41
10.12
7.62
5.02
2.42
-0.13
-2.70
-5.44
-8.58
-12.21
-16.16
-20.08
-23.54
-26.29
-28.37
-30.14
-32.00
-34.33
-37.30
-40.99
-45.41
-50.40
-55.52
-59.99
-62.72
-62.65
-59.12
-52.15
-42.48
-31.42
-20.33
-10.30
-1.89
4.89
10.42
15.15
19.43
23.39
26.91
29.77
31.74
32.75
32.84
32.17
30.96
29.34
27.51
25.58
23.75
22.14
20.78
19.60
18.43
17.12
15.60
14.01
12.57
11.43
10.54
9.61
8.22
6.01
2.92
-0.79
-4.65
-8.13
-10.99
-13.27
-15.28
-17.42
-20.05
-23.34
-27.43
-32.29
-37.76
-43.45
-48.64
-52.45
-54.00
-52.72
-48.58
-42.10
-34.14
-25.59
-17.20
-9.37
-2.34
3.84
9.20
13.85
17.95
21.64
24.89
27.49
29.19
29.74
29.17
27.79
26.05
24.38
22.98
21.75
20.45
18.91
17.12
15.36
13.98
13.21
13.05
13.14
13.08
12.45
11.16
9.25
6.89
4.10
0.77
-3.22
-7.76
-12.42
-16.53
-19.62
-21.64
-23.21
-25.26
-28.63
-33.48
-39.15
-44.33
-47.55
-47.73
-44.52
-38.34
-30.13
-21.00
-11.91
-3.48
4.00
10.49
16.02
20.55
24.02
26.44
27.92
28.68
29.01
29.11
28.97
28.48
27.44
25.79
23.65
21.38
19.37
17.96
17.29
17.20
17.33
17.24
16.54
15.15
13.23
11.11
9.10
7.39
5.88
4.41
2.74
0.69
-1.81
-4.74
-7.97
-11.29
-14.38
-16.98
-19.03
-20.81
-22.83
-25.62
-29.44
-34.09
-38.96
-43.35
-46.63
-48.39
-48.40
-46.36
-41.98
-35.08
-25.95
-15.48
-5.00
4.10
11.03
15.75
18.83
21.11
23.11
24.89
26.17
26.56
25.88
24.43
22.69
21.21
20.32
20.03
20.07
20.15
20.06
19.81
19.51
19.26
19.08
18.85
18.42
17.64
16.45
14.86
12.83
10.38
7.53
4.48
1.54
-0.95
-2.85
-4.29
-5.62
-7.23
-9.31
-11.81
-14.49
-17.11
-19.59
-22.00
-24.60
-27.63
-31.36
-35.84
-40.90
-45.98
-50.28
-52.80
-52.64
-49.26
-42.69
-33.53
-22.89
-12.03
-2.13
6.02
12.10
16.29
19.10
21.13
22.85
24.47
25.92
27.00
27.54
27.50
26.92
25.96
24.76
23.49
22.35
21.51
21.16
21.29
21.71
22.12
22.21
21.92
21.33
20.63
19.93
19.16
18.08
16.51
14.43
12.01
9.52
7.13
4.83
2.40
-0.40
-3.69
-7.41
-11.26
-14.91
-18.08
-20.63
-22.63
-24.33
-26.08
-28.21
-31.02
-34.66
-39.17
-44.31
-49.51
-53.85
-56.15
-55.37
-51.00
-43.33
-33.39
-22.61
-12.32
-3.41
3.85
9.63
14.26
17.96
20.88
23.06
24.53
25.31
25.42
24.83
23.58
21.83
19.90
18.09
16.55
15.27
14.12
13.12
12.51
12.63
13.58
15.13
16.59
17.19
16.52
14.79
12.68
10.92
9.80
8.96
7.69
5.33
1.70
-2.82
-7.58
-12.02
-15.89
-19.31
-22.51
-25.67
-28.86
-32.08
-35.35
-38.75
-42.36
-46.03
-49.29
-51.39
-51.45
-48.81
-43.23
-34.99
-24.94
-14.09
-3.54
5.86
13.54
19.32
23.37
26.13
28.07
29.57
30.77
31.57
31.75
31.15
29.87
28.14
26.34
24.77
23.62
22.97
22.80
23.00
23.47
23.95
24.17
23.79
22.59
20.50
17.67
14.48
11.31
8.51
6.08
3.79
1.25
-1.82
-5.39
-9.14
-12.55
-15.27
-17.33
-19.11
-21.17
-23.98
-27.73
-32.42
-37.94
-44.15
-50.83
-57.51
-63.33
-67.10
-67.57
-63.96
-56.23
-45.29
-32.67
-20.05
-8.78
0.47
7.72
13.46
18.32
22.77
26.95
30.74
33.80
35.83
36.68
36.39
35.27
33.69
32.06
30.62
29.48
28.64
28.06
27.79
27.86
28.28
28.91
29.55
29.92
29.79
29.04
27.65
25.65
23.13
20.14
16.80
13.20
9.46
5.63
1.71
-2.24
-6.18
-10.02
-13.62
-16.97
-20.12
-23.28
-26.65
-30.40
-34.72
-39.72
-45.50
-51.95
-58.75
-65.14
-70.05
-72.21
-70.58
-64.65
-54.75
-42.00
-28.02
-14.50
-2.71
6.77
14.08
19.82
24.68
29.14
33.31
36.98
39.79
41.48
41.94
41.35
40.01
38.24
36.27
34.24
32.28
30.61
29.49
29.19
29.74
30.87
32.06
32.79
32.72
31.84
30.40
28.64
26.70
24.58
22.26
19.73
17.08
14.38
11.58
8.51
5.05
1.18
-2.98
-7.23
-11.47
-15.72
-20.06
-24.51
-28.98
-33.19
-37.04
-40.61
-44.23
-48.36
-53.24
-58.70
-64.08
-68.36
-70.36
-69.12
-64.20
-55.79
-44.68
-32.07
-19.27
-7.32
3.13
11.88
19.02
24.75
29.25
32.55
34.74
35.87
36.09
35.60
34.54
33.03
31.22
29.30
27.55
26.26
25.69
26.00
27.16
28.93
30.80
32.16
32.47
31.46
29.29
26.41
23.30
20.31
17.48
14.60
11.43
7.85
3.84
-0.44
-4.87
-9.33
-13.74
-18.10
-22.36
-26.66
-31.13
-36.01
-41.43
-47.43
-53.88
-60.38
-66.29
-70.67
-72.43
-70.63
-64.83
-55.37
-43.34
-30.22
-17.38
-5.75
4.37
13.03
20.39
26.57
31.64
35.74
39.03
41.69
43.76
45.12
45.62
45.18
43.90
42.03
39.89
37.79
36.07
34.95
34.64
35.10
36.05
37.01
37.48
37.08
35.69
33.49
30.73
27.73
24.73
21.93
19.40
16.95
14.22
10.76
6.31
0.97
-4.74
-10.14
-14.74
-18.44
-21.56
-24.58
-27.89
-31.61
-35.76
-40.42
-45.83
-52.36
-60.18
-68.96
-77.67
-84.83
-88.85
-88.52
-83.33
-73.61
-60.39
-45.15
-29.44
-14.73
-2.08
7.98
15.53
21.16
25.73
29.98
34.22
38.28
41.70
44.07
45.22
45.42
45.05
44.52
44.07
43.76
43.59
43.60
43.84
44.36
45.09
45.82
46.31
46.44
46.18
45.54
44.45
42.71
40.18
36.85
32.97
28.89
24.89
21.01
17.08
12.83
8.17
3.30
-1.44
-5.73
-9.52
-13.09
-16.86
-21.10
-25.82
-30.72
-35.44
-39.75
-43.75
-47.82
-52.44
-58.05
-64.76
-72.35
-80.14
-87.05
-91.72
-92.76
-89.17
-80.73
-68.15
-52.92
-36.89
-21.70
-8.38
2.76
12.02
19.90
26.79
32.91
38.20
42.55
45.86
48.15
49.54
50.17
50.16
49.57
48.48
47.02
45.48
44.29
43.80
44.11
45.03
46.12
46.88
46.96
46.31
45.12
43.65
42.05
40.24
38.00
35.07
31.29
26.72
21.65
16.48
11.66
7.51
4.11
1.31
-1.22
-3.92
-7.25
-11.47
-16.64
-22.54
-28.72
-34.69
-40.08
-44.89
-49.45
-54.26
-59.82
-66.30
-73.34
-79.91
-84.55
-85.66
-82.04
-73.34
-60.22
-44.21
-27.30
-11.29
2.52
13.59
21.93
27.85
31.73
33.97
35.01
35.30
35.36
35.48
35.79
36.15
36.33
36.13
35.46
34.41
33.18
32.07
31.36
31.28
31.89
33.07
34.42
35.48
35.79
35.02
33.05
29.90
25.78
20.96
15.84
10.93
6.67
3.29
0.68
-1.62
-4.21
-7.61
-12.02
-17.21
-22.70
-28.01
-32.85
-37.28
-41.68
-46.63
-52.59
-59.70
-67.59
-75.23
-81.20
-83.95
-82.33
-76.02
-65.67
-52.72
-38.96
-25.91
-14.49
-4.85
3.50
11.26
18.99
26.91
34.79
42.13
48.37
53.03
55.92
57.17
57.14
56.29
55.05
53.70
52.33
51.03
49.95
49.32
49.39
50.20
51.49
52.68
53.07
52.08
49.58
45.96
41.87
38.02
34.71
31.88
29.06
25.77
21.74
17.11
12.34
7.97
4.27
1.14
-1.89
-5.37
-9.64
-14.67
-20.12
-25.55
-30.73
-35.70
-40.63
-45.69
-50.92
-56.36
-62.14
-68.55
-75.82
-83.75
-91.47
-97.47
-100.08
-98.01
-90.91
-79.36
-64.68
-48.42
-32.03
-16.63
-2.97
8.61
18.14
25.98
32.63
38.47
43.62
47.91
51.09
53.04
53.89
53.99
53.65
52.99
51.91
50.34
48.35
46.31
44.77
44.12
44.42
45.32
46.20
46.44
45.70
44.03
41.75
39.29
37.01
34.97
33.05
30.97
28.42
25.24
21.42
17.17
12.83
8.66
4.83
1.25
-2.31
-6.09
-10.24
-14.69
-19.25
-23.73
-28.02
-32.13
-36.15
-40.20
-44.32
-48.51
-52.82
-57.43
-62.58
-68.59
-75.43
-82.61
-89.11
-93.41
-93.97
-89.76
-80.58
-67.28
-51.49
-35.11
-19.71
-6.24
5.08
14.37
21.89
27.83
32.34
35.61
37.94
39.74
41.22
42.33
42.79
42.26
40.65
38.25
35.63
33.41
32.03
31.62
32.08
33.17
34.63
36.16
37.32
37.64
36.66
34.18
30.38
25.81
21.18
17.06
13.63
10.65
7.60
3.98
-0.50
-5.78
-11.55
-17.42
-23.08
-28.32
-33.08
-37.39
-41.45
-45.65
-50.51
-56.50
-63.72
-71.58
-78.91
-84.07
-85.58
-82.53
-74.90
-63.42
-49.33
-33.96
-18.57
-4.30
7.99
17.77
25.00
30.19
34.13
37.51
40.72
43.67
45.99
47.33
47.53
46.66
44.93
42.59
39.93
37.33
35.31
34.25
34.39
35.49
37.00
38.27
38.76
38.24
36.71
34.33
31.25
27.65
23.71
19.63
15.58
11.56
7.52
3.34
-1.02
-5.50
-10.00
-14.49
-19.10
-24.04
-29.48
-35.37
-41.47
-47.44
-53.14
-58.73
-64.58
-71.10
-78.37
-85.89
-92.53
-96.81
-97.19
-92.58
-82.69
-68.21
-50.66
-32.06
-14.40
0.88
13.03
22.11
28.60
33.30
36.94
40.14
43.30
46.53
49.68
52.36
54.06
54.34
53.05
50.44
47.16
44.02
41.73
40.61
40.54
41.10
41.68
41.79
41.17
39.83
37.96
35.78
33.53
31.26
28.94
26.41
23.48
20.02
16.05
11.74
7.29
2.86
-1.59
-6.27
-11.40
-17.04
-23.00
-28.83
-34.20
-38.94
-43.28
-47.76
-52.98
-59.27
-66.63
-74.57
-82.36
-89.09
-93.78
-95.50
-93.39
-86.88
-75.96
-61.44
-44.76
-27.62
-11.34
3.41
16.46
27.70
36.74
42.95
45.91
46.03
44.56
43.18
43.14
44.55
46.41
47.37
46.60
44.38
41.81
40.05
39.57
40.05
40.70
40.97
40.81
40.57
40.57
40.77
40.68
39.63
37.19
33.35
28.48
23.07
17.56
12.21
7.14
2.39
-2.11
-6.52
-11.09
-15.96
-21.12
-26.30
-31.13
-35.34
-38.85
-41.88
-44.85
-48.35
-52.93
-58.96
-66.30
-74.10
-80.96
-85.20
-85.47
-81.11
-72.34
-60.01
-45.23
-29.13
-12.80
2.62
15.99
26.28
33.07
36.66
38.08
38.70
39.49
40.75
41.99
42.43
41.44
38.92
35.39
31.65
28.56
26.64
26.07
26.69
28.07
29.65
30.76
30.77
29.25
26.14
21.80
16.91
12.19
8.07
4.57
1.28
-2.37
-6.79
-12.07
-17.96
-24.05
-29.92
-35.42
-40.57
-45.67
-51.10
-57.25
-64.32
-72.03
-79.65
-85.85
-88.98
-87.52
-80.62
-68.44
-52.28
-34.27
-16.65
-1.18
11.38
21.21
29.03
35.65
41.50
46.64
50.93
54.30
56.88
58.83
60.19
60.71
60.04
57.94
54.59
50.53
46.60
43.53
41.64
40.80
40.57
40.49
40.20
39.50
38.25
36.29
33.45
29.69
25.18
20.30
15.47
10.88
6.36
1.53
-4.05
-10.44
-17.30
-23.96
-29.82
-34.63
-38.68
-42.64
-47.37
-53.50
-61.21
-70.08
-79.13
-86.99
-92.12
-93.15
-89.17
-80.00
-66.30
-49.52
-31.56
-14.29
0.82
13.06
22.37
29.24
34.37
38.39
41.73
44.67
47.31
49.69
51.75
53.26
53.90
53.38
51.59
48.71
45.26
41.92
39.38
38.13
38.35
39.76
41.68
43.29
43.86
43.02
40.90
37.91
34.49
30.84
26.91
22.52
17.62
12.48
7.59
3.27
-0.52
-4.25
-8.61
-13.96
-20.21
-26.76
-32.86
-38.01
-42.24
-45.98
-49.97
-54.86
-61.00
-68.31
-76.33
-84.24
-91.01
-95.44
-96.46
-93.32
-85.78
-74.21
-59.59
-43.33
-26.89
-11.55
1.96
13.39
22.89
30.76
37.19
42.21
45.81
48.05
49.20
49.71
49.91
49.95
49.74
49.07
47.82
46.12
44.28
42.54
41.00
39.56
38.08
36.48
34.84
33.26
31.74
30.02
27.71
24.54
20.52
16.01
11.50
7.28
3.26
-0.99
-5.97
-11.86
-18.34
-24.74
-30.38
-34.91
-38.54
-41.95
-46.00
-51.33
-58.11
-65.84
-73.49
-79.68
-82.92
-82.10
-76.68
-66.90
-53.70
-38.50
-22.85
-8.16
4.49
14.53
21.85
26.94
30.70
34.16
38.11
42.71
47.46
51.43
53.65
53.51
51.07
47.00
42.30
38.07
35.13
33.90
34.25
35.59
37.07
37.86
37.35
35.39
32.19
28.24
24.04
19.96
16.20
12.73
9.30
5.58
1.19
-3.99
-9.87
-16.06
-22.03
-27.37
-31.96
-35.99
-39.99
-44.51
-50.01
-56.73
-64.48
-72.58
-79.89
-84.81
-85.65
-80.94
-70.03
-53.35
-32.51
-10.05
11.15
28.52
40.43
46.51
47.64
45.52
42.09
38.99
37.16
36.89
37.98
40.01
42.45
44.81
46.65
47.63
47.65
46.79
45.31
43.44
41.36
39.10
36.68
34.20
31.78
29.49
27.11
24.22
20.36
15.29
9.26
2.85
-3.28
-8.70
-13.41
-17.73
-22.00
-26.37
-30.75
-35.02
-39.18
-43.54
-48.53
-54.41
-60.97
-67.46
-72.68
-75.35
-74.42
-69.41
-60.48
-48.47
-34.69
-20.61
-7.55
3.68
12.92
20.47
26.85
32.46
37.42
41.61
44.88
47.10
48.22
48.22
47.00
44.50
40.79
36.32
31.88
28.38
26.47
26.23
27.11
28.12
28.31
27.10
24.46
20.87
16.98
13.30
9.98
6.92
3.78
0.35
-3.41
-7.44
-11.61
-15.83
-20.10
-24.43
-28.79
-33.13
-37.45
-41.90
-46.69
-52.00
-57.70
-63.22
-67.62
-69.80
-68.91
-64.52
-56.79
-46.38
-34.33
-21.80
-9.83
0.81
9.73
16.97
22.87
27.75
31.82
34.96
36.88
37.40
36.66
35.23
33.79
32.86
32.51
32.33
31.75
30.39
28.35
26.04
23.96
22.30
20.84
19.08
16.70
13.73
10.54
7.55
4.84
2.10
-1.17
-5.32
-10.22
-15.38
-20.28
-24.63
-28.67
-32.87
-37.78
-43.56
-50.01
-56.48
-62.13
-66.00
-67.17
-64.94
-58.99
-49.60
-37.73
-24.82
-12.39
-1.60
7.03
13.64
18.69
22.71
26.01
28.72
30.87
32.57
33.96
35.12
36.03
36.52
36.37
35.46
33.85
31.76
29.44
27.08
24.72
22.40
20.20
18.22
16.52
15.05
13.58
11.77
9.26
5.85
1.61
-3.22
-8.20
-12.91
-17.03
-20.47
-23.39
-26.14
-29.18
-32.96
-37.86
-43.94
-50.85
-57.76
-63.36
-66.24
-65.36
-60.33
-51.66
-40.50
-28.28
-16.24
-5.20
4.48
12.73
19.61
25.20
29.60
32.95
35.37
36.97
37.82
37.97
37.53
36.67
35.55
34.26
32.82
31.27
29.74
28.53
27.85
27.62
27.42
26.65
24.83
21.93
18.39
14.92
12.03
9.82
7.93
5.84
3.23
0.05
-3.41
-6.83
-10.09
-13.35
-16.80
-20.55
-24.53
-28.61
-32.79
-37.26
-42.28
-47.97
-53.96
-59.32
-62.73
-62.92
-59.19
-51.71
-41.50
-30.00
-18.61
-8.23
0.78
8.37
14.63
19.55
23.16
25.57
27.11
28.18
29.02
29.57
29.49
28.43
26.34
23.58
20.83
18.75
17.70
17.66
18.26
19.03
19.56
19.55
18.86
17.51
15.61
13.37
10.94
8.29
5.22
1.45
-3.13
-8.23
-13.27
-17.61
-20.95
-23.56
-26.14
-29.47
-34.06
-39.83
-46.22
-52.42
-57.65
-61.24
-62.71
-61.67
-57.81
-51.02
-41.55
-30.07
-17.59
-5.31
5.75
14.91
21.97
27.23
31.17
34.27
36.74
38.49
39.26
38.90
37.43
35.11
32.29
29.28
26.37
23.82
21.97
21.13
21.42
22.63
24.14
25.22
25.22
23.91
21.54
18.60
15.56
12.67
9.85
6.93
3.77
0.36
-3.26
-7.07
-11.13
-15.49
-20.12
-24.81
-29.34
-33.64
-37.99
-42.92
-48.91
-55.94
-63.24
-69.34
-72.58
-71.70
-66.36
-57.18
-45.44
-32.61
-19.92
-8.22
2.04
10.63
17.51
22.83
26.94
30.31
33.39
36.41
39.26
41.60
43.00
43.21
42.24
40.34
37.89
35.24
32.72
30.59
29.05
28.26
28.28
28.95
29.90
30.61
30.53
29.35
27.08
24.05
20.73
17.50
14.52
11.67
8.72
5.40
1.55
-2.87
-7.69
-12.62
-17.26
-21.21
-24.29
-26.65
-28.82
-31.53
-35.37
-40.53
-46.78
-53.52
-60.06
-65.72
-69.84
-71.67
-70.46
-65.59
-57.00
-45.29
-31.78
-18.10
-5.73
4.46
12.26
18.04
22.40
25.88
28.82
31.40
33.68
35.66
37.26
38.31
38.60
38.03
36.72
35.07
33.55
32.47
31.82
31.28
30.49
29.30
27.91
26.77
26.29
26.47
26.90
26.86
25.72
23.20
19.53
15.27
10.99
7.14
3.92
1.31
-0.83
-2.67
-4.45
-6.44
-8.94
-12.09
-15.88
-20.14
-24.61
-29.04
-33.32
-37.54
-41.99
-46.98
-52.67
-58.77
-64.45
-68.44
-69.36
-66.26
-58.95
-48.12
-35.22
-21.85
-9.42
1.20
9.79
16.52
21.70
25.68
28.69
30.88
32.36
33.25
33.68
33.73
33.45
32.83
31.82
30.45
28.77
26.95
25.22
23.82
22.99
22.85
23.26
23.82
24.00
23.34
21.68
19.22
16.42
13.69
11.19
8.73
5.93
2.42
-1.92
-6.95
-12.36
-17.75
-22.83
-27.33
-31.13
-34.26
-36.99
-39.85
-43.45
-48.28
-54.33
-60.97
-66.95
-70.72
-70.87
-66.66
-58.18
-46.31
-32.43
-18.07
-4.49
7.42
17.19
24.70
30.06
33.56
35.59
36.58
37.04
37.40
37.89
38.54
39.07
39.10
38.30
36.65
34.40
32.10
30.28
29.21
28.80
28.73
28.56
28.05
27.12
25.83
24.19
22.09
19.38
16.00
12.09
7.97
4.07
0.61
-2.43
-5.34
-8.48
-12.10
-16.25
-20.79
-25.56
-30.39
-35.28
-40.25
-45.39
-50.81
-56.60
-62.64
-68.57
-73.60
-76.61
-76.41
-72.22
-63.91
-52.19
-38.36
-23.92
-10.25
1.68
11.33
18.60
23.74
27.27
29.90
32.22
34.59
36.93
38.87
39.96
39.99
39.09
37.63
36.04
34.55
33.25
32.09
31.11
30.42
30.11
30.16
30.30
30.09
29.08
26.99
23.85
20.00
16.00
12.42
9.68
7.82
6.48
4.97
2.60
-1.10
-6.13
-12.09
-18.39
-24.48
-30.13
-35.36
-40.43
-45.59
-51.07
-56.98
-63.25
-69.48
-74.83
-78.07
-77.87
-73.29
-64.27
-51.78
-37.48
-23.13
-10.06
1.10
10.38
18.04
24.40
29.64
33.91
37.40
40.30
42.76
44.70
45.84
45.86
44.55
42.06
38.89
35.68
33.06
31.52
31.20
32.00
33.45
34.87
35.50
34.73
32.41
28.74
24.30
19.80
15.75
12.33
9.36
6.45
3.25
-0.39
-4.38
-8.52
-12.65
-16.73
-20.83
-25.10
-29.61
-34.42
-39.59
-45.29
-51.75
-59.06
-66.92
-74.42
-80.15
-82.49
-80.29
-73.20
-61.96
-48.04
-33.24
-19.08
-6.50
4.23
13.25
20.84
27.26
32.63
37.04
40.58
43.40
45.54
46.93
47.41
46.80
45.15
42.72
40.01
37.54
35.75
34.92
35.03
35.89
37.07
38.09
38.48
37.94
36.40
34.00
30.95
27.45
23.66
19.63
15.37
10.82
5.88
0.47
-5.44
-11.66
-17.81
-23.40
-28.13
-32.05
-35.64
-39.65
-44.84
-51.66
-59.99
-69.07
-77.52
-83.61
-85.62
-82.40
-73.76
-60.60
-44.67
-27.97
-12.20
1.67
13.30
22.80
30.40
36.27
40.62
43.70
45.78
47.07
47.64
47.44
46.40
44.60
42.29
39.84
37.69
36.13
35.32
35.21
35.61
36.16
36.43
36.01
34.62
32.22
29.09
25.58
21.96
18.31
14.48
10.23
5.40
0.04
-5.62
-11.22
-16.45
-21.23
-25.71
-30.24
-35.27
-41.13
-48.04
-55.99
-64.70
-73.58
-81.71
-87.93
-90.97
-89.73
-83.63
-72.85
-58.40
-41.95
-25.29
-9.89
3.46
14.62
23.88
31.61
38.06
43.35
47.55
50.81
53.32
55.16
56.28
56.46
55.54
53.56
50.91
48.25
46.18
45.08
44.89
45.24
45.61
45.61
45.07
44.05
42.72
41.14
39.18
36.56
33.08
28.74
23.86
18.87
14.18
9.94
6.06
2.26
-1.78
-6.23
-11.15
-16.46
-22.03
-27.75
-33.54
-39.33
-45.09
-50.89
-56.93
-63.41
-70.42
-77.61
-84.06
-88.42
-89.21
-85.41
-76.86
-64.38
-49.46
-33.81
-18.83
-5.44
5.88
15.01
22.03
27.20
30.99
34.05
37.00
40.18
43.48
46.40
48.29
48.74
47.73
45.65
43.20
40.99
39.49
38.86
39.02
39.70
40.52
41.04
40.89
39.89
38.06
35.66
33.01
30.34
27.65
24.88
21.87
18.58
15.05
11.38
7.60
3.65
-0.57
-5.14
-9.98
-14.96
-19.90
-24.69
-29.21
-33.38
-37.18
-40.80
-44.68
-49.44
-55.61
-63.16
-71.31
-78.51
-82.92
-83.06
-78.34
-69.33
-57.40
-44.31
-31.56
-20.16
-10.50
-2.43
4.58
11.21
18.06
25.39
33.01
40.33
46.56
51.01
53.41
53.86
52.77
50.68
48.08
45.47
43.23
41.67
40.94
40.99
41.54
42.09
42.17
41.38
39.52
36.61
32.84
28.56
24.18
20.03
16.22
12.63
8.90
4.61
-0.52
-6.47
-12.96
-19.58
-25.98
-32.02
-37.82
-43.71
-50.04
-57.01
-64.57
-72.28
-79.39
-84.83
-87.39
-85.90
-79.71
-68.84
-54.22
-37.50
-20.54
-4.98
8.15
18.59
26.63
32.77
37.41
40.84
43.21
44.73
45.66
46.14
46.18
45.70
44.56
42.90
41.10
39.63
38.83
38.72
38.94
39.02
38.57
37.54
36.07
34.31
32.21
29.60
26.26
22.16
17.48
12.49
7.38
2.16
-3.23
-8.84
-14.55
-20.16
-25.56
-30.74
-35.86
-41.14
-46.83
-53.14
-60.21
-67.94
-75.73
-82.46
-86.48
-86.23
-80.74
-70.16
-55.80
-39.65
-23.71
-9.41
2.63
12.47
20.44
26.95
32.28
36.64
40.14
42.77
44.38
44.78
43.91
41.95
39.32
36.58
34.14
32.25
30.96
30.24
30.00
30.06
30.14
29.83
28.76
26.81
24.13
21.08
17.96
14.79
11.25
6.92
1.48
-5.04
-12.29
-19.75
-26.91
-33.49
-39.57
-45.52
-51.91
-59.16
-67.22
-75.33
-82.09
-85.74
-84.83
-78.65
-67.59
-52.92
-36.50
-20.23
-5.59
6.58
16.18
23.69
29.82
35.24
40.22
44.56
47.76
49.23
48.67
46.28
42.74
38.99
35.83
33.61
32.13
30.91
29.47
27.68
25.83
24.35
23.55
23.26
22.85
21.47
18.48
13.69
7.46
0.45
-6.56
-13.04
-18.73
-23.71
-28.32
-33.15
-38.86
-45.97
-54.68
-64.64
-74.90
-83.97
-90.05
-91.49
-87.20
-77.10
-62.21
-44.52
-26.43
-10.08
3.18
13.11
20.42
26.23
31.53
36.75
41.68
45.68
48.08
48.57
47.28
44.78
41.78
38.95
36.73
35.30
34.60
34.39
34.34
34.00
32.93
30.80
27.43
22.88
17.41
11.37
5.05
-1.25
-7.34
-13.10
-18.59
-24.03
-29.83
-36.49
-44.33
-53.43
-63.45
-73.72
-83.28
-91.00
-95.76
-96.53
-92.70
-84.26
-71.92
-57.00
-41.03
-25.35
-10.88
2.02
13.36
23.39
32.51
41.15
49.65
58.03
65.86
72.31
76.41
77.57
75.88
72.07
67.26
62.48
58.38
55.18
52.83
51.14
49.77
48.22
45.76
41.69
35.55
27.47
18.14
8.53
-0.49
-8.52
-15.64
-22.35
-29.22
-36.80
-45.42
-55.27
-66.18
-77.54
-88.14
-96.30
-100.24
-98.59
-90.88
-77.84
-61.19
-43.16
-25.78
-10.36
2.75
13.90
23.85
33.23
42.31
50.92
58.68
65.20
70.24
73.82
76.00
76.84
76.28
74.27
70.94
66.73
62.38
58.71
56.36
55.50
55.77
56.40
56.51
55.42
52.80
48.70
43.42
37.45
31.21
25.10
19.21
13.46
7.56
1.19
-5.76
-13.13
-20.47
-27.34
-33.50
-39.14
-44.81
-51.16
-58.69
-67.57
-77.53
-87.93
-97.80
-105.85
-110.65
-110.84
-105.56
-94.78
-79.44
-61.21
-42.07
-23.72
-7.29
6.76
18.46
28.06
35.83
42.08
47.12
51.29
54.84
57.90
60.37
62.10
62.91
62.76
61.75
60.08
57.91
55.51
53.23
51.51
50.81
51.32
52.84
54.74
56.17
56.38
54.95
51.90
47.63
42.72
37.80
33.45
30.15
28.11
27.06
26.31
24.85
21.78
16.79
10.37
3.63
-2.21
-6.39
-8.94
-10.70
-12.77
-16.09
-21.04
-27.41
-34.58
-41.93
-48.91
-55.19
-60.61
-65.21
-69.22
-73.15
-77.71
-83.58
-91.00
-99.46
-107.55
-113.20
-114.17
-108.79
-96.49
-78.24
-56.31
-33.79
-13.61
2.28
13.40
20.71
25.91
30.64
35.81
41.33
46.44
50.26
52.33
52.77
52.18
51.27
50.44
49.69
48.75
47.37
45.57
43.76
42.53
42.23
42.76
43.38
43.05
40.98
37.03
31.82
26.46
21.93
18.63
16.09
13.44
9.82
4.98
-0.73
-6.61
-12.12
-17.21
-22.26
-27.71
-33.73
-40.09
-46.36
-52.25
-57.88
-63.66
-70.00
-76.84
-83.54
-88.89
-91.55
-90.40
-84.93
-75.20
-61.98
-46.41
-29.92
-13.89
0.54
12.68
22.40
29.95
35.89
40.81
45.11
48.93
52.08
54.25
55.05
54.22
51.75
47.88
43.19
38.46
34.59
32.31
31.90
33.02
34.71
35.76
35.20
32.68
28.61
23.95
19.53
15.74
12.33
8.65
4.12
-1.47
-7.83
-14.38
-20.55
-26.03
-30.92
-35.60
-40.59
-46.34
-53.07
-60.62
-68.41
-75.45
-80.48
-82.29
-79.96
-73.27
-62.64
-49.14
-34.12
-18.99
-4.93
7.25
17.12
24.67
30.14
34.05
36.94
39.29
41.32
42.99
44.00
44.07
43.06
40.99
38.15
34.91
31.63
28.66
26.26
24.54
23.41
22.57
21.63
20.29
18.45
16.21
13.75
11.09
8.06
4.35
-0.24
-5.61
-11.38
-17.04
-22.28
-27.22
-32.32
-38.18
-45.20
-53.33
-62.10
-70.66
-77.92
-82.71
-83.93
-80.79
-73.02
-61.05
-46.08
-29.81
-14.05
-0.24
10.88
19.32
25.58
30.36
34.23
37.41
39.94
41.73
42.73
42.99
42.57
41.52
39.86
37.61
34.96
32.33
30.24
29.20
29.33
30.31
31.36
31.58
30.29
27.37
23.29
18.82
14.67
11.06
7.72
4.06
-0.36
-5.62
-11.34
-16.95
-22.08
-26.72
-31.21
-36.00
-41.47
-47.77
-54.95
-62.98
-71.66
-80.33
-87.73
-92.05
-91.55
-85.17
-73.11
-56.85
-38.70
-20.96
-5.31
7.48
17.50
25.26
31.43
36.53
40.88
44.59
47.57
49.65
50.65
50.49
49.25
47.20
44.64
41.84
39.03
36.41
34.27
32.88
32.44
32.87
33.78
34.47
34.24
32.63
29.61
25.58
21.13
16.77
12.73
8.90
4.98
0.68
-4.17
-9.55
-15.27
-21.07
-26.68
-31.85
-36.53
-40.85
-45.19
-50.11
-56.12
-63.42
-71.74
-80.09
-87.04
-90.92
-90.35
-84.70
-74.23
-60.11
-43.98
-27.60
-12.32
1.04
12.17
21.21
28.42
34.14
38.67
42.29
45.20
47.46
49.01
49.69
49.40
48.14
46.14
43.78
41.51
39.72
38.64
38.28
38.43
38.70
38.67
37.99
36.48
34.16
31.26
28.08
24.89
21.74
18.56
15.10
11.09
6.36
0.86
-5.21
-11.52
-17.62
-23.24
-28.29
-32.95
-37.61
-42.72
-48.64
-55.55
-63.21
-70.93
-77.45
-81.17
-80.53
-74.61
-63.58
-48.81
-32.46
-16.81
-3.50
6.81
14.35
19.89
24.22
27.91
31.26
34.31
36.87
38.64
39.31
38.67
36.78
34.05
31.12
28.60
26.88
26.02
25.72
25.52
25.02
24.00
22.46
20.54
18.44
16.30
14.17
11.89
9.18
5.73
1.33
-3.96
-9.89
-16.04
-22.00
-27.50
-32.54
-37.32
-42.22
-47.70
-54.05
-61.28
-68.90
-75.95
-81.08
-82.84
-80.09
-72.40
-60.31
-45.20
-28.98
-13.42
0.29
11.77
21.27
29.28
36.11
41.74
45.98
48.68
50.00
50.31
50.06
49.50
48.59
47.15
45.12
42.64
40.08
37.87
36.31
35.44
35.01
34.60
33.82
32.36
30.16
27.40
24.41
21.40
18.42
15.28
11.65
7.29
2.20
-3.37
-9.14
-14.91
-20.68
-26.57
-32.67
-38.97
-45.36
-51.82
-58.51
-65.74
-73.65
-81.92
-89.59
-95.16
-97.06
-94.19
-86.29
-74.04
-58.82
-42.22
-25.69
-10.26
3.48
15.31
25.26
33.51
40.34
46.10
51.11
55.49
59.12
61.72
62.94
62.65
61.06
58.70
56.26
54.33
53.21
52.90
53.15
53.59
53.87
53.72
52.98
51.65
49.78
47.47
44.87
42.03
39.01
35.80
32.40
28.78
24.95
20.87
16.56
12.11
7.71
3.60
0.02
-3.03
-5.77
-8.53
-11.63
-15.27
-19.43
-23.99
-28.81
-33.80
-38.83
-43.69
-48.09
-51.79
-54.81
-57.54
-60.69
-65.05
-71.17
-78.98
-87.71
-95.92
-101.81
-103.67
-100.43
-91.84
-78.63
-62.30
-44.66
-27.43
-11.87
1.31
12.05
20.63
27.56
33.41
38.59
43.31
47.47
50.78
52.90
53.64
53.03
51.35
49.01
46.46
44.10
42.25
41.14
40.95
41.63
42.96
44.50
45.68
46.02
45.32
43.62
41.17
38.24
34.95
31.33
27.31
22.88
18.15
13.28
8.45
3.73
-0.82
-5.27
-9.61
-13.90
-18.13
-22.30
-26.40
-30.41
-34.36
-38.40
-42.91
-48.28
-54.88
-62.71
-71.23
-79.29
-85.28
-87.48
-84.62
-76.35
-63.41
-47.52
-30.80
-15.15
-1.63
9.55
18.79
26.58
33.11
38.16
41.47
43.02
43.25
42.86
42.45
42.17
41.67
40.41
38.11
35.03
31.94
29.70
28.84
29.33
30.67
32.15
33.16
33.34
32.53
30.69
27.90
24.34
20.33
16.20
12.16
8.21
4.16
-0.23
-5.07
-10.29
-15.77
-21.44
-27.28
-33.32
-39.51
-45.76
-52.08
-58.61
-65.57
-72.89
-79.96
-85.46
-87.72
-85.33
-77.77
-65.74
-50.89
-35.18
-20.15
-6.61
5.38
16.13
25.79
34.19
40.98
45.79
48.64
50.01
50.57
50.88
51.13
51.07
50.30
48.56
46.03
43.22
40.93
39.74
39.87
41.05
42.64
43.87
44.20
43.41
41.65
39.27
36.65
33.99
31.21
28.05
24.34
20.02
15.29
10.49
5.90
1.61
-2.46
-6.54
-10.86
-15.45
-20.28
-25.18
-30.08
-34.98
-39.96
-45.10
-50.38
-55.75
-61.24
-67.06
-73.43
-80.41
-87.47
-93.48
-96.81
-95.89
-89.78
-78.59
-63.50
-46.36
-29.15
-13.42
-0.04
10.86
19.66
26.94
33.23
38.79
43.62
47.49
50.14
51.38
51.25
49.97
47.87
45.34
42.67
40.13
37.95
36.36
35.56
35.64
36.47
37.69
38.83
39.47
39.37
38.58
37.25
35.54
33.44
30.80
27.45
23.37
18.76
14.09
9.78
6.09
2.89
-0.27
-3.96
-8.65
-14.45
-21.01
-27.72
-33.82
-38.87
-42.77
-45.87
-48.82
-52.27
-56.82
-62.78
-70.04
-77.96
-85.34
-90.61
-92.14
-88.81
-80.35
-67.52
-51.92
-35.44
-19.76
-5.99
5.41
14.52
21.68
27.28
31.69
35.21
38.07
40.39
42.15
43.14
43.15
42.06
40.03
37.52
35.13
33.41
32.66
32.88
33.81
34.98
35.93
36.25
35.64
33.99
31.37
28.06
24.50
21.07
17.99
15.13
12.15
8.60
4.11
-1.41
-7.78
-14.55
-21.12
-26.99
-31.92
-36.06
-39.99
-44.46
-50.13
-57.19
-65.25
-73.23
-79.70
-83.16
-82.48
-77.15
-67.41
-54.18
-38.80
-22.79
-7.53
5.97
17.12
25.75
32.00
36.27
39.08
41.02
42.55
43.86
44.84
45.12
44.38
42.54
39.82
36.75
33.87
31.60
30.15
29.53
29.63
30.26
31.14
31.88
32.00
31.09
28.92
25.57
21.28
16.34
10.98
5.28
-0.74
-7.05
-13.52
-19.91
-25.95
-31.51
-36.68
-41.77
-47.30
-53.80
-61.56
-70.40
-79.51
-87.53
-92.87
-94.15
-90.59
-82.26
-69.96
-54.96
-38.64
-22.21
-6.67
7.36
19.39
29.13
36.52
41.82
45.57
48.52
51.31
54.27
57.18
59.40
60.12
58.81
55.52
50.87
45.87
41.52
38.42
36.68
35.96
35.67
35.21
34.14
32.24
29.50
26.14
22.51
18.96
15.74
12.83
9.92
6.55
2.34
-2.86
-8.93
-15.55
-22.34
-28.98
-35.23
-40.98
-46.29
-51.43
-56.85
-63.08
-70.49
-79.03
-87.95
-95.86
-100.94
-101.54
-96.62
-86.16
-71.20
-53.57
-35.32
-18.21
-3.26
9.34
19.97
29.15
37.17
44.01
49.51
53.60
56.53
58.62
60.11
60.89
60.61
58.91
55.80
51.81
47.75
44.46
42.45
41.73
41.95
42.55
42.99
42.78
41.56
39.09
35.33
30.40
24.64
18.44
12.24
6.31
0.80
-4.32
-9.18
-13.91
-18.65
-23.47
-28.46
-33.75
-39.55
-46.21
-54.04
-63.15
-73.19
-83.20
-91.68
-96.95
-97.57
-92.81
-82.86
-68.78
-52.25
-35.04
-18.58
-3.71
9.22
20.23
29.44
36.86
42.55
46.65
49.49
51.51
53.01
54.02
54.27
53.47
51.48
48.67
45.70
43.30
41.92
41.51
41.62
41.66
41.13
39.74
37.44
34.36
30.72
26.73
22.60
18.42
14.12
9.54
4.47
-1.12
-7.10
-13.17
-19.03
-24.55
-29.83
-35.18
-41.05
-47.88
-55.91
-65.02
-74.54
-83.33
-89.93
-92.92
-91.26
-84.60
-73.43
-58.93
-42.66
-26.22
-10.92
2.52
13.94
23.61
31.96
39.29
45.59
50.62
54.06
55.78
55.95
54.93
53.12
50.83
48.28
45.69
43.44
41.89
41.33
41.74
42.71
43.53
43.50
42.12
39.31
35.37
30.77
25.99
21.25
16.53
11.58
6.11
-0.06
-6.93
-14.28
-21.78
-29.07
-35.93
-42.32
-48.43
-54.61
-61.34
-69.09
-78.11
-88.17
-98.26
-106.63
-111.14
-109.96
-102.29
-88.84
-71.51
-52.73
-34.58
-18.20
-3.81
8.93
20.40
30.78
40.12
48.50
56.10
63.03
69.09
73.76
76.40
76.71
74.96
71.99
68.83
66.29
64.75
64.17
64.31
64.88
65.61
66.25
66.53
66.21
65.17
63.41
61.05
58.20
54.90
51.14
46.93
42.34
37.51
32.50
27.35
22.07
16.73
11.53
6.74
2.60
-0.89
-4.03
-7.35
-11.43
-16.63
-22.93
-29.96
-37.17
-44.07
-50.35
-55.94
-60.98
-65.76
-70.75
-76.53
-83.69
-92.58
-103.01
-114.01
-123.79
-130.18
-131.15
-125.48
-113.18
-95.43
-74.27
-52.03
-30.74
-11.76
4.35
17.68
28.66
37.83
45.55
52.06
57.55
62.17
66.08
69.29
71.61
72.61
71.89
69.35
65.45
61.17
57.68
55.86
55.97
57.56
59.73
61.47
62.14
61.54
59.84
57.42
54.61
51.57
48.35
44.92
41.23
37.21
32.79
27.95
22.73
17.30
11.88
6.69
1.86
-2.60
-6.79
-10.92
-15.22
-19.88
-24.98
-30.48
-36.23
-42.01
-47.66
-53.21
-58.88
-65.03
-72.04
-79.96
-88.33
-96.07
-101.69
-103.63
-100.80
-92.80
-80.11
-63.97
-45.95
-27.67
-10.50
4.68
17.36
27.45
35.13
40.76
44.82
47.72
49.73
50.93
51.24
50.58
49.03
46.88
44.57
42.61
41.35
40.91
41.18
41.89
42.71
43.39
43.69
43.32
41.93
39.22
35.08
29.70
23.65
17.64
12.35
8.01
4.43
1.06
-2.76
-7.44
-13.04
-19.19
-25.33
-30.92
-35.72
-39.91
-44.13
-49.27
-56.14
-65.03
-75.37
-85.70
-94.01
-98.23
-96.87
-89.48
-76.70
-60.04
-41.40
-22.65
-5.29
9.77
22.18
32.01
39.68
45.68
50.47
54.30
57.22
59.13
59.88
59.39
57.68
54.90
51.37
47.53
43.92
41.12
39.58
39.40
40.32
41.70
42.76
42.82
41.49
38.82
35.11
30.84
26.31
21.72
17.15
12.53
7.85
3.05
-1.95
-7.29
-13.10
-19.40
-26.02
-32.48
-38.20
-42.75
-46.20
-49.15
-52.66
-57.74
-64.93
-73.95
-83.70
-92.46
-98.27
-99.44
-94.89
-84.59
-69.46
-51.25
-32.12
-14.07
1.56
14.34
24.44
32.41
38.78
43.80
47.61
50.27
51.96
52.82
52.98
52.39
51.00
48.84
46.14
43.42
41.22
39.93
39.59
39.88
40.24
40.24
39.63
38.44
36.85
34.93
32.64
29.75
26.08
21.66
16.83
12.03
7.59
3.59
-0.25
-4.35
-8.97
-14.10
-19.48
-24.78
-29.82
-34.70
-39.59
-44.67
-49.96
-55.34
-60.79
-66.48
-72.66
-79.41
-86.32
-92.37
-96.16
-96.30
-91.86
-82.61
-69.09
-52.47
-34.34
-16.42
-0.20
13.24
23.46
30.64
35.46
38.76
41.34
43.73
46.11
48.30
49.90
50.44
49.55
47.26
43.92
40.17
36.65
33.84
31.94
31.00
30.92
31.58
32.65
33.55
33.49
31.78
28.18
23.10
17.43
12.12
7.74
4.16
0.71
-3.39
-8.65
-15.00
-21.85
-28.42
-34.09
-38.69
-42.52
-46.31
-50.85
-56.74
-64.05
-72.31
-80.42
-86.95
-90.40
-89.60
-84.04
-73.90
-60.03
-43.77
-26.60
-9.94
5.11
17.81
27.82
35.21
40.42
44.07
46.81
49.00
50.64
51.42
50.90
48.85
45.42
41.15
36.77
33.02
30.42
29.23
29.32
30.20
31.16
31.38
30.29
27.73
24.12
20.20
16.69
13.89
11.53
8.94
5.39
0.43
-5.86
-12.95
-20.17
-26.88
-32.72
-37.71
-42.16
-46.57
-51.60
-57.81
-65.50
-74.49
-83.83
-91.87
-96.61
-96.23
-89.75
-77.46
-60.80
-42.04
-23.56
-7.18
6.21
16.65
24.75
31.38
37.18
42.47
47.25
51.29
54.38
56.33
57.09
56.70
55.33
53.19
50.59
47.84
45.32
43.34
42.11
41.72
42.12
43.01
43.88
44.08
42.95
40.14
35.68
30.06
24.06
18.40
13.43
9.07
4.85
0.28
-4.95
-10.80
-16.94
-23.01
-28.78
-34.22
-39.43
-44.53
-49.71
-55.24
-61.51
-68.85
-77.23
-85.97
-93.57
-98.09
-97.73
-91.54
-79.82
-63.97
-45.97
-27.78
-10.86
3.97
16.36
26.32
34.04
39.81
44.12
47.44
50.20
52.62
54.66
56.11
56.73
56.37
55.03
52.91
50.29
47.57
45.26
43.82
43.54
44.34
45.75
47.00
47.35
46.35
44.04
40.77
37.03
33.16
29.30
25.43
21.51
17.61
13.75
9.95
6.08
1.88
-2.79
-7.88
-13.09
-18.07
-22.58
-26.68
-30.64
-34.78
-39.25
-43.99
-48.71
-53.20
-57.51
-62.04
-67.41
-74.09
-81.90
-89.93
-96.49
-99.68
-97.98
-90.77
-78.54
-62.68
-44.90
-26.88
-9.87
5.24
17.85
27.59
34.42
38.62
40.84
41.93
42.63
43.36
44.16
44.72
44.70
43.81
41.97
39.39
36.57
34.16
32.76
32.74
33.94
35.80
37.52
38.36
37.97
36.34
33.70
30.32
26.39
21.99
17.23
12.29
7.46
2.90
-1.47
-5.94
-10.92
-16.66
-23.07
-29.64
-35.72
-40.83
-44.92
-48.44
-52.22
-57.06
-63.39
-70.95
-78.73
-85.08
-88.24
-86.76
-79.94
-68.16
-52.68
-35.36
-18.04
-2.15
11.55
22.90
32.06
39.29
44.81
48.75
51.24
52.55
52.97
52.83
52.28
51.27
49.59
47.13
44.06
40.94
38.45
37.15
37.17
38.20
39.65
40.93
41.67
41.79
41.28
40.05
37.86
34.48
29.90
24.38
18.47
12.70
7.36
2.48
-2.22
-7.02
-12.05
-17.26
-22.44
-27.31
-31.70
-35.60
-39.18
-42.71
-46.53
-51.00
-56.51
-63.35
-71.58
-80.73
-89.79
-97.23
-101.37
-100.87
-95.08
-84.23
-69.34
-51.90
-33.62
-16.03
-0.39
12.51
22.46
29.83
35.37
39.94
44.18
48.23
51.83
54.54
55.99
56.18
55.38
54.02
52.48
51.00
49.61
48.39
47.42
46.90
46.96
47.59
48.48
49.16
49.14
48.09
45.97
43.00
39.46
35.68
31.80
27.91
24.03
20.24
16.52
12.85
9.16
5.40
1.56
-2.28
-6.14
-10.10
-14.32
-18.84
-23.55
-28.23
-32.63
-36.60
-40.21
-43.57
-46.87
-50.28
-54.07
-58.62
-64.36
-71.50
-79.77
-88.21
-95.20
-98.87
-97.69
-90.91
-78.87
-62.87
-44.92
-27.06
-10.96
2.57
13.48
22.24
29.40
35.32
40.04
43.51
45.83
47.26
48.10
48.42
48.09
46.91
44.90
42.43
40.16
38.71
38.40
39.11
40.37
41.63
42.46
42.58
41.93
40.53
38.47
35.99
33.35
30.78
28.25
25.59
22.45
18.69
14.41
9.98
5.79
2.02
-1.43
-4.92
-8.83
-13.30
-18.22
-23.19
-27.83
-31.96
-35.62
-39.03
-42.46
-46.12
-50.21
-54.97
-60.59
-67.03
-73.76
-79.58
-82.85
-81.98
-75.98
-64.94
-50.08
-33.24
-16.39
-1.07
11.78
21.81
29.00
33.65
36.25
37.49
38.07
38.49
38.88
39.06
38.68
37.49
35.57
33.23
30.91
28.99
27.70
27.15
27.34
28.13
29.19
30.02
30.08
28.98
26.71
23.59
20.19
17.03
14.29
11.85
9.39
6.46
2.73
-1.95
-7.54
-13.82
-20.36
-26.65
-32.23
-36.93
-40.99
-45.06
-49.98
-56.37
-64.30
-73.13
-81.53
-87.80
-90.33
-87.94
-80.30
-67.96
-52.27
-35.02
-18.00
-2.66
10.21
20.44
28.26
34.19
38.71
42.23
45.07
47.46
49.46
51.00
51.82
51.65
50.35
48.03
45.11
42.17
39.75
38.23
37.66
37.83
38.41
39.04
39.46
39.49
39.05
38.13
36.70
34.77
32.29
29.17
25.39
20.94
15.97
10.77
5.66
0.91
-3.38
-7.28
-11.10
-15.11
-19.48
-24.19
-29.01
-33.64
-37.87
-41.70
-45.45
-49.67
-54.92
-61.61
-69.66
-78.40
-86.64
-92.86
-95.64
-93.93
-87.31
-76.14
-61.39
-44.51
-27.20
-10.99
3.03
14.36
23.18
30.06
35.63
40.37
44.38
47.52
49.58
50.51
50.42
49.60
48.30
46.69
44.81
42.70
40.46
38.37
36.82
36.19
36.59
37.80
39.29
40.44
40.84
40.40
39.29
37.70
35.71
33.17
29.87
25.72
20.88
15.74
10.76
6.20
2.15
-1.45
-4.71
-7.72
-10.63
-13.66
-17.09
-21.14
-25.76
-30.72
-35.59
-40.11
-44.29
-48.52
-53.36
-59.28
-66.41
-74.34
-82.15
-88.55
-92.11
-91.60
-86.25
-76.09
-62.01
-45.56
-28.63
-12.87
0.63
11.52
19.99
26.47
31.32
34.74
36.93
38.06
38.51
38.59
38.54
38.33
37.73
36.46
34.46
32.03
29.75
28.31
28.18
29.36
31.40
33.54
35.00
35.18
33.78
30.88
26.86
22.23
17.48
13.03
9.00
5.39
1.87
-1.84
-6.02
-10.77
-15.98
-21.38
-26.68
-31.66
-36.31
-40.93
-46.03
-52.15
-59.58
-68.00
-76.35
-83.02
-86.25
-84.60
-77.53
-65.58
-50.22
-33.45
-17.22
-2.90
8.98
18.57
26.43
33.03
38.60
43.02
46.06
47.70
48.10
47.71
47.02
46.25
45.36
44.04
42.07
39.48
36.72
34.51
33.49
33.89
35.36
37.09
38.18
37.99
36.31
33.35
29.54
25.26
20.77
16.20
11.52
6.70
1.68
-3.66
-9.40
-15.59
-22.10
-28.72
-35.15
-41.10
-46.50
-51.59
-56.91
-63.18
-70.83
-79.69
-88.56
-95.44
-98.10
-94.92
-85.55
-71.06
-53.56
-35.40
-18.52
-3.97
7.96
17.50
25.03
30.95
35.69
39.72
43.44
47.03
50.33
52.89
54.25
54.21
52.94
50.89
48.60
46.47
44.80
43.72
43.26
43.37
43.86
44.42
44.69
44.36
43.23
41.24
38.38
34.69
30.26
25.31
20.15
15.06
10.11
5.14
-0.13
-5.89
-12.11
-18.51
-24.72
-30.50
-35.82
-40.87
-45.97
-51.48
-57.78
-65.13
-73.56
-82.68
-91.54
-98.73
-102.60
-101.80
-95.62
-84.41
-69.39
-52.40
-35.30
-19.52
-5.77
5.84
15.60
23.91
30.98
36.96
41.96
46.10
49.53
52.29
54.25
55.16
54.83
53.38
51.23
48.99
47.23
46.29
46.22
46.86
47.89
48.96
49.68
49.66
48.56
46.23
42.67
38.10
32.81
27.11
21.21
15.28
9.52
4.02
-1.19
-6.18
-11.14
-16.26
-21.58
-27.03
-32.42
-37.69
-43.03
-48.95
-56.12
-64.88
-74.94
-85.12
-93.57
-98.34
-98.05
-92.30
-81.76
-67.83
-52.16
-36.14
-20.83
-6.82
5.48
15.93
24.53
31.50
37.16
41.80
45.69
48.84
51.19
52.55
52.82
51.93
50.01
47.41
44.54
41.97
40.16
39.38
39.60
40.46
41.42
41.87
41.37
39.77
37.12
33.66
29.62
25.09
20.06
14.47
8.30
1.69
-5.15
-11.99
-18.66
-25.04
-31.06
-36.71
-42.04
-47.28
-52.88
-59.41
-67.30
-76.49
-86.13
-94.53
-99.58
-99.46
-93.32
-81.67
-66.18
-49.03
-32.25
-17.02
-3.64
8.19
18.86
28.55
37.18
44.60
50.78
55.83
59.92
63.05
65.07
65.77
65.12
63.34
60.91
58.40
56.27
54.74
53.80
53.27
52.91
52.47
51.68
50.28
48.15
45.23
41.66
37.69
33.55
29.39
25.19
20.77
15.87
10.35
4.25
-2.23
-8.81
-15.30
-21.64
-27.81
-33.81
-39.53
-44.91
-50.07
-55.37
-61.38
-68.57
-76.98
-86.00
-94.38
-100.54
-103.01
-100.84
-93.78
-82.38
-67.81
-51.55
-35.06
-19.49
-5.50
6.68
17.15
26.19
34.09
41.05
47.16
52.49
57.03
60.70
63.40
64.98
65.38
64.68
63.20
61.46
59.99
59.16
59.07
59.49
59.98
60.06
59.34
57.61
54.88
51.35
47.22
42.70
37.93
32.98
27.93
22.89
18.02
13.39
8.96
4.48
-0.47
-6.27
-13.06
-20.60
-28.27
-35.38
-41.40
-46.24
-50.33
-54.44
-59.39
-65.77
-73.72
-82.80
-92.09
-100.32
-106.05
-107.91
-104.87
-96.53
-83.33
-66.53
-47.91
-29.38
-12.40
2.23
14.48
24.67
33.36
40.88
47.39
52.87
57.28
60.60
62.85
64.02
64.03
62.87
60.69
57.93
55.36
53.74
53.54
54.63
56.28
57.44
57.26
55.48
52.48
49.00
45.68
42.70
39.79
36.47
32.41
27.68
22.65
17.71
13.01
8.39
3.51
-1.84
-7.66
-13.64
-19.31
-24.35
-28.68
-32.49
-36.19
-40.16
-44.72
-50.09
-56.43
-63.88
-72.40
-81.54
-90.22
-96.82
-99.57
-97.11
-89.03
-76.04
-59.75
-42.15
-25.04
-9.66
3.40
14.13
22.84
29.99
36.01
41.22
45.69
49.28
51.68
52.63
52.08
50.26
47.60
44.61
41.75
39.31
37.52
36.54
36.47
37.29
38.72
40.18
40.92
40.23
37.73
33.59
28.36
22.80
17.53
12.78
8.38
3.92
-1.04
-6.72
-13.11
-19.97
-26.94
-33.66
-39.78
-45.10
-49.67
-53.90
-58.43
-64.00
-70.97
-79.01
-86.88
-92.70
-94.40
-90.48
-80.55
-65.58
-47.58
-28.94
-11.74
2.80
14.38
23.46
30.74
36.85
42.19
46.92
50.98
54.34
56.86
58.46
59.11
58.78
57.57
55.69
53.48
51.29
49.41
48.07
47.33
47.17
47.35
47.56
47.43
46.65
45.01
42.55
39.45
35.93
32.23
28.39
24.34
20.01
15.42
10.71
6.12
1.80
-2.21
-6.02
-9.80
-13.68
-17.78
-22.21
-27.07
-32.31
-37.73
-42.92
-47.50
-51.36
-54.84
-58.72
-63.87
-70.81
-79.39
-88.62
-96.95
-102.55
-103.83
-99.79
-90.33
-76.25
-59.12
-40.91
-23.47
-8.09
4.68
14.91
23.11
29.82
35.43
40.13
44.04
47.18
49.60
51.27
52.08
51.84
50.48
48.16
45.36
42.83
41.28
41.10
42.16
43.87
45.38
45.99
45.34
43.54
40.97
38.11
35.27
32.56
29.91
27.17
24.26
21.17
17.92
14.49
10.85
6.97
2.87
-1.33
-5.49
-9.42
-13.10
-16.63
-20.23
-24.13
-28.43
-33.09
-37.91
-42.68
-47.18
-51.29
-55.06
-58.80
-63.07
-68.42
-75.05
-82.46
-89.34
-93.86
-94.19
-89.18
-78.82
-64.19
-47.13
-29.54
-13.01
1.49
13.47
22.83
29.68
34.35
37.31
39.15
40.48
41.70
42.91
43.91
44.25
43.57
41.74
38.99
35.86
33.00
30.94
29.94
29.97
30.71
31.65
32.20
31.83
30.13
27.05
22.86
18.13
13.50
9.37
5.80
2.53
-0.83
-4.56
-8.72
-13.22
-17.85
-22.45
-26.89
-31.16
-35.35
-39.74
-44.73
-50.71
-57.82
-65.69
-73.34
-79.32
-82.08
-80.47
-74.08
-63.36
-49.47
-33.90
-18.10
-3.27
9.83
20.78
29.40
35.68
39.84
42.20
43.24
43.46
43.20
42.61
41.65
40.25
38.38
36.15
33.73
31.35
29.16
27.30
25.87
24.91
24.33
23.86
23.13
21.88
19.99
17.57
14.85
11.91
8.59
4.62
-0.28
-6.07
-12.40
-18.68
-24.38
-29.32
-33.65
-37.78
-42.23
-47.42
-53.71
-61.28
-70.00
-79.22
-87.64
-93.36
-94.40
-89.42
-78.36
-62.60
-44.54
-26.73
-10.99
1.91
12.20
20.53
27.48
33.27
37.92
41.48
44.12
46.11
47.58
48.43
48.40
47.26
45.01
42.02
38.89
36.26
34.60
34.04
34.32
34.91
35.17
34.59
32.94
30.28
26.92
23.30
19.75
16.40
13.12
9.58
5.38
0.22
-5.95
-12.86
-20.01
-26.89
-33.17
-38.81
-44.03
-49.19
-54.74
-61.08
-68.46
-76.70
-85.02
-91.89
-95.33
-93.54
-85.65
-72.24
-55.23
-37.25
-20.63
-6.71
4.41
13.47
21.37
28.63
35.33
41.21
46.03
49.73
52.38
54.10
54.84
54.45
52.79
49.98
46.46
42.96
40.29
39.05
39.37
40.83
42.65
43.96
44.19
43.21
41.31
38.83
35.89
32.31
27.77
22.22
16.02
9.86
4.38
-0.24
-4.45
-9.02
-14.58
-21.18
-28.23
-34.77
-40.07
-44.02
-47.26
-50.84
-55.81
-62.76
-71.54
-81.28
-90.55
-97.62
-100.79
-98.77
-91.06
-78.08
-61.20
-42.46
-24.00
-7.61
5.73
15.93
23.63
29.81
35.30
40.55
45.54
49.89
53.09
54.78
54.86
53.52
51.09
47.98
44.61
41.47
39.09
37.99
38.44
40.18
42.44
44.14
44.34
42.59
39.16
34.81
30.31
26.08
22.06
17.93
13.37
8.30
2.80
-3.02
-9.11
-15.48
-22.01
-28.40
-34.27
-39.44
-44.12
-49.06
-55.12
-62.85
-72.02
-81.35
-88.87
-92.47
-90.68
-83.19
-70.87
-55.47
-38.90
-22.75
-7.95
5.14
16.43
25.84
33.27
38.77
42.54
45.07
46.90
48.35
49.47
50.04
49.79
48.66
46.86
44.83
43.10
42.04
41.72
41.98
42.48
42.87
42.76
41.78
39.71
36.42
32.06
26.96
21.57
16.27
11.24
6.45
1.61
-3.54
-9.23
-15.48
-22.16
-28.94
-35.51
-41.70
-47.61
-53.71
-60.68
-69.04
-78.79
-89.08
-98.28
-104.36
-105.59
-101.05
-90.98
-76.59
-59.65
-42.03
-25.24
-10.20
2.76
13.79
23.30
31.77
39.57
46.85
53.54
59.42
64.19
67.60
69.56
70.15
69.61
68.28
66.52
64.67
63.00
61.76
61.08
60.95
61.14
61.24
60.76
59.32
56.83
53.52
49.80
46.00
42.28
38.51
34.38
29.67
24.39
18.79
13.23
8.00
3.23
-1.15
-5.30
-9.49
-13.97
-18.96
-24.56
-30.70
-37.11
-43.44
-49.41
-54.93
-60.19
-65.57
-71.53
-78.45
-86.39
-94.94
-103.14
-109.51
-112.35
-110.25
-102.54
-89.68
-73.08
-54.73
-36.48
-19.64
-4.78
8.04
18.98
28.21
35.88
42.18
47.38
51.76
55.57
58.89
61.60
63.51
64.42
64.26
63.13
61.37
59.42
57.81
56.90
56.83
57.38
58.11
58.52
58.17
56.89
54.72
51.86
48.50
44.79
40.72
36.25
31.37
26.16
20.91
15.88
11.22
6.80
2.27
-2.87
-8.93
-15.89
-23.29
-30.41
-36.56
-41.45
-45.29
-48.77
-52.73
-57.90
-64.53
-72.39
-80.79
-88.75
-95.09
-98.61
-98.19
-93.01
-82.94
-68.73
-51.95
-34.63
-18.63
-5.10
5.79
14.59
22.16
29.14
35.76
41.84
47.01
50.98
53.58
54.85
54.86
53.79
51.85
49.42
46.94
44.88
43.66
43.45
44.16
45.35
46.39
46.59
45.44
42.86
39.03
34.41
29.45
24.49
19.61
14.78
9.83
4.59
-0.97
-6.80
-12.73
-18.58
-24.22
-29.59
-34.85
-40.23
-46.13
-52.83
-60.46
-68.79
-77.21
-84.70
-89.99
-91.79
-89.12
-81.63
-69.79
-54.78
-38.27
-21.95
-7.16
5.36
15.53
23.73
30.52
36.49
42.00
47.15
51.81
55.64
58.17
59.03
58.13
55.80
52.79
50.02
48.25
47.88
48.70
50.15
51.57
52.39
52.35
51.39
49.49
46.66
42.93
38.44
33.48
28.43
23.61
19.12
14.91
10.78
6.53
2.07
-2.65
-7.54
-12.51
-17.46
-22.29
-26.91
-31.26
-35.38
-39.36
-43.43
-47.78
-52.69
-58.42
-65.21
-73.04
-81.52
-89.69
-96.07
-99.02
-97.19
-90.01
-77.90
-62.17
-44.64
-27.18
-11.27
2.19
12.90
21.12
27.47
32.70
37.51
42.24
46.75
50.54
52.99
53.68
52.65
50.43
47.81
45.50
43.90
43.08
42.88
43.10
43.61
44.27
44.91
45.20
44.83
43.59
41.45
38.62
35.39
31.96
28.37
24.55
20.39
15.88
11.12
6.30
1.64
-2.68
-6.59
-10.10
-13.36
-16.63
-20.17
-24.15
-28.59
-33.20
-37.63
-41.60
-45.17
-48.73
-52.93
-58.34
-65.11
-72.84
-80.58
-87.06
-90.98
-91.20
-87.02
-78.38
-65.93
-50.98
-35.23
-20.35
-7.50
2.85
10.99
17.54
23.15
28.15
32.55
36.10
38.61
40.00
40.44
40.19
39.47
38.40
37.04
35.42
33.73
32.24
31.29
31.05
31.49
32.29
32.94
32.92
31.88
29.74
26.68
23.08
19.28
15.50
11.74
7.86
3.61
-1.17
-6.50
-12.30
-18.32
-24.27
-29.81
-34.75
-39.06
-42.99
-47.01
-51.69
-57.45
-64.25
-71.49
-77.95
-82.15
-82.66
-78.61
-69.95
-57.47
-42.62
-27.05
-12.24
0.81
11.61
20.08
26.43
30.94
34.07
36.25
37.97
39.53
40.94
41.97
42.20
41.35
39.33
36.43
33.20
30.31
28.27
27.31
27.32
27.91
28.58
28.87
28.52
27.40
25.56
23.12
20.26
17.15
13.81
10.11
5.78
0.53
-5.70
-12.52
-19.21
-25.00
-29.49
-32.95
-36.22
-40.33
-45.95
-53.21
-61.63
-70.36
-78.42
-84.76
-88.33
-88.11
-83.41
-74.12
-60.97
-45.42
-29.28
-14.17
-1.09
9.63
18.28
25.31
31.15
36.02
39.99
43.02
45.08
46.29
46.75
46.65
46.11
45.14
43.68
41.68
39.26
36.75
34.65
33.40
33.22
33.94
35.06
35.94
35.94
34.67
31.98
28.04
23.17
17.86
12.58
7.67
3.27
-0.72
-4.63
-8.86
-13.74
-19.31
-25.33
-31.33
-36.88
-41.78
-46.24
-50.82
-56.15
-62.61
-70.03
-77.52
-83.65
-86.77
-85.55
-79.37
-68.57
-54.32
-38.26
-22.02
-6.85
6.45
17.55
26.29
32.66
36.88
39.50
41.32
43.14
45.40
47.85
49.67
49.94
48.20
44.77
40.67
37.08
34.88
34.32
35.05
36.49
38.01
39.20
39.76
39.47
38.17
35.80
32.41
28.23
23.57
18.74
13.95
9.24
4.57
-0.26
-5.39
-10.99
-17.05
-23.31
-29.44
-35.03
-39.85
-43.96
-47.85
-52.16
-57.54
-64.23
-71.69
-78.76
-83.70
-84.82
-80.94
-71.88
-58.55
-42.68
-26.29
-11.13
1.75
12.06
20.09
26.36
31.38
35.42
38.52
40.56
41.44
41.10
39.75
37.73
35.46
33.36
31.69
30.57
29.94
29.74
29.81
30.08
30.44
30.70
30.62
29.90
28.32
25.71
22.09
17.59
12.45
6.94
1.23
-4.58
-10.51
-16.58
-22.77
-28.95
-34.91
-40.52
-45.80
-51.00
-56.46
-62.42
-68.76
-74.79
-79.35
-81.01
-78.57
-71.41
-59.87
-45.15
-29.03
-13.29
0.73
12.40
21.81
29.35
35.47
40.41
44.20
46.81
48.25
48.68
48.35
47.42
45.99
44.09
41.84
39.50
37.56
36.48
36.47
37.34
38.48
39.10
38.51
36.42
32.99
28.69
24.11
19.71
15.73
12.22
8.97
5.65
1.80
-2.97
-8.81
-15.52
-22.62
-29.47
-35.62
-40.99
-45.89
-50.88
-56.56
-63.25
-70.86
-78.81
-86.02
-91.03
-92.32
-88.72
-79.81
-66.17
-49.35
-31.40
-14.38
0.22
11.78
20.55
27.35
33.11
38.48
43.63
48.33
52.17
54.81
56.12
56.17
55.11
53.12
50.47
47.50
44.76
42.85
42.22
42.90
44.41
45.93
46.60
45.90
43.81
40.80
37.49
34.37
31.60
28.98
26.14
22.76
18.74
14.20
9.39
4.50
-0.40
-5.35
-10.45
-15.68
-20.93
-26.02
-30.85
-35.47
-40.07
-44.93
-50.23
-56.15
-62.83
-70.33
-78.56
-87.02
-94.64
-99.89
-101.14
-97.19
-87.88
-74.05
-57.33
-39.60
-22.43
-6.91
6.44
17.41
26.11
32.85
38.09
42.33
46.00
49.25
51.91
53.64
54.08
53.03
50.71
47.63
44.52
42.07
40.76
40.68
41.60
43.02
44.33
45.02
44.78
43.48
41.17
37.97
33.98
29.33
24.21
18.92
13.86
9.38
5.61
2.33
-0.96
-4.85
-9.63
-15.28
-21.34
-27.24
-32.62
-37.48
-42.11
-47.05
-52.76
-59.55
-67.42
-75.86
-83.83
-89.81
-92.18
-89.68
-81.88
-69.39
-53.67
-36.60
-19.86
-4.58
8.73
19.91
28.99
36.00
41.07
44.49
46.67
48.02
48.78
48.86
48.10
46.39
43.87
41.03
38.49
36.79
36.22
36.66
37.77
38.98
39.70
39.43
37.90
35.18
31.67
27.86
24.17
20.71
17.27
13.44
8.81
3.18
-3.33
-10.39
-17.49
-24.16
-30.11
-35.28
-39.95
-44.71
-50.25
-57.15
-65.54
-74.83
-83.68
-90.27
-92.81
-90.10
-81.88
-68.95
-52.96
-35.87
-19.41
-4.79
7.49
17.53
25.74
32.58
38.45
43.56
48.01
51.79
54.83
56.95
57.93
57.63
56.06
53.57
50.76
48.31
46.68
45.99
45.99
46.27
46.51
46.52
46.25
45.62
44.40
42.31
39.10
34.72
29.37
23.43
17.40
11.72
6.66
2.23
-1.78
-5.72
-9.88
-14.40
-19.20
-24.13
-29.12
-34.25
-39.71
-45.63
-52.05
-58.86
-65.96
-73.34
-80.94
-88.45
-95.06
-99.50
-100.31
-96.31
-87.08
-73.16
-55.88
-37.05
-18.49
-1.73
12.25
23.01
30.74
36.07
39.89
43.09
46.24
49.47
52.50
54.91
56.35
56.73
56.16
54.92
53.24
51.34
49.39
47.61
46.22
45.36
44.98
44.79
44.45
43.66
42.29
40.32
37.86
34.92
31.46
27.44
22.97
18.29
13.69
9.43
5.50
1.68
-2.33
-6.79
-11.80
-17.25
-22.99
-28.83
-34.52
-39.89
-44.73
-49.06
-53.19
-57.69
-63.25
-70.31
-78.72
-87.52
-95.18
-99.86
-100.04
-94.86
-84.41
-69.71
-52.39
-34.38
-17.33
-2.43
9.86
19.60
27.22
33.23
37.99
41.72
44.46
46.26
47.09
47.06
46.25
44.77
42.73
40.24
37.48
34.80
32.63
31.38
31.32
32.35
33.96
35.46
36.20
35.80
34.26
31.84
28.82
25.26
21.08
16.10
10.31
3.89
-2.78
-9.32
-15.51
-21.29
-26.70
-31.86
-36.96
-42.35
-48.54
-56.03
-64.96
-74.77
-84.06
-90.89
-93.38
-90.36
-81.77
-68.60
-52.43
-34.98
-17.73
-1.83
11.87
22.77
30.63
35.73
38.84
41.07
43.33
46.01
48.78
50.89
51.56
50.49
48.02
44.90
42.00
39.88
38.71
38.36
38.57
39.10
39.67
39.94
39.40
37.62
34.40
29.90
24.64
19.25
14.13
9.30
4.49
-0.73
-6.55
-12.88
-19.36
-25.59
-31.34
-36.67
-41.89
-47.41
-53.74
-61.27
-70.08
-79.81
-89.35
-97.04
-100.96
-99.57
-92.25
-79.59
-63.16
-44.99
-26.94
-10.35
4.08
16.11
25.84
33.53
39.60
44.61
49.07
53.30
57.31
60.80
63.27
64.30
63.68
61.55
58.37
54.79
51.51
49.16
48.11
48.32
49.41
50.72
51.56
51.49
50.34
48.32
45.70
42.75
39.52
35.88
31.59
26.49
20.68
14.47
8.29
2.50
-2.67
-7.25
-11.47
-15.68
-20.21
-25.26
-30.77
-36.47
-42.02
-47.18
-52.05
-57.05
-62.91
-70.30
-79.52
-90.05
-100.59
-109.26
-114.13
-113.73
-107.51
-95.84
-79.93
-61.42
-41.99
-23.15
-6.00
8.75
20.80
30.20
37.28
42.52
46.40
49.28
51.34
52.68
53.36
53.50
53.23
52.69
51.91
50.89
49.60
48.17
46.86
46.00
45.81
46.19
46.73
46.85
46.08
44.27
41.51
38.14
34.41
30.38
25.99
21.05
15.52
9.45
3.11
-3.28
-9.50
-15.41
-21.02
-26.36
-31.50
-36.54
-41.59
-46.88
-52.69
-59.37
-67.15
-75.91
-84.91
-92.79
-97.78
-98.30
-93.34
-82.97
-68.25
-50.94
-32.93
-15.79
-0.58
12.28
22.74
31.00
37.37
42.24
45.98
48.80
50.78
51.80
51.71
50.43
48.09
45.09
41.94
39.18
37.26
36.35
36.39
37.00
37.63
37.76
37.00
35.20
32.48
29.03
25.06
20.60
15.58
9.91
3.55
-3.34
-10.51
-17.60
-24.31
-30.45
-36.02
-41.33
-46.90
-53.43
-61.47
-71.03
-81.42
-91.12
-98.15
-100.57
-97.11
-87.58
-72.94
-54.99
-35.83
-17.26
-0.51
13.83
25.61
34.96
42.24
47.89
52.52
56.60
60.29
63.30
65.00
64.81
62.53
58.58
53.86
49.44
46.07
44.10
43.44
43.70
44.41
45.07
45.24
44.55
42.80
39.93
36.04
31.38
26.19
20.71
15.09
9.38
3.51
-2.66
-9.23
-16.19
-23.39
-30.55
-37.38
-43.72
-49.69
-55.72
-62.49
-70.60
-80.28
-91.02
-101.38
-109.25
-112.44
-109.47
-100.04
-85.28
-67.07
-47.46
-28.03
-9.70
6.99
21.56
33.50
42.52
48.71
52.75
55.62
58.12
60.56
62.67
63.91
63.84
62.43
60.02
57.18
54.44
52.19
50.68
50.04
50.28
51.22
52.45
53.39
53.43
52.15
49.42
45.44
40.65
35.46
30.21
25.06
20.03
15.01
9.87
4.46
-1.38
-7.79
-14.79
-22.22
-29.78
-37.02
-43.63
-49.52
-54.92
-60.35
-66.35
-73.37
-81.59
-90.78
-100.26
-108.86
-114.92
-116.64
-112.61
-102.30
-86.41
-66.75
-45.67
-25.45
-7.64
7.11
18.92
28.24
35.67
41.76
46.90
51.39
55.25
58.29
60.07
60.16
58.37
54.96
50.60
46.22
42.66
40.42
39.56
39.70
40.28
40.68
40.49
39.47
37.64
35.09
31.97
28.37
24.33
19.84
14.84
9.32
3.25
-3.33
-10.29
-17.45
-24.63
-31.64
-38.39
-44.92
-51.44
-58.43
-66.38
-75.55
-85.59
-95.29
-102.74
-105.73
-102.61
-92.92
-77.61
-58.73
-38.70
-19.55
-2.48
12.17
24.52
34.78
43.14
49.69
54.62
58.14
60.47
61.71
61.80
60.63
58.16
54.57
50.32
46.08
42.65
40.69
40.47
41.69
43.55
45.01
45.14
43.53
40.34
36.19
31.72
27.34
23.00
18.36
13.00
6.69
-0.51
-8.25
-16.06
-23.53
-30.42
-36.71
-42.59
-48.38
-54.60
-61.85
-70.67
-81.24
-93.07
-104.79
-114.25
-119.07
-117.30
-108.21
-92.52
-72.23
-49.97
-28.25
-8.84
7.44
20.57
31.10
39.72
47.02
53.36
58.85
63.40
66.80
68.85
69.41
68.54
66.49
63.64
60.47
57.42
54.88
53.02
51.92
51.49
51.54
51.73
51.68
51.01
49.45
46.85
43.29
39.00
34.31
29.48
24.61
19.59
14.11
7.85
0.62
-7.38
-15.68
-23.60
-30.58
-36.47
-41.56
-46.46
-51.88
-58.46
-66.58
-76.37
-87.56
-99.32
-110.16
-118.12
-121.18
-117.85
-107.73
-91.63
-71.47
-49.64
-28.38
-9.38
6.58
19.38
29.52
37.69
44.56
50.58
55.88
60.32
63.54
65.24
65.25
63.68
60.95
57.64
54.39
51.76
50.08
49.44
49.76
50.75
52.00
53.06
53.48
52.97
51.49
49.34
46.96
44.76
42.79
40.72
38.02
34.33
29.67
24.47
19.28
14.44
9.92
5.40
0.59
-4.54
-9.74
-14.67
-19.25
-23.73
-28.59
-34.19
-40.53
-47.22
-53.80
-60.01
-66.09
-72.70
-80.60
-90.05
-100.52
-110.58
-118.16
-121.11
-117.99
-108.36
-93.00
-73.61
-52.39
-31.39
-12.26
4.05
17.19
27.28
34.81
40.36
44.55
47.89
50.57
52.54
53.51
53.19
51.46
48.56
45.01
41.62
39.10
37.87
37.95
38.93
40.25
41.31
41.68
41.14
39.65
37.34
34.40
31.02
27.30
23.15
18.34
12.70
6.19
-0.98
-8.41
-15.69
-22.48
-28.65
-34.38
-40.00
-46.07
-53.16
-61.70
-71.76
-82.77
-93.42
-101.76
-105.74
-103.77
-95.28
-80.89
-62.29
-41.74
-21.52
-3.45
11.47
23.08
31.86
38.62
44.17
49.02
53.28
56.73
58.99
59.77
58.99
56.91
54.00
50.88
48.08
45.95
44.60
43.90
43.57
43.35
42.98
42.27
41.08
39.30
36.91
34.05
30.90
27.62
24.25
20.54
16.20
10.91
4.61
-2.50
-9.99
-17.36
-24.28
-30.68
-36.79
-43.00
-49.84
-57.74
-66.96
-77.39
-88.47
-99.07
-107.56
-112.06
-110.94
-103.36
-89.67
-71.49
-51.20
-31.31
-13.65
0.96
12.67
22.08
29.76
36.05
41.09
45.09
48.48
51.85
55.51
59.32
62.61
64.46
64.19
61.82
58.09
54.23
51.41
50.27
50.72
51.99
53.17
53.51
52.71
50.89
48.39
45.43
41.96
37.75
32.59
26.51
19.91
13.32
7.20
1.68
-3.49
-8.83
-14.78
-21.56
-29.01
-36.71
-44.26
-51.40
-58.20
-65.04
-72.48
-81.01
-90.76
-101.16
-110.88
-118.02
-120.61
-117.29
-107.73
-92.82
-74.29
-54.16
-34.19
-15.58
1.04
15.33
27.16
36.48
43.48
48.58
52.27
55.00
56.91
57.87
57.67
56.21
53.69
50.58
47.40
44.62
42.50
41.11
40.42
40.36
40.75
41.29
41.56
41.09
39.47
36.48
32.11
26.51
19.94
12.72
5.20
-2.34
-9.74
-16.99
-24.20
-31.51
-39.09
-47.03
-55.48
-64.64
-74.62
-85.25
-95.78
-104.82
-110.53
-111.14
-105.61
-94.02
-77.60
-58.28
-38.12
-18.76
-1.23
14.00
26.88
37.48
46.01
52.77
58.08
62.27
65.50
67.67
68.53
67.76
65.29
61.39
56.67
51.95
47.98
45.25
43.82
43.37
43.34
43.09
42.10
40.01
36.75
32.38
27.15
21.30
15.09
8.67
2.09
-4.73
-11.91
-19.48
-27.30
-35.09
-42.59
-49.75
-57.00
-65.09
-74.72
-86.13
-98.58
-110.33
-119.00
-122.28
-118.72
-108.28
-92.22
-72.68
-51.97
-31.96
-13.82
2.02
15.63
27.35
37.60
46.76
55.11
62.63
69.10
74.02
76.82
77.15
75.10
71.27
66.68
62.42
59.26
57.52
56.94
56.97
57.02
56.72
55.91
54.55
52.54
49.72
45.92
41.13
35.56
29.58
23.50
17.46
11.29
4.73
-2.45
-10.25
-18.42
-26.56
-34.33
-41.60
-48.55
-55.60
-63.30
-72.19
-82.54
-94.07
-105.91
-116.50
-123.98
-126.56
-123.09
-113.37
-98.28
-79.48
-58.91
-38.39
-19.14
-1.88
13.20
26.13
37.08
46.25
53.93
60.39
65.81
70.16
73.25
74.82
74.73
73.11
70.34
66.97
63.54
60.52
58.28
56.98
56.57
56.71
56.83
56.26
54.45
51.11
46.45
40.94
35.19
29.62
24.30
18.89
12.82
5.62
-2.86
-12.26
-21.85
-30.81
-38.54
-44.98
-50.54
-56.00
-62.24
-69.90
-79.25
-89.92
-100.87
-110.33
-116.17
-116.45
-110.00
-96.96
-78.78
-57.82
-36.52
-16.77
0.53
15.29
27.88
38.72
47.94
55.51
61.26
65.15
67.23
67.72
66.84
64.80
61.89
58.44
54.93
51.84
49.60
48.41
48.13
48.34
48.35
47.51
45.32
41.65
36.68
30.89
24.78
18.69
12.68
6.49
-0.25
-7.84
-16.23
-25.03
-33.67
-41.67
-49.02
-56.30
-64.47
-74.36
-86.06
-98.60
-109.94
-117.54
-119.13
-113.51
-100.90
-82.87
-61.78
-40.03
-19.41
-0.88
15.37
29.52
41.84
52.53
61.68
69.36
75.54
80.15
83.03
84.04
83.28
81.11
78.11
74.92
71.97
69.48
67.51
66.07
65.16
64.76
64.67
64.48
63.66
61.77
58.60
54.25
48.95
42.95
36.46
29.64
22.68
15.79
9.10
2.57
-4.03
-10.97
-18.36
-26.06
-33.70
-40.92
-47.60
-53.88
-60.15
-66.83
-74.28
-82.67
-92.10
-102.36
-112.91
-122.53
-129.45
-131.59
-127.26
-115.87
-98.25
-76.50
-53.34
-31.22
-11.75
4.57
18.02
29.28
38.98
47.54
55.11
61.71
67.28
71.62
74.47
75.66
75.18
73.38
70.77
67.99
65.43
63.27
61.52
60.15
59.18
58.65
58.41
58.10
57.26
55.52
52.77
49.17
44.94
40.19
34.89
28.96
22.52
15.92
9.57
3.73
-1.77
-7.39
-13.63
-20.73
-28.48
-36.34
-43.73
-50.29
-56.06
-61.37
-66.73
-72.70
-79.77
-88.20
-97.74
-107.45
-115.73
-120.63
-120.37
-113.95
-101.49
-84.22
-64.07
-43.16
-23.31
-5.72
9.09
21.15
30.82
38.57
44.80
49.83
53.78
56.64
58.31
58.68
57.70
55.56
52.59
49.27
46.08
43.41
41.46
40.29
39.83
39.88
40.09
39.94
38.84
36.36
32.38
27.28
21.63
15.96
10.49
5.04
-0.79
-7.34
-14.60
-22.19
-29.50
-36.09
-41.89
-47.36
-53.40
-60.89
-70.23
-80.98
-91.70
-100.34
-104.75
-103.33
-95.57
-82.14
-64.67
-45.25
-25.79
-7.66
8.40
22.19
33.80
43.39
51.04
56.79
60.69
62.90
63.66
63.25
61.90
59.67
56.56
52.68
48.36
44.20
40.92
39.05
38.71
39.43
40.36
40.56
39.34
36.58
32.55
27.79
22.74
17.62
12.38
6.87
0.93
-5.53
-12.55
-20.02
-27.81
-35.65
-43.21
-50.27
-56.90
-63.47
-70.62
-78.87
-88.25
-97.96
-106.41
-111.54
-111.52
-105.34
-93.11
-76.05
-56.04
-35.10
-14.97
3.14
18.58
31.15
40.93
48.29
53.68
57.57
60.34
62.22
63.29
63.51
62.80
61.09
58.40
54.87
50.88
47.01
43.89
42.01
41.44
41.75
42.14
41.79
40.10
36.99
32.74
27.83
22.55
17.07
11.38
5.43
-0.76
-7.14
-13.72
-20.46
-27.37
-34.37
-41.31
-48.07
-54.72
-61.57
-69.21
-78.16
-88.41
-99.13
-108.58
-114.47
-114.75
-108.32
-95.49
-77.85
-57.70
-37.25
-18.04
-0.83
14.14
26.85
37.20
45.16
50.84
54.64
57.11
58.69
59.59
59.72
58.90
57.06
54.36
51.13
47.81
44.78
42.33
40.62
39.62
39.05
38.47
37.41
35.50
32.60
28.85
24.49
19.70
14.53
8.91
2.82
-3.64
-10.18
-16.55
-22.60
-28.45
-34.38
-40.79
-48.01
-56.23
-65.55
-75.87
-86.71
-97.03
-105.21
-109.35
-107.76
-99.63
-85.43
-66.85
-46.29
-26.07
-7.85
7.64
20.49
31.10
39.89
47.12
52.82
56.95
59.45
60.26
59.48
57.28
53.99
50.00
45.77
41.66
38.04
35.13
33.05
31.74
30.92
30.17
29.01
27.15
24.51
21.18
17.25
12.67
7.29
1.04
-5.88
-13.09
-20.20
-27.06
-33.88
-41.14
-49.29
-58.55
-68.84
-79.72
-90.43
-99.84
-106.52
-108.90
-105.67
-96.29
-81.20
-61.89
-40.48
-19.17
0.29
16.92
30.49
41.34
50.07
57.23
63.15
67.87
71.21
72.97
73.08
71.68
69.11
65.78
62.07
58.41
55.18
52.66
50.99
50.07
49.54
48.84
47.45
45.07
41.71
37.65
33.19
28.50
23.48
17.85
11.35
3.92
-4.17
-12.47
-20.52
-28.08
-35.18
-42.04
-48.95
-56.11
-63.64
-71.70
-80.55
-90.38
-100.99
-111.46
-120.05
-124.57
-122.99
-114.34
-99.06
-78.95
-56.57
-34.32
-13.83
4.18
19.66
32.86
43.93
52.96
60.08
65.56
69.75
72.90
75.04
75.97
75.50
73.64
70.74
67.38
64.16
61.52
59.65
58.58
58.18
58.23
58.31
57.89
56.36
53.32
48.73
42.94
36.55
30.14
24.08
18.48
13.26
8.23
3.20
-2.05
-7.85
-14.50
-22.08
-30.36
-38.77
-46.66
-53.62
-59.73
-65.60
-72.17
-80.27
-90.18
-101.31
-112.17
-120.62
-124.43
-121.91
-112.44
-96.67
-76.37
-53.87
-31.45
-10.89
6.79
21.24
32.59
41.27
47.88
53.07
57.33
60.84
63.43
64.71
64.25
61.97
58.21
53.69
49.33
45.86
43.68
42.76
42.71
42.97
42.96
42.23
40.54
37.80
34.12
29.69
24.71
19.37
13.77
7.83
1.42
-5.58
-13.11
-20.84
-28.28
-35.04
-41.17
-47.29
-54.41
-63.44
-74.56
-86.85
-98.33
-106.47
-109.05
-104.78
-93.77
-77.30
-57.46
-36.47
-16.16
2.28
18.32
31.83
42.94
51.79
58.55
63.38
66.42
67.84
67.72
66.20
63.39
59.62
55.37
51.22
47.72
45.18
43.57
42.59
41.76
40.71
39.26
37.35
35.01
32.25
28.95
24.92
19.97
13.99
6.99
-0.84
-9.27
-17.93
-26.44
-34.41
-41.61
-48.06
-54.20
-60.85
-68.91
-78.99
-90.92
-103.44
-114.36
-121.04
-121.22
-113.75
-99.07
-79.01
-56.26
-33.44
-12.43
5.84
21.40
34.61
45.84
55.23
62.84
68.77
73.22
76.46
78.54
79.37
78.65
76.27
72.41
67.71
63.04
59.26
56.83
55.74
55.55
55.64
55.45
54.71
53.34
51.35
48.69
45.16
40.53
34.74
27.97
20.65
13.15
5.71
-1.72
-9.27
-16.93
-24.43
-31.36
-37.41
-42.70
-47.68
-53.01
-59.25
-66.75
-75.63
-85.84
-97.14
-108.86
-119.69
-127.71
-130.76
-127.16
-116.30
-99.05
-77.43
-54.12
-31.60
-11.59
5.20
18.95
30.34
40.17
49.06
57.23
64.56
70.70
75.14
77.49
77.52
75.38
71.61
67.06
62.69
59.33
57.51
57.30
58.38
60.10
61.76
62.65
62.35
60.70
57.87
54.24
50.22
46.08
41.83
37.36
32.51
27.22
21.58
15.69
9.63
3.38
-3.07
-9.62
-16.01
-22.02
-27.63
-33.09
-38.79
-45.05
-51.85
-58.82
-65.48
-71.64
-77.64
-84.26
-92.19
-101.45
-111.03
-118.98
-123.04
-121.37
-113.20
-99.04
-80.41
-59.37
-37.96
-17.86
-0.12
14.83
27.01
36.82
44.71
51.08
56.13
59.86
62.15
62.92
62.18
60.09
56.94
53.09
49.05
45.29
42.31
40.45
39.83
40.19
41.04
41.72
41.62
40.43
38.03
34.54
30.13
24.94
19.07
12.63
5.81
-1.16
-8.12
-15.01
-21.89
-28.86
-35.89
-42.96
-50.03
-57.27
-65.08
-73.99
-84.14
-94.96
-104.88
-111.65
-112.94
-107.17
-94.17
-75.32
-53.07
-30.16
-8.80
9.77
25.23
37.88
48.17
56.47
63.01
67.95
71.42
73.49
74.17
73.41
71.22
67.81
63.60
59.15
55.05
51.76
49.57
48.48
48.31
48.58
48.60
47.70
45.43
41.69
36.80
31.29
25.66
20.17
14.79
9.28
3.35
-3.22
-10.47
-18.25
-26.25
-34.13
-41.61
-48.62
-55.28
-62.02
-69.33
-77.68
-87.24
-97.68
-107.98
-116.51
-121.24
-120.29
-112.60
-98.32
-78.94
-56.77
-34.29
-13.36
4.97
20.43
33.14
43.28
51.04
56.69
60.73
63.80
66.40
68.70
70.34
70.71
69.32
66.07
61.45
56.33
51.76
48.49
46.79
46.41
46.67
46.77
46.03
44.07
40.88
36.76
32.04
27.02
21.76
16.15
9.96
3.06
-4.59
-12.80
-21.15
-29.19
-36.49
-42.84
-48.44
-53.89
-60.03
-67.69
-77.32
-88.63
-100.57
-111.32
-118.67
-120.55
-115.70
-103.94
-86.41
-65.22
-42.86
-21.51
-2.63
13.21
26.06
36.28
44.26
50.33
54.80
58.05
60.40
62.12
63.18
63.31
62.13
59.43
55.35
50.49
45.67
41.66
38.93
37.39
36.56
35.86
34.84
33.31
31.28
28.76
25.60
21.58
16.51
10.39
3.41
-4.12
-11.89
-19.64
-27.16
-34.34
-41.25
-48.24
-55.89
-64.73
-74.85
-85.63
-95.67
-103.07
-105.92
-102.88
-93.49
-78.42
-59.30
-38.34
-17.83
0.47
15.68
27.88
37.73
45.99
53.01
58.66
62.59
64.57
64.68
63.34
61.05
58.14
54.78
51.09
47.32
43.94
41.50
40.29
40.15
40.44
40.28
38.97
36.26
32.33
27.66
22.58
17.13
11.09
4.14
-3.84
-12.61
-21.63
-30.26
-38.10
-45.16
-51.98
-59.38
-68.16
-78.75
-90.83
-103.24
-114.07
-121.09
-122.29
-116.45
-103.63
-85.16
-63.38
-40.88
-19.87
-1.61
13.69
26.63
37.96
48.17
57.24
64.80
70.41
73.93
75.56
75.76
75.02
73.66
71.76
69.28
66.23
62.79
59.37
56.43
54.32
53.10
52.50
51.96
50.93
48.96
45.88
41.80
36.88
31.30
25.14
18.44
11.23
3.61
-4.32
-12.45
-20.72
-29.05
-37.30
-45.26
-52.70
-59.49
-65.77
-72.08
-79.21
-87.91
-98.46
-110.17
-121.29
-129.34
-131.82
-127.13
-115.16
-97.29
-75.87
-53.37
-31.69
-11.91
5.60
20.84
33.89
44.84
53.87
61.26
67.39
72.50
76.50
79.06
79.82
78.71
76.07
72.62
69.14
66.20
64.02
62.46
61.30
60.38
59.61
58.93
58.20
57.05
55.06
51.80
47.11
41.10
34.18
26.94
19.94
13.54
7.78
2.41
-3.02
-8.95
-15.63
-23.02
-30.83
-38.67
-46.25
-53.48
-60.57
-67.95
-76.11
-85.38
-95.66
-106.31
-116.11
-123.49
-126.88
-125.07
-117.54
-104.55
-87.11
-66.75
-45.21
-24.08
-4.54
12.66
27.28
39.45
49.46
57.66
64.18
69.02
71.99
72.99
72.12
69.71
66.30
62.53
58.97
56.00
53.83
52.43
51.71
51.41
51.20
50.65
49.39
47.12
43.71
39.19
33.70
27.46
20.68
13.57
6.28
-1.13
-8.60
-16.11
-23.55
-30.79
-37.81
-44.77
-52.17
-60.68
-70.91
-82.93
-95.89
-108.00
-116.84
-120.01
-115.99
-104.65
-87.23
-65.99
-43.34
-21.27
-0.96
17.06
32.60
45.62
56.04
63.94
69.61
73.48
75.97
77.27
77.38
76.16
73.66
70.14
66.11
62.15
58.72
56.04
54.10
52.77
51.69
50.40
48.41
45.31
40.98
35.65
29.82
23.89
18.04
12.00
5.36
-2.18
-10.60
-19.48
-28.25
-36.49
-44.14
-51.46
-58.92
-66.96
-75.93
-85.94
-96.79
-107.74
-117.50
-124.26
-126.12
-121.66
-110.45
-93.32
-72.12
-49.16
-26.52
-5.67
12.78
28.74
42.42
53.98
63.55
71.19
77.00
81.13
83.64
84.58
83.97
81.88
78.60
74.60
70.40
66.49
63.20
60.65
58.81
57.52
56.47
55.30
53.62
51.12
47.75
43.67
39.13
34.34
29.21
23.51
16.94
9.35
0.83
-8.29
-17.54
-26.46
-34.69
-42.14
-48.96
-55.51
-62.33
-69.92
-78.68
-88.71
-99.73
-110.82
-120.53
-127.00
-128.47
-123.73
-112.64
-96.17
-76.13
-54.55
-33.07
-12.70
6.15
23.30
38.51
51.43
61.77
69.47
74.82
78.19
79.87
79.97
78.50
75.61
71.75
67.66
64.03
61.24
59.30
57.81
56.38
54.84
53.26
51.75
50.25
48.47
45.96
42.43
37.93
32.82
27.57
22.44
17.31
11.66
4.91
-3.27
-12.71
-22.76
-32.51
-41.12
-48.11
-53.56
-58.09
-62.64
-68.22
-75.55
-84.80
-95.39
-106.04
-114.96
-120.17
-120.01
-113.53
-100.78
-82.79
-61.45
-38.96
-17.39
1.70
17.62
30.33
40.38
48.41
54.98
60.32
64.37
66.88
67.65
66.69
64.25
60.78
56.86
52.99
49.61
46.90
44.91
43.51
42.42
41.31
39.84
37.73
34.82
31.12
26.78
22.00
16.92
11.64
6.09
0.23
-5.96
-12.49
-19.27
-26.30
-33.59
-41.26
-49.41
-58.17
-67.63
-77.79
-88.46
-98.98
-108.15
-114.21
-115.29
-109.98
-97.94
-80.25
-59.01
-36.72
-15.46
3.57
20.01
34.01
45.75
55.27
62.56
67.76
71.22
73.39
74.53
74.64
73.50
70.95
67.14
62.59
57.99
53.97
50.84
48.58
46.92
45.52
44.00
42.06
39.44
36.00
31.75
26.92
21.85
16.79
11.78
6.60
0.85
-5.74
-13.24
-21.35
-29.59
-37.52
-44.94
-51.98
-59.04
-66.62
-75.21
-85.06
-95.94
-106.97
-116.48
-122.27
-122.23
-115.08
-101.01
-81.66
-59.64
-37.57
-17.28
0.44
15.70
28.86
40.16
49.61
57.21
63.08
67.51
70.74
72.74
73.27
71.99
68.85
64.21
58.82
53.57
49.25
46.31
44.82
44.44
44.56
44.44
43.37
40.91
36.98
31.97
26.48
21.13
16.24
11.66
6.94
1.52
-4.99
-12.52
-20.64
-28.75
-36.33
-43.23
-49.68
-56.17
-63.34
-71.70
-81.50
-92.58
-104.13
-114.68
-122.23
-124.67
-120.48
-109.23
-91.83
-70.29
-47.09
-24.48
-4.07
13.36
27.68
39.12
48.10
55.03
60.28
64.13
66.72
68.09
68.15
66.80
64.11
60.29
55.86
51.48
47.82
45.40
44.32
44.28
44.62
44.57
43.56
41.34
38.03
33.93
29.37
24.51
19.40
13.92
7.91
1.23
-6.13
-14.06
-22.29
-30.40
-38.06
-45.10
-51.71
-58.43
-65.90
-74.55
-84.38
-94.66
-104.09
-111.00
-113.73
-111.06
-102.55
-88.60
-70.49
-50.05
-29.24
-9.70
7.63
22.43
34.86
45.15
53.36
59.32
62.90
64.24
63.77
62.11
59.80
57.13
54.12
50.78
47.28
43.98
41.32
39.54
38.56
38.01
37.43
36.37
34.58
31.93
28.37
23.90
18.54
12.38
5.57
-1.72
-9.37
-17.20
-25.08
-32.89
-40.58
-48.31
-56.43
-65.42
-75.64
-87.00
-98.68
-109.05
-115.94
-117.29
-111.75
-99.22
-80.89
-58.97
-35.95
-13.97
5.60
22.27
36.17
47.60
56.87
64.06
69.29
72.71
74.56
75.06
74.33
72.35
69.19
65.06
60.48
56.10
52.56
50.18
48.87
48.14
47.33
45.91
43.62
40.49
36.78
32.74
28.51
23.98
18.82
12.60
5.11
-3.53
-12.82
-22.11
-30.86
-38.92
-46.47
-53.98
-61.91
-70.58
-80.13
-90.41
-100.99
-111.00
-119.11
-123.57
-122.59
-114.91
-100.30
-79.90
-55.80
-30.63
-6.72
14.36
31.96
46.12
57.26
65.92
72.53
77.51
81.13
83.50
84.51
83.85
81.33
77.11
71.79
66.32
61.65
58.38
56.60
55.94
55.86
55.77
55.21
53.80
51.26
47.46
42.46
36.59
30.38
24.28
18.50
12.84
6.82
-0.09
-8.13
-17.12
-26.46
-35.39
-43.27
-49.81
-55.20
-60.01
-65.11
-71.43
-79.73
-90.29
-102.64
-115.38
-126.20
-132.44
-131.83
-123.30
-107.39
-86.11
-62.21
-38.33
-16.29
3.12
19.95
34.50
47.09
57.77
66.49
73.13
77.73
80.26
80.78
79.33
76.06
71.32
65.70
59.97
54.88
51.05
48.71
47.74
47.69
47.93
47.82
46.83
44.70
41.43
37.27
32.56
27.61
22.63
17.61
12.34
6.47
-0.30
-8.13
-16.83
-25.84
-34.37
-41.70
-47.51
-52.01
-56.00
-60.57
-66.66
-74.64
-83.97
-93.26
-100.61
-104.00
-101.92
-93.69
-79.62
-60.91
-39.27
-16.69
4.97
24.30
40.44
53.19
62.79
69.67
74.21
76.59
76.82
74.91
71.02
65.53
59.04
52.25
45.89
40.59
36.79
34.56
33.66
33.48
33.35
32.73
31.35
29.23
26.47
23.14
19.10
14.11
7.97
0.72
-7.30
-15.58
-23.51
-30.63
-36.75
-42.07
-47.12
-52.62
-59.31
-67.56
-77.22
-87.32
-96.18
-101.70
-101.89
-95.50
-82.56
-64.38
-43.15
-21.36
-0.99
16.78
31.62
43.65
53.08
60.00
64.41
66.37
66.15
64.23
61.11
57.23
52.94
48.53
44.28
40.46
37.25
34.67
32.62
30.93
29.42
28.01
26.60
24.97
22.78
19.54
14.90
8.82
1.61
-6.17
-13.97
-21.42
-28.48
-35.40
-42.58
-50.55
-59.78
-70.53
-82.65
-95.42
-107.45
-116.90
-121.82
-120.66
-112.68
-98.14
-78.32
-55.23
-31.22
-8.56
11.09
26.90
39.02
48.27
55.70
62.08
67.59
71.91
74.44
74.80
72.93
69.29
64.56
59.45
54.53
50.12
46.40
43.40
41.10
39.38
37.96
36.42
34.21
30.89
26.19
20.21
13.29
5.88
-1.69
-9.30
-17.05
-25.09
-33.63
-42.81
-52.76
-63.54
-74.99
-86.45
-96.65
-103.86
-106.24
-102.51
-92.42
-76.92
-57.85
-37.26
-16.87
2.29
19.71
35.13
48.28
58.85
66.70
71.98
75.19
76.91
77.51
76.97
75.09
71.78
67.31
62.37
57.77
54.14
51.75
50.46
49.95
49.81
49.63
48.96
47.35
44.44
40.13
34.65
28.56
22.49
16.90
12.03
7.70
3.63
-0.56
-5.06
-9.93
-15.04
-20.22
-25.41
-30.75
-36.59
-43.22
-50.74
-58.80
-66.66
-73.59
-79.29
-84.28
-89.69
-96.77
-106.15
-117.22
-128.11
-136.11
-138.56
-133.61
-120.89
-101.47
-77.62
-52.03
-27.21
-5.00
13.74
29.03
41.58
52.40
62.50
72.43
82.14
90.98
97.82
101.52
101.21
96.69
88.49
77.79
66.24
55.62
47.53
43.00
42.20
44.34
47.86
50.88
51.94
50.38
46.49
41.18
35.45
29.96
24.82
19.81
14.49
8.53
1.74
-5.89
-14.12
-22.45
-30.13
-36.40
-40.79
-43.60
-45.91
-49.39
-55.64
-65.35
-77.80
-90.91
-101.69
-107.17
-105.37
-95.78
-79.40
-58.27
-34.79
-11.23
10.62
29.43
44.27
54.68
60.75
63.18
63.14
61.90
60.46
59.18
57.94
56.33
54.03
50.98
47.42
43.66
40.03
36.74
33.99
31.90
30.44
29.39
28.32
26.61
23.76
19.59
14.27
8.29
2.15
-3.88
-9.87
-16.12
-22.91
-30.32
-38.18
-46.15
-53.98
-61.66
-69.44
-77.54
-85.80
-93.39
-98.83
-100.29
-96.26
-86.12
-70.41
-50.72
-29.28
-8.27
10.66
26.68
39.65
49.88
57.79
63.83
68.25
71.23
72.86
73.24
72.44
70.54
67.64
63.79
59.07
53.73
48.19
43.10
39.01
36.20
34.47
33.20
31.59
29.05
25.47
21.16
16.65
12.37
8.38
4.47
0.30
-4.38
-9.72
-15.72
-22.29
-29.24
-36.25
-42.83
-48.60
-53.51
-58.02
-62.99
-69.13
-76.47
-83.98
-89.78
-91.72
-88.20
-78.78
-64.18
-46.05
-26.40
-7.12
10.34
25.07
36.73
45.44
51.63
55.87
58.65
60.33
61.06
60.85
59.72
57.65
54.70
51.00
46.80
42.55
38.83
36.09
34.59
34.12
34.19
34.19
33.71
32.63
31.08
29.22
27.03
24.32
20.86
16.64
11.92
7.18
2.84
-0.99
-4.51
-8.14
-12.27
-16.91
-21.79
-26.48
-30.70
-34.48
-38.05
-41.66
-45.36
-49.02
-52.54
-56.13
-60.36
-65.94
-73.14
-81.28
-88.52
-92.40
-90.70
-82.44
-68.29
-50.29
-31.06
-12.87
2.91
15.85
26.14
34.14
40.13
44.26
46.64
47.45
46.94
45.37
42.98
40.06
36.84
33.52
30.20
26.97
23.93
21.27
19.32
18.37
18.50
19.46
20.70
21.46
21.19
19.64
16.99
13.69
10.27
7.02
3.98
0.95
-2.38
-6.23
-10.66
-15.54
-20.66
-25.81
-30.79
-35.43
-39.56
-43.12
-46.21
-49.27
-52.87
-57.51
-63.27
-69.57
-75.15
-78.37
-77.70
-72.25
-62.13
-48.38
-32.63
-16.61
-1.63
11.51
22.55
31.45
38.30
43.14
46.05
47.23
47.05
46.02
44.60
43.11
41.61
39.95
37.88
35.27
32.20
28.97
26.03
23.78
22.38
21.70
21.38
21.07
20.53
19.66
18.43
16.74
14.38
11.15
7.10
2.58
-1.85
-5.69
-8.75
-11.27
-13.76
-16.74
-20.42
-24.73
-29.33
-33.86
-38.16
-42.22
-46.13
-50.00
-53.95
-58.13
-62.68
-67.66
-72.73
-76.93
-78.84
-76.98
-70.40
-59.24
-44.72
-28.71
-13.04
1.07
13.17
23.28
31.53
37.92
42.36
44.96
46.08
46.22
45.78
44.84
43.20
40.65
37.22
33.27
29.39
26.07
23.63
22.13
21.48
21.49
21.94
22.51
22.85
22.65
21.78
20.40
18.78
17.10
15.29
13.07
10.04
6.10
1.51
-3.15
-7.28
-10.64
-13.40
-16.03
-19.00
-22.48
-26.29
-30.09
-33.65
-37.01
-40.36
-43.94
-47.86
-52.28
-57.32
-63.08
-69.41
-75.56
-80.11
-81.26
-77.47
-68.19
-54.19
-37.40
-20.14
-4.42
8.70
19.04
27.06
33.31
38.17
41.71
43.86
44.64
44.25
43.07
41.56
39.99
38.33
36.31
33.60
30.09
26.06
22.11
19.02
17.38
17.31
18.48
20.15
21.46
21.78
20.86
18.90
16.37
13.80
11.44
9.19
6.61
3.25
-1.13
-6.33
-11.87
-17.17
-21.88
-26.00
-29.78
-33.49
-37.36
-41.50
-46.08
-51.33
-57.40
-64.07
-70.56
-75.48
-77.26
-74.64
-67.14
-55.31
-40.54
-24.57
-9.00
5.09
17.25
27.45
35.73
42.06
46.34
48.53
48.87
47.90
46.25
44.41
42.43
40.05
36.98
33.13
28.84
24.81
21.77
20.15
19.96
20.71
21.64
21.99
21.21
19.15
16.12
12.75
9.75
7.60
6.28
5.29
3.79
1.02
-3.39
-9.22
-15.82
-22.40
-28.31
-33.36
-37.74
-42.00
-46.78
-52.57
-59.58
-67.50
-75.48
-82.14
-85.85
-85.13
-79.15
-68.03
-52.88
-35.38
-17.41
-0.58
14.00
25.69
34.34
40.20
43.87
46.16
47.82
49.33
50.82
51.98
52.41
51.76
49.86
46.78
42.75
38.14
33.47
29.36
26.46
25.15
25.34
26.46
27.59
27.89
26.91
24.75
21.84
18.68
15.50
12.24
8.64
4.49
-0.14
-5.03
-9.94
-14.70
-19.29
-23.79
-28.26
-32.79
-37.51
-42.70
-48.72
-55.87
-64.10
-72.81
-80.78
-86.42
-88.07
-84.55
-75.53
-61.70
-44.58
-26.17
-8.30
7.68
21.13
31.96
40.39
46.73
51.24
54.17
55.85
56.60
56.69
56.20
55.03
53.01
50.09
46.42
42.32
38.25
34.64
31.76
29.76
28.63
28.23
28.33
28.63
28.73
28.31
27.10
25.01
22.10
18.56
14.63
10.53
6.38
2.18
-2.17
-6.74
-11.49
-16.24
-20.79
-25.14
-29.57
-34.53
-40.42
-47.41
-55.31
-63.73
-72.15
-79.98
-86.44
-90.43
-90.64
-85.92
-75.87
-61.14
-43.29
-24.44
-6.49
9.30
22.39
32.80
40.76
46.52
50.35
52.60
53.62
53.70
52.90
51.11
48.20
44.25
39.67
35.08
31.11
28.14
26.29
25.42
25.32
25.79
26.55
27.26
27.45
26.60
24.38
20.86
16.42
11.61
6.86
2.30
-2.30
-7.24
-12.67
-18.38
-23.96
-28.97
-33.22
-37.03
-41.11
-46.35
-53.41
-62.39
-72.61
-82.66
-90.70
-94.84
-93.65
-86.54
-73.94
-57.19
-38.19
-18.84
-0.72
15.20
28.52
39.22
47.48
53.59
57.88
60.68
62.32
63.01
62.82
61.68
59.49
56.27
52.23
47.81
43.54
39.90
37.22
35.57
34.85
34.79
35.03
35.09
34.52
32.93
30.24
26.67
22.60
18.35
13.95
9.16
3.67
-2.66
-9.68
-16.93
-23.90
-30.23
-35.88
-41.10
-46.35
-52.09
-58.83
-66.93
-76.45
-86.86
-96.94
-104.89
-108.76
-107.07
-99.36
-86.18
-69.01
-49.60
-29.60
-10.28
7.46
22.98
35.84
45.81
52.98
57.80
60.95
63.05
64.55
65.50
65.77
65.15
63.53
60.98
57.83
54.48
51.34
48.73
46.85
45.76
45.40
45.61
46.12
46.54
46.43
45.36
43.16
39.89
35.84
31.37
26.75
22.08
17.30
12.28
6.95
1.26
-4.83
-11.33
-18.13
-25.00
-31.55
-37.45
-42.60
-47.26
-51.99
-57.40
-63.96
-71.83
-80.85
-90.51
-99.90
-107.75
-112.47
-112.44
-106.45
-94.19
-76.48
-55.15
-32.55
-10.92
8.11
23.72
35.81
44.79
51.25
55.90
59.33
62.03
64.22
65.85
66.59
66.10
64.16
60.89
56.80
52.60
49.01
46.49
45.10
44.60
44.55
44.60
44.56
44.42
44.20
43.78
42.80
40.79
37.37
32.57
26.84
20.88
15.32
10.34
5.64
0.64
-5.15
-11.81
-19.03
-26.24
-32.97
-39.05
-44.61
-49.97
-55.52
-61.75
-69.11
-77.93
-87.98
-98.28
-106.97
-111.75
-110.60
-102.51
-87.90
-68.48
-46.64
-24.73
-4.52
13.06
27.67
39.38
48.38
54.91
59.26
61.75
62.81
62.80
62.07
60.80
59.03
56.78
53.99
50.70
47.05
43.36
40.15
38.01
37.38
38.28
40.16
42.04
42.90
42.03
39.38
35.44
30.93
26.39
22.02
17.69
13.12
8.15
2.72
-3.22
-9.73
-16.82
-24.30
-31.77
-38.63
-44.53
-49.55
-54.45
-60.42
-68.49
-78.97
-90.86
-102.01
-109.61
-111.22
-105.56
-92.91
-74.86
-53.70
-31.71
-10.71
8.04
23.78
36.14
45.12
51.10
54.69
56.74
57.97
58.92
59.76
60.36
60.40
59.59
57.74
54.92
51.60
48.41
46.07
45.01
45.19
46.15
47.15
47.57
47.03
45.54
43.28
40.55
37.57
34.52
31.54
28.73
26.05
23.22
19.67
14.77
8.03
-0.43
-9.90
-19.23
-27.32
-33.56
-38.09
-41.64
-45.19
-49.46
-54.87
-61.55
-69.51
-78.62
-88.36
-97.60
-104.52
-107.07
-103.62
-93.65
-77.97
-58.44
-37.46
-17.22
0.63
15.15
26.08
33.68
38.70
42.05
44.63
47.01
49.28
51.13
52.11
51.76
49.94
46.77
42.67
38.19
34.00
30.71
28.79
28.39
29.25
30.79
32.28
33.11
32.90
31.64
29.63
27.21
24.71
22.24
19.61
16.49
12.47
7.36
1.22
-5.59
-12.50
-18.89
-24.13
-27.86
-30.11
-31.36
-32.60
-35.00
-39.52
-46.50
-55.54
-65.54
-75.10
-82.92
-87.98
-89.66
-87.64
-81.81
-72.35
-59.80
-45.04
-29.10
-12.92
2.76
17.50
30.99
42.86
52.69
60.00
64.51
66.22
65.44
62.67
58.49
53.50
48.28
43.39
39.35
36.52
34.95
34.40
34.39
34.34
33.80
32.48
30.31
27.41
23.92
19.97
15.62
10.95
5.91
0.45
-5.46
-11.83
-18.58
-25.49
-32.26
-38.71
-44.92
-51.31
-58.57
-67.26
-77.46
-88.37
-98.35
-105.29
-107.27
-103.18
-93.06
-77.98
-59.62
-39.78
-19.98
-1.38
15.21
29.23
40.39
48.72
54.54
58.49
61.20
63.22
64.84
65.98
66.44
65.91
64.16
61.14
57.08
52.47
48.05
44.58
42.49
41.72
41.62
41.31
39.97
37.34
33.75
29.84
26.10
22.52
18.52
13.38
6.70
-1.30
-9.84
-18.02
-25.33
-31.82
-38.04
-44.59
-51.93
-60.25
-69.59
-79.94
-91.08
-102.34
-112.30
-118.95
-120.14
-114.39
-101.48
-82.64
-60.20
-36.83
-14.77
4.63
20.91
34.22
44.97
53.54
60.24
65.37
69.18
71.92
73.71
74.45
73.88
71.77
68.07
63.14
57.69
52.55
48.43
45.66
44.11
43.34
42.80
42.04
40.80
39.02
36.72
33.89
30.56
26.67
22.21
17.17
11.49
5.13
-1.90
-9.52
-17.52
-25.60
-33.47
-40.87
-47.67
-54.01
-60.25
-67.01
-75.05
-84.91
-96.42
-108.42
-118.76
-124.80
-124.21
-115.82
-100.04
-78.69
-54.49
-30.15
-7.81
11.30
26.79
38.82
47.87
54.51
59.35
62.90
65.43
66.88
66.87
65.01
61.11
55.50
49.10
43.13
38.68
36.36
36.11
37.26
38.93
40.28
40.77
40.15
38.42
35.66
32.05
27.74
22.85
17.38
11.18
4.11
-3.86
-12.51
-21.39
-29.99
-37.99
-45.36
-52.48
-60.05
-68.78
-79.14
-90.91
-103.00
-113.51
-119.95
-120.00
-112.21
-96.58
-74.65
-49.09
-22.94
1.29
21.97
38.47
50.94
59.91
66.06
70.12
72.72
74.37
75.24
75.24
74.05
71.38
67.17
61.84
56.19
51.13
47.34
45.11
44.19
44.05
44.02
43.51
42.12
39.60
35.94
31.40
26.34
21.11
15.91
10.57
4.70
-2.09
-9.95
-18.69
-27.82
-36.80
-45.31
-53.35
-61.28
-69.57
-78.69
-88.83
-99.70
-110.35
-119.14
-123.99
-122.95
-114.89
-99.93
-79.48
-55.77
-31.24
-7.89
12.90
30.33
44.16
54.51
61.98
67.39
71.60
75.15
78.07
79.97
80.33
78.85
75.63
71.20
66.26
61.48
57.39
54.27
52.23
51.16
50.74
50.53
50.09
49.02
47.13
44.33
40.65
36.20
31.16
25.76
20.16
14.45
8.55
2.33
-4.27
-11.18
-18.15
-24.82
-30.98
-36.65
-42.09
-47.80
-54.28
-61.89
-70.77
-80.84
-91.69
-102.40
-111.51
-117.15
-117.39
-110.85
-97.28
-77.78
-54.62
-30.61
-8.25
10.82
26.10
37.92
46.99
53.91
59.07
62.64
64.82
65.94
66.32
66.21
65.53
63.98
61.24
57.24
52.44
47.64
43.78
41.46
40.72
41.07
41.78
42.15
41.79
40.67
38.86
36.47
33.45
29.69
25.16
20.06
14.71
9.39
4.15
-1.25
-7.12
-13.63
-20.60
-27.64
-34.33
-40.50
-46.30
-52.19
-58.75
-66.41
-75.35
-85.30
-95.40
-104.08
-109.25
-108.81
-101.42
-87.09
-67.36
-44.80
-22.22
-1.71
15.62
29.52
40.12
47.62
52.23
54.35
54.75
54.34
53.81
53.31
52.44
50.54
47.28
42.96
38.46
34.79
32.62
32.04
32.48
33.22
33.53
33.00
31.50
29.11
26.05
22.60
19.07
15.58
12.07
8.16
3.30
-2.93
-10.56
-19.13
-27.83
-35.84
-42.76
-48.81
-54.72
-61.42
-69.60
-79.31
-89.74
-99.39
-106.24
-108.32
-104.25
-93.67
-77.36
-57.04
-34.99
-13.33
6.27
22.93
36.38
46.77
54.45
59.84
63.39
65.49
66.51
66.63
65.90
64.33
61.97
59.03
55.85
52.95
50.70
49.32
48.67
48.42
48.14
47.53
46.55
45.25
43.70
41.77
39.22
35.78
31.44
26.46
21.28
16.32
11.63
6.90
1.59
-4.64
-11.80
-19.45
-27.03
-34.09
-40.54
-46.55
-52.47
-58.61
-65.22
-72.54
-80.88
-90.29
-100.32
-109.70
-116.47
-118.40
-113.77
-102.06
-84.23
-62.45
-39.34
-17.20
2.50
19.17
32.83
43.73
52.11
58.21
62.41
65.23
67.24
68.82
69.95
70.25
69.24
66.67
62.77
58.16
53.64
49.84
47.02
45.18
44.14
43.73
43.66
43.61
43.14
41.81
39.37
35.85
31.59
27.01
22.49
18.16
13.87
9.34
4.31
-1.30
-7.33
-13.54
-19.79
-26.06
-32.52
-39.27
-46.18
-52.88
-58.86
-63.85
-68.07
-72.37
-77.86
-85.36
-94.76
-104.88
-113.56
-118.35
-117.24
-109.37
-95.20
-76.28
-54.71
-32.59
-11.62
7.07
22.86
35.47
44.88
51.35
55.34
57.52
58.54
58.90
58.68
57.64
55.41
51.78
46.96
41.52
36.29
32.09
29.45
28.52
29.04
30.43
32.00
33.08
33.16
31.96
29.50
25.97
21.63
16.68
11.17
5.13
-1.36
-8.14
-14.91
-21.33
-27.29
-32.78
-38.02
-43.23
-48.72
-54.74
-61.62
-69.64
-78.82
-88.62
-97.65
-103.92
-105.33
-100.36
-88.78
-71.75
-51.46
-30.34
-10.39
7.28
22.28
34.63
44.42
51.65
56.45
59.19
60.49
61.02
61.21
61.08
60.27
58.38
55.24
51.01
46.20
41.50
37.60
35.04
33.96
34.16
34.97
35.50
34.88
32.57
28.55
23.27
17.40
11.48
5.73
0.17
-5.35
-10.86
-16.38
-21.87
-27.46
-33.29
-39.49
-45.99
-52.60
-59.19
-65.85
-73.00
-81.06
-90.15
-99.59
-107.86
-112.88
-112.68
-106.12
-93.30
-75.57
-55.05
-33.93
-13.88
4.11
19.62
32.55
42.93
50.86
56.67
60.83
63.93
66.33
68.03
68.72
68.00
65.67
62.00
57.73
53.70
50.62
48.77
47.97
47.81
47.81
47.55
46.78
45.32
43.10
40.12
36.48
32.31
27.86
23.27
18.61
13.86
8.97
3.87
-1.48
-7.12
-13.23
-19.92
-27.21
-34.82
-42.23
-48.92
-54.64
-59.58
-64.33
-69.71
-76.33
-84.43
-93.72
-103.33
-111.84
-117.51
-118.49
-113.31
-101.39
-83.46
-61.46
-37.98
-15.58
4.01
20.09
32.81
42.77
50.50
56.36
60.49
63.03
64.15
64.12
63.16
61.46
59.16
56.39
53.37
50.43
47.97
46.28
45.51
45.56
46.14
46.82
47.17
46.83
45.58
43.31
40.07
36.06
31.55
26.85
22.22
17.77
13.38
8.74
3.43
-2.83
-10.08
-17.98
-25.97
-33.41
-39.92
-45.48
-50.46
-55.45
-61.01
-67.50
-75.09
-83.72
-93.16
-102.82
-111.50
-117.44
-118.59
-113.29
-101.00
-82.65
-60.46
-37.21
-15.34
3.57
19.06
31.35
40.97
48.46
54.17
58.46
61.58
63.71
64.89
64.91
63.45
60.37
55.90
50.75
45.93
42.42
40.80
41.05
42.53
44.31
45.51
45.54
44.19
41.52
37.86
33.56
29.03
24.56
20.26
15.93
11.13
5.39
-1.51
-9.39
-17.70
-25.81
-33.25
-39.86
-45.77
-51.35
-56.99
-63.19
-70.45
-79.06
-88.74
-98.48
-106.46
-110.58
-109.02
-101.01
-87.03
-68.60
-47.82
-26.63
-6.52
11.61
27.28
40.32
50.73
58.68
64.52
68.68
71.52
73.19
73.66
72.77
70.46
66.92
62.64
58.33
54.71
52.28
51.21
51.36
52.33
53.63
54.77
55.28
54.82
53.21
50.37
46.47
41.73
36.41
30.72
24.86
18.95
13.12
7.45
1.91
-3.54
-9.04
-14.67
-20.38
-26.13
-31.89
-37.74
-43.85
-50.33
-57.11
-64.07
-71.17
-78.59
-86.77
-96.01
-106.10
-115.97
-123.85
-127.67
-125.82
-117.58
-103.39
-84.60
-63.07
-40.67
-18.98
0.85
18.14
32.57
44.10
52.99
59.70
64.77
68.71
71.79
73.99
75.07
74.86
73.39
71.06
68.44
66.08
64.33
63.18
62.47
62.04
61.88
62.07
62.59
63.25
63.62
63.18
61.45
58.24
53.67
48.16
42.32
36.81
32.10
28.35
25.39
22.77
19.95
16.53
12.31
7.33
1.81
-3.91
-9.51
-14.68
-19.26
-23.26
-26.88
-30.45
-34.37
-38.94
-44.25
-50.16
-56.22
-61.96
-66.98
-71.28
-75.26
-79.63
-85.19
-92.36
-100.92
-109.78
-117.24
-121.31
-120.26
-113.06
-99.64
-81.03
-59.09
-36.13
-14.35
4.65
20.15
32.19
41.32
48.19
53.33
57.06
59.61
61.16
61.93
62.09
61.63
60.49
58.59
56.06
53.27
50.76
49.07
48.48
48.89
49.86
50.72
50.91
50.11
48.41
46.11
43.52
40.75
37.62
33.81
29.16
23.73
17.89
12.08
6.59
1.41
-3.72
-9.11
-14.92
-21.00
-27.04
-32.67
-37.71
-42.18
-46.22
-50.04
-53.84
-57.94
-62.76
-68.73
-76.10
-84.62
-93.30
-100.48
-104.07
-102.27
-94.13
-79.96
-61.31
-40.48
-19.82
-1.19
14.47
27.01
36.84
44.56
50.64
55.30
58.54
60.30
60.56
59.41
57.03
53.71
49.85
45.89
42.34
39.65
38.12
37.71
38.18
39.06
39.88
40.28
40.09
39.29
37.91
35.90
33.12
29.50
25.08
20.10
14.87
9.65
4.52
-0.58
-5.80
-11.27
-17.03
-23.09
-29.48
-36.16
-43.01
-49.79
-56.27
-62.38
-68.41
-74.97
-82.64
-91.54
-100.88
-108.99
-113.74
-113.22
-106.45
-93.66
-76.21
-56.06
-35.26
-15.47
2.16
17.04
28.96
38.08
44.84
49.92
54.02
57.65
60.99
63.84
65.78
66.44
65.69
63.73
60.96
57.90
54.96
52.57
51.02
50.50
50.97
52.10
53.27
53.77
53.10
51.16
48.19
44.61
40.69
36.44
31.77
26.59
21.09
15.61
10.49
5.82
1.38
-3.22
-8.25
-13.70
-19.34
-24.93
-30.40
-35.89
-41.54
-47.38
-53.15
-58.60
-63.64
-68.57
-74.04
-80.66
-88.76
-97.89
-106.94
-114.22
-117.87
-116.31
-108.71
-95.27
-77.17
-56.33
-34.92
-14.82
2.74
17.29
28.92
38.03
45.10
50.63
55.06
58.76
61.99
64.68
66.51
66.93
65.48
62.10
57.27
51.98
47.41
44.52
43.71
44.69
46.66
48.61
49.75
49.63
48.18
45.56
42.05
37.92
33.43
28.79
24.15
19.48
14.61
9.32
3.50
-2.73
-9.09
-15.21
-20.88
-26.11
-31.04
-35.89
-40.80
-45.89
-51.40
-57.67
-65.07
-73.74
-83.27
-92.60
-100.18
-104.31
-103.63
-97.51
-86.20
-70.69
-52.47
-33.11
-14.08
3.53
18.97
31.78
41.76
48.96
53.63
56.21
57.20
57.12
56.36
55.17
53.62
51.71
49.42
46.78
43.97
41.38
39.47
38.60
38.87
39.92
41.08
41.60
40.91
38.86
35.55
31.26
26.19
20.49
14.38
8.13
2.05
-3.69
-9.21
-14.84
-20.98
-27.77
-34.98
-42.15
-48.82
-54.87
-60.73
-67.08
-74.56
-83.32
-92.69
-101.23
-107.02
-108.26
-103.75
-93.42
-78.24
-59.90
-40.31
-21.05
-3.17
12.79
26.63
38.23
47.52
54.55
59.60
63.16
65.80
67.85
69.24
69.73
68.95
66.82
63.68
60.15
56.88
54.33
52.54
51.30
50.41
49.75
49.36
49.25
49.18
48.67
47.17
44.27
39.90
34.34
28.11
21.67
15.35
9.26
3.29
-2.76
-8.98
-15.36
-21.77
-27.98
-33.82
-39.25
-44.45
-49.74
-55.55
-62.30
-70.26
-79.44
-89.45
-99.43
-108.10
-113.91
-115.41
-111.58
-102.16
-87.72
-69.51
-49.23
-28.65
-9.35
7.53
21.39
32.28
40.66
47.27
52.81
57.66
61.81
64.99
66.90
67.45
66.79
65.30
63.38
61.36
59.37
57.55
56.10
55.27
55.25
56.00
57.26
58.45
58.91
58.20
56.14
52.90
48.88
44.49
39.99
35.49
30.88
26.02
20.79
15.29
9.79
4.66
0.14
-3.79
-7.42
-11.21
-15.57
-20.60
-26.17
-31.97
-37.66
-43.10
-48.26
-53.22
-58.14
-63.22
-68.74
-75.05
-82.43
-90.85
-99.83
-108.14
-114.12
-115.98
-112.38
-102.88
-88.17
-69.87
-49.99
-30.42
-12.47
3.21
16.45
27.39
36.23
43.13
48.31
52.01
54.47
55.84
56.19
55.43
53.59
50.87
47.65
44.51
41.96
40.30
39.63
39.81
40.58
41.59
42.45
42.75
42.11
40.29
37.23
33.22
28.70
24.14
19.77
15.46
10.88
5.69
-0.21
-6.66
-13.28
-19.74
-25.84
-31.60
-37.14
-42.66
-48.31
-54.35
-61.11
-68.95
-78.02
-87.91
-97.45
-104.81
-107.89
-105.03
-95.58
-80.23
-60.89
-40.07
-20.10
-2.50
12.27
24.54
34.88
43.68
50.91
56.32
59.75
61.39
61.71
61.27
60.39
59.19
57.56
55.53
53.32
51.27
49.72
48.76
48.25
47.96
47.72
47.47
47.20
46.78
45.80
43.82
40.42
35.55
29.48
22.72
15.88
9.34
3.26
-2.47
-8.09
-13.87
-19.92
-26.26
-32.77
-39.35
-45.83
-52.13
-58.31
-64.61
-71.44
-79.19
-87.94
-97.19
-105.68
-111.64
-113.19
-109.04
-98.85
-83.51
-64.67
-44.30
-24.18
-5.58
10.67
24.22
34.98
43.23
49.46
54.31
58.34
61.80
64.66
66.60
67.34
66.73
64.97
62.49
59.85
57.54
55.88
54.94
54.60
54.61
54.65
54.50
54.03
53.23
52.11
50.54
48.33
45.23
41.18
36.33
30.96
25.38
19.81
14.31
8.85
3.45
-1.85
-6.99
-11.97
-16.89
-21.88
-27.04
-32.37
-37.81
-43.28
-48.74
-54.19
-59.64
-65.15
-70.95
-77.44
-85.02
-93.74
-102.85
-110.64
-114.84
-113.36
-105.16
-90.72
-71.98
-51.54
-31.78
-14.15
0.95
13.80
24.81
34.10
41.49
46.84
50.37
52.61
54.21
55.49
56.26
55.99
54.24
51.07
47.14
43.51
41.11
40.35
41.07
42.66
44.38
45.62
45.96
45.23
43.39
40.53
36.80
32.43
27.63
22.57
17.41
12.28
7.29
2.42
-2.41
-7.43
-12.87
-18.81
-25.11
-31.45
-37.51
-43.17
-48.61
-54.32
-60.77
-68.26
-76.67
-85.38
-93.27
-98.95
-100.94
-98.07
-89.80
-76.42
-59.14
-39.73
-20.20
-2.18
13.24
25.66
35.18
42.17
47.16
50.67
53.19
55.12
56.64
57.71
58.05
57.38
55.55
52.77
49.51
46.42
44.17
43.02
42.93
43.49
44.14
44.37
43.93
42.79
41.01
38.61
35.54
31.70
27.12
22.07
16.90
11.99
7.41
2.91
-1.94
-7.57
-14.04
-21.09
-28.28
-35.20
-41.77
-48.15
-54.62
-61.34
-68.33
-75.55
-82.97
-90.66
-98.32
-105.12
-109.48
-109.49
-103.61
-91.47
-74.17
-54.00
-33.59
-14.97
0.87
13.99
24.94
34.22
42.06
48.50
53.68
57.79
61.05
63.38
64.44
63.86
61.57
58.07
54.24
51.06
49.02
48.17
48.10
48.39
48.81
49.29
49.80
50.14
49.91
48.73
46.37
42.80
38.20
32.82
27.00
21.11
15.48
10.35
5.73
1.35
-3.26
-8.50
-14.50
-21.07
-27.76
-34.08
-39.70
-44.64
-49.18
-53.83
-59.14
-65.56
-73.39
-82.51
-92.40
-101.96
-109.63
-113.60
-112.28
-104.82
-91.51
-73.79
-53.84
-33.87
-15.48
0.58
14.31
26.00
35.78
43.56
49.20
52.73
54.53
55.29
55.58
55.69
55.43
54.39
52.23
48.99
45.17
41.59
39.00
37.85
38.14
39.42
41.02
42.26
42.56
41.60
39.30
35.82
31.43
26.49
21.32
16.16
11.07
5.99
0.77
-4.77
-10.72
-17.01
-23.37
-29.45
-34.98
-39.99
-44.92
-50.47
-57.37
-65.85
-75.40
-84.73
-92.12
-95.86
-94.80
-88.55
-77.51
-62.66
-45.24
-26.65
-8.22
8.82
23.42
34.90
43.08
48.29
51.33
53.11
54.33
55.23
55.60
55.02
53.18
50.15
46.43
42.75
39.69
37.54
36.22
35.50
35.11
34.92
34.81
34.56
33.85
32.30
29.69
26.15
21.97
17.57
13.13
8.47
3.17
-3.09
-10.34
-18.18
-25.92
-32.99
-39.20
-44.86
-50.65
-57.28
-65.15
-74.18
-83.70
-92.67
-99.84
-103.92
-103.80
-98.75
-88.60
-73.88
-55.90
-36.40
-17.26
0.02
14.62
26.44
35.91
43.61
49.95
55.03
58.77
61.07
62.05
61.96
61.06
59.55
57.61
55.43
53.29
51.54
50.41
49.88
49.73
49.58
49.18
48.44
47.45
46.20
44.51
42.02
38.36
33.49
27.70
21.55
15.55
9.95
4.60
-0.82
-6.61
-12.81
-19.24
-25.62
-31.77
-37.71
-43.58
-49.54
-55.73
-62.28
-69.41
-77.32
-86.02
-94.94
-102.80
-107.77
-107.97
-102.21
-90.44
-73.86
-54.49
-34.60
-15.99
0.30
13.92
25.02
33.94
41.04
46.64
51.07
54.59
57.45
59.65
61.09
61.59
61.07
59.62
57.53
55.18
52.93
50.97
49.42
48.34
47.73
47.55
47.64
47.73
47.38
46.20
43.87
40.28
35.57
30.11
24.35
18.74
13.56
8.88
4.54
0.26
-4.26
-9.16
-14.53
-20.23
-26.09
-31.85
-37.38
-42.56
-47.49
-52.47
-57.89
-64.25
-71.78
-80.39
-89.38
-97.47
-103.04
-104.49
-100.73
-91.53
-77.62
-60.50
-42.00
-23.80
-7.07
7.54
19.82
29.72
37.29
42.69
46.24
48.36
49.49
49.96
49.86
49.07
47.43
44.93
41.80
38.55
35.80
34.06
33.59
34.21
35.38
36.41
36.69
35.92
34.10
31.55
28.58
25.36
21.83
17.80
13.17
7.85
1.88
-4.65
-11.67
-19.07
-26.62
-33.98
-40.71
-46.62
-51.92
-57.30
-63.60
-71.37
-80.41
-89.40
-96.20
-98.40
-94.30
-83.49
-67.11
-47.50
-27.33
-8.79
6.90
19.57
29.69
37.88
44.64
50.21
54.67
58.01
60.19
61.13
60.75
59.06
56.22
52.64
48.84
45.36
42.63
40.93
40.32
40.67
41.70
42.97
43.92
44.04
42.97
40.64
37.20
32.99
28.30
23.41
18.52
13.75
9.17
4.67
0.04
-5.05
-10.86
-17.39
-24.34
-31.18
-37.41
-42.82
-47.64
-52.43
-57.81
-64.23
-71.84
-80.37
-89.37
-98.06
-105.32
-109.83
-110.16
-105.28
-94.89
-79.63
-60.96
-40.72
-20.70
-2.36
13.31
25.77
34.99
41.37
45.75
49.07
52.11
55.17
58.08
60.33
61.51
61.44
60.30
58.42
56.16
53.79
51.65
50.13
49.66
50.42
52.16
54.17
55.53
55.42
53.54
50.06
45.56
40.69
35.88
31.27
26.69
21.94
16.91
11.67
6.46
1.51
-3.05
-7.31
-11.52
-15.99
-20.89
-26.18
-31.67
-37.12
-42.38
-47.44
-52.46
-57.68
-63.36
-69.79
-77.17
-85.59
-94.73
-103.78
-111.37
-115.78
-115.34
-109.04
-96.82
-79.76
-59.79
-39.19
-20.06
-3.74
9.27
19.35
27.28
33.90
39.73
44.91
49.36
52.97
55.71
57.67
58.87
59.15
58.28
56.13
52.98
49.45
46.41
44.56
44.09
44.60
45.35
45.68
45.25
44.09
42.34
40.02
37.02
33.20
28.61
23.56
18.52
13.76
9.15
4.24
-1.49
-8.16
-15.44
-22.61
-29.05
-34.47
-39.08
-43.43
-48.14
-53.74
-60.55
-68.63
-77.73
-87.15
-95.62
-101.45
-102.89
-98.69
-88.57
-73.39
-54.92
-35.33
-16.53
0.21
14.33
25.83
35.00
42.13
47.47
51.21
53.60
54.92
55.44
55.36
54.75
53.60
51.85
49.58
46.99
44.48
42.49
41.34
41.17
41.82
42.87
43.74
43.83
42.70
40.22
36.50
31.86
26.70
21.35
15.96
10.51
4.81
-1.34
-8.00
-15.00
-22.02
-28.74
-34.98
-40.80
-46.41
-52.17
-58.46
-65.61
-73.80
-82.89
-92.27
-100.76
-106.69
-108.29
-104.23
-94.06
-78.48
-59.19
-38.36
-18.16
-0.19
14.73
26.57
35.81
43.14
49.18
54.24
58.44
61.67
63.77
64.64
64.28
62.86
60.60
57.85
54.97
52.35
50.27
48.93
48.39
48.50
49.05
49.68
50.05
49.77
48.54
46.14
42.56
38.00
32.75
27.14
21.37
15.50
9.45
3.18
-3.24
-9.65
-15.93
-22.10
-28.24
-34.43
-40.60
-46.53
-52.03
-57.20
-62.52
-68.75
-76.49
-85.77
-95.62
-104.22
-109.35
-109.06
-102.40
-89.66
-72.29
-52.44
-32.25
-13.43
3.07
16.91
28.12
36.94
43.68
48.83
52.98
56.68
60.23
63.45
65.80
66.63
65.59
62.83
58.98
54.95
51.54
49.23
48.16
48.14
48.85
49.82
50.59
50.72
49.85
47.85
44.86
41.11
36.89
32.35
27.51
22.34
16.85
11.16
5.41
-0.29
-5.99
-11.77
-17.63
-23.53
-29.30
-34.88
-40.35
-45.94
-51.81
-57.99
-64.41
-70.93
-77.61
-84.60
-91.84
-98.75
-104.06
-106.02
-103.02
-94.26
-80.08
-61.99
-42.12
-22.57
-4.85
10.29
22.72
32.66
40.44
46.33
50.58
53.40
55.04
55.71
55.52
54.46
52.49
49.63
46.13
42.49
39.37
37.44
37.08
38.29
40.63
43.23
45.17
45.62
44.26
41.28
37.23
32.77
28.33
24.12
20.07
16.00
11.79
7.32
2.42
-3.13
-9.45
-16.48
-23.75
-30.58
-36.33
-40.76
-44.18
-47.46
-51.74
-57.88
-66.19
-76.13
-86.40
-95.18
-100.50
-100.75
-95.04
-83.51
-67.32
-48.45
-29.07
-11.11
4.27
16.79
26.84
35.11
42.12
47.98
52.43
55.12
55.93
55.08
53.07
50.46
47.64
44.83
42.11
39.63
37.67
36.55
36.46
37.32
38.74
40.10
40.86
40.67
39.45
37.28
34.26
30.46
25.96
20.90
15.54
10.21
5.09
0.14
-4.97
-10.60
-16.93
-23.75
-30.59
-36.89
-42.36
-47.19
-51.87
-57.01
-63.07
-70.22
-78.40
-87.23
-96.03
-103.66
-108.66
-109.43
-104.77
-94.30
-78.73
-59.66
-39.16
-19.24
-1.44
13.38
25.03
33.88
40.62
46.08
50.91
55.43
59.53
62.80
64.76
65.15
64.04
61.74
58.76
55.54
52.47
49.85
47.98
47.11
47.29
48.32
49.63
50.59
50.61
49.52
47.51
44.98
42.25
39.36
36.04
32.00
27.10
21.59
15.89
10.33
5.05
-0.13
-5.44
-10.99
-16.73
-22.47
-28.05
-33.48
-38.82
-44.12
-49.36
-54.50
-59.54
-64.63
-70.13
-76.47
-83.86
-92.09
-100.34
-107.19
-110.94
-109.96
-103.25
-90.82
-73.81
-54.18
-34.13
-15.47
0.77
14.36
25.63
35.00
42.72
48.77
53.13
55.89
57.39
58.04
58.18
57.87
56.96
55.29
52.91
50.24
47.88
46.42
46.08
46.64
47.57
48.26
48.34
47.72
46.54
44.92
42.89
40.32
37.09
33.16
28.61
23.57
18.21
12.65
7.00
1.50
-3.68
-8.49
-13.15
-17.97
-23.27
-29.08
-35.10
-40.81
-45.73
-49.79
-53.38
-57.25
-62.20
-68.81
-77.08
-86.28
-94.99
-101.33
-103.48
-100.26
-91.47
-77.97
-61.34
-43.33
-25.44
-8.69
6.29
19.11
29.59
37.80
43.99
48.55
51.83
53.89
54.61
53.81
51.55
48.23
44.47
40.98
38.25
36.50
35.75
35.88
36.69
37.91
39.16
39.99
39.98
38.91
36.81
33.92
30.58
27.02
23.20
18.83
13.57
7.25
0.06
-7.52
-14.91
-21.74
-27.90
-33.58
-39.03
-44.50
-50.10
-56.01
-62.53
-70.04
-78.65
-87.95
-96.65
-102.81
-104.33
-99.71
-88.72
-72.53
-53.30
-33.57
-15.35
0.29
13.19
23.77
32.64
40.30
47.10
53.14
58.43
62.76
65.84
67.33
67.04
65.16
62.21
58.92
55.96
53.76
52.38
51.61
51.17
50.76
50.20
49.37
48.30
47.05
45.65
44.02
41.91
39.03
35.18
30.34
24.78
18.90
13.13
7.66
2.37
-3.03
-8.80
-14.99
-21.37
-27.55
-33.25
-38.44
-43.33
-48.28
-53.50
-59.10
-65.15
-71.78
-79.25
-87.61
-96.46
-104.56
-109.96
-110.59
-104.96
-92.81
-75.38
-54.95
-34.14
-15.08
1.04
14.01
24.28
32.52
39.30
44.99
49.76
53.77
57.11
59.82
61.74
62.51
61.74
59.28
55.42
50.95
47.00
44.58
44.23
45.74
48.28
50.74
52.22
52.36
51.31
49.50
47.32
44.92
42.22
39.06
35.34
31.07
26.29
21.05
15.34
9.31
3.24
-2.47
-7.43
-11.53
-14.94
-18.12
-21.56
-25.63
-30.45
-35.90
-41.72
-47.57
-53.22
-58.67
-64.22
-70.40
-77.68
-86.07
-94.75
-102.08
-105.94
-104.53
-97.07
-84.18
-67.63
-49.62
-32.03
-15.87
-1.42
11.43
22.64
31.94
39.08
44.09
47.49
50.02
52.19
53.95
54.78
54.02
51.48
47.63
43.46
40.00
37.91
37.20
37.49
38.28
39.22
40.13
40.91
41.34
41.16
40.09
37.96
34.82
30.79
26.09
20.99
15.68
10.34
5.11
-0.01
-5.05
-10.11
-15.21
-20.29
-25.20
-29.84
-34.26
-38.62
-43.19
-48.19
-53.76
-60.00
-66.97
-74.69
-82.85
-90.72
-96.92
-99.76
-97.72
-90.02
-77.03
-60.17
-41.48
-23.01
-6.18
8.29
20.36
30.19
37.99
43.96
48.38
51.71
54.46
56.94
59.07
60.41
60.43
58.89
56.10
52.81
49.89
47.89
46.88
46.56
46.49
46.39
46.23
46.09
45.97
45.71
44.95
43.37
40.75
37.10
32.58
27.43
21.85
16.06
10.32
4.90
0.00
-4.33
-8.27
-12.17
-16.42
-21.22
-26.57
-32.19
-37.77
-43.12
-48.29
-53.61
-59.55
-66.45
-74.44
-83.11
-91.53
-98.30
-101.80
-100.69
-94.31
-82.96
-67.79
-50.45
-32.61
-15.58
-0.23
12.94
23.66
31.83
37.64
41.60
44.44
46.87
49.31
51.70
53.60
54.52
54.20
52.83
50.85
48.74
46.84
45.22
43.85
42.74
42.02
41.72
41.76
41.85
41.57
40.56
38.67
35.99
32.70
29.00
24.94
20.52
15.83
11.01
6.31
1.78
-2.74
-7.55
-12.93
-18.88
-25.10
-31.13
-36.60
-41.39
-45.74
-50.10
-54.96
-60.73
-67.59
-75.33
-83.34
-90.45
-95.05
-95.48
-90.52
-79.98
-64.82
-46.93
-28.55
-11.53
3.05
14.92
24.28
31.56
37.06
41.07
43.85
45.71
46.94
47.69
47.91
47.38
45.95
43.73
41.07
38.42
36.15
34.42
33.30
32.74
32.73
33.21
33.95
34.50
34.33
32.98
30.37
26.82
22.97
19.32
16.09
12.98
9.42
4.92
-0.64
-7.01
-13.63
-20.02
-25.90
-31.28
-36.34
-41.27
-46.17
-51.19
-56.63
-62.89
-70.23
-78.39
-86.36
-92.44
-94.69
-91.61
-82.72
-68.76
-51.52
-33.30
-16.19
-1.59
10.03
18.99
26.06
31.95
37.17
41.87
45.96
49.27
51.62
52.77
52.52
50.71
47.46
43.28
39.03
35.66
33.89
33.84
35.12
36.99
38.78
40.08
40.82
41.00
40.49
38.98
36.13
31.90
26.68
21.19
16.14
11.87
8.13
4.25
-0.47
-6.36
-13.19
-20.31
-27.04
-32.98
-38.13
-42.84
-47.53
-52.57
-58.27
-64.85
-72.38
-80.60
-88.70
-95.30
-98.71
-97.37
-90.47
-78.26
-61.99
-43.51
-24.82
-7.49
7.42
19.35
28.24
34.40
38.44
41.12
43.23
45.33
47.62
49.86
51.57
52.25
51.55
49.53
46.54
43.24
40.31
38.34
37.61
37.97
38.94
39.82
40.03
39.27
37.63
35.38
32.82
30.08
27.07
23.61
19.55
14.94
9.94
4.79
-0.35
-5.45
-10.52
-15.55
-20.48
-25.24
-29.79
-34.27
-38.96
-44.13
-50.05
-56.85
-64.54
-72.89
-81.39
-89.16
-95.03
-97.64
-95.89
-89.18
-77.69
-62.44
-45.05
-27.37
-10.99
3.05
14.49
23.61
30.89
36.72
41.27
44.61
46.84
48.24
49.03
49.31
48.90
47.47
44.87
41.39
37.69
34.56
32.66
32.18
32.95
34.54
36.45
38.17
39.23
39.21
37.88
35.19
31.33
26.68
21.61
16.38
11.14
5.91
0.67
-4.62
-9.96
-15.31
-20.57
-25.65
-30.47
-35.08
-39.64
-44.43
-49.76
-55.93
-63.11
-71.14
-79.42
-86.74
-91.48
-92.04
-87.38
-77.47
-63.38
-46.89
-29.86
-13.78
0.53
12.77
22.87
30.85
36.82
41.03
43.88
45.82
47.17
47.99
48.07
47.11
44.98
41.88
38.34
35.03
32.57
31.29
31.19
31.93
33.03
33.92
34.11
33.27
31.22
28.05
24.07
19.80
15.72
12.05
8.57
4.69
-0.26
-6.61
-14.08
-21.90
-29.13
-35.21
-40.18
-44.67
-49.64
-55.89
-63.81
-73.24
-83.41
-93.05
-100.51
-104.13
-102.65
-95.60
-83.51
-67.74
-50.10
-32.27
-15.50
-0.40
12.85
24.26
33.98
42.10
48.81
54.27
58.55
61.57
63.12
63.06
61.46
58.70
55.32
51.94
49.05
46.87
45.49
44.85
44.86
45.29
45.79
45.95
45.39
43.86
41.31
37.83
33.56
28.76
23.70
18.69
13.88
9.17
4.18
-1.61
-8.51
-16.43
-24.77
-32.68
-39.49
-45.04
-49.81
-54.69
-60.63
-68.20
-77.43
-87.61
-97.38
-104.93
-108.34
-106.10
-97.58
-83.34
-65.11
-45.19
-25.79
-8.42
6.36
18.76
29.25
38.19
45.66
51.61
56.13
59.47
61.92
63.60
64.27
63.59
61.42
58.13
54.60
51.88
50.68
51.00
52.23
53.46
53.99
53.58
52.40
50.80
48.96
46.84
44.16
40.70
36.38
31.36
25.95
20.41
14.92
9.44
3.86
-1.95
-8.07
-14.49
-21.10
-27.70
-34.12
-40.22
-46.01
-51.73
-57.74
-64.46
-72.15
-80.73
-89.66
-97.95
-104.31
-107.37
-106.04
-99.60
-88.09
-72.22
-53.38
-33.39
-14.04
3.25
17.68
29.08
37.80
44.31
49.14
52.63
55.05
56.54
57.23
57.23
56.57
55.32
53.49
51.26
48.90
46.79
45.32
44.75
45.12
46.12
47.19
47.59
46.74
44.39
40.75
36.44
32.19
28.52
25.48
22.66
19.43
15.28
9.99
3.77
-2.90
-9.52
-15.67
-21.23
-26.30
-31.15
-36.14
-41.53
-47.53
-54.19
-61.55
-69.54
-78.01
-86.54
-94.20
-99.60
-101.07
-97.23
-87.50
-72.56
-54.15
-34.56
-15.88
0.59
14.40
25.81
35.33
43.34
50.00
55.28
59.06
61.28
61.93
61.08
58.97
55.96
52.58
49.41
46.93
45.49
45.17
45.83
47.16
48.72
50.07
50.83
50.76
49.77
47.90
45.21
41.76
37.57
32.71
27.41
22.00
16.79
11.95
7.39
2.84
-2.06
-7.54
-13.65
-20.19
-26.82
-33.13
-38.79
-43.72
-48.11
-52.44
-57.38
-63.58
-71.41
-80.77
-90.88
-100.37
-107.54
-110.67
-108.54
-100.74
-87.80
-71.04
-52.21
-33.06
-14.96
1.20
15.06
26.57
35.90
43.34
49.28
54.09
58.05
61.21
63.39
64.30
63.75
61.84
58.97
55.67
52.50
49.87
48.05
47.23
47.49
48.76
50.71
52.78
54.22
54.39
52.97
50.07
46.07
41.50
36.73
31.97
27.26
22.55
17.72
12.67
7.31
1.65
-4.25
-10.25
-16.16
-21.85
-27.24
-32.34
-37.23
-42.04
-46.83
-51.71
-56.77
-62.21
-68.33
-75.36
-83.24
-91.35
-98.43
-102.74
-102.58
-96.83
-85.53
-69.89
-51.89
-33.62
-16.72
-2.01
10.40
20.76
29.43
36.66
42.60
47.34
50.95
53.41
54.64
54.56
53.18
50.76
47.82
44.96
42.71
41.30
40.64
40.49
40.66
41.00
41.50
42.08
42.51
42.49
41.66
39.75
36.70
32.61
27.71
22.29
16.64
11.04
5.69
0.64
-4.21
-9.12
-14.33
-19.90
-25.60
-31.04
-35.87
-40.07
-44.05
-48.47
-54.03
-61.09
-69.53
-78.63
-87.11
-93.39
-95.85
-93.27
-85.17
-72.04
-55.31
-36.94
-18.88
-2.59
11.21
22.38
31.18
37.94
42.92
46.40
48.66
49.95
50.54
50.52
49.84
48.42
46.25
43.52
40.67
38.28
36.82
36.51
37.22
38.54
39.97
41.05
41.51
41.15
39.88
37.63
34.44
30.47
26.01
21.34
16.62
11.87
6.96
1.78
-3.66
-9.21
-14.73
-20.14
-25.51
-31.00
-36.63
-42.26
-47.64
-52.59
-57.20
-61.86
-67.12
-73.47
-80.91
-88.88
-96.12
-101.03
-101.93
-97.69
-88.04
-73.75
-56.48
-38.26
-20.96
-5.81
6.76
17.00
25.43
32.52
38.58
43.64
47.71
50.79
52.91
54.05
54.14
53.15
51.21
48.69
46.13
44.03
42.65
41.91
41.49
41.09
40.62
40.15
39.80
39.44
38.78
37.37
34.97
31.58
27.51
23.19
18.88
14.63
10.23
5.42
0.10
-5.61
-11.42
-17.04
-22.35
-27.51
-32.76
-38.30
-44.12
-50.11
-56.17
-62.45
-69.33
-77.19
-86.03
-95.06
-102.74
-107.14
-106.56
-100.20
-88.33
-72.26
-53.74
-34.56
-16.13
0.59
15.02
26.86
35.96
42.48
46.77
49.46
51.21
52.54
53.66
54.45
54.66
54.04
52.53
50.25
47.46
44.55
41.92
40.06
39.28
39.65
40.85
42.13
42.67
41.78
39.31
35.54
31.10
26.46
21.85
17.25
12.48
7.46
2.23
-3.16
-8.76
-14.65
-20.84
-27.14
-33.23
-38.76
-43.74
-48.65
-54.22
-61.16
-69.64
-79.06
-88.12
-95.23
-98.88
-98.07
-92.48
-82.40
-68.63
-52.28
-34.62
-16.90
-0.26
14.37
26.36
35.41
41.57
45.21
46.98
47.63
47.82
47.97
48.11
48.05
47.49
46.21
44.23
41.80
39.32
37.22
35.86
35.43
35.81
36.56
37.09
36.80
35.35
32.77
29.32
25.32
20.95
16.14
10.71
4.52
-2.40
-9.74
-17.11
-24.11
-30.42
-35.96
-40.88
-45.57
-50.64
-56.70
-64.18
-73.01
-82.57
-91.68
-98.85
-102.45
-101.22
-94.56
-82.79
-67.10
-49.21
-30.96
-13.74
1.59
14.73
25.65
34.46
41.34
46.65
50.86
54.47
57.74
60.47
62.18
62.34
60.77
57.79
54.14
50.68
48.04
46.45
45.74
45.57
45.61
45.72
45.85
45.94
45.73
44.79
42.63
38.96
33.88
27.93
21.86
16.29
11.37
6.81
2.03
-3.50
-9.91
-16.93
-24.06
-30.89
-37.21
-43.12
-48.86
-54.67
-60.87
-67.79
-75.71
-84.66
-94.15
-102.97
-109.24
-110.94
-106.58
-95.81
-79.66
-60.13
-39.55
-19.93
-2.53
12.12
23.94
33.20
40.35
45.99
50.75
55.10
59.19
62.74
65.23
66.15
65.29
62.83
59.32
55.52
52.16
49.86
49.04
49.71
51.51
53.71
55.49
56.14
55.35
53.23
50.15
46.48
42.43
37.97
32.95
27.32
21.22
15.00
9.08
3.73
-1.06
-5.69
-10.64
-16.30
-22.73
-29.55
-36.21
-42.24
-47.54
-52.44
-57.48
-63.20
-69.92
-77.61
-86.00
-94.49
-102.19
-107.82
-109.94
-107.26
-99.14
-85.86
-68.64
-49.24
-29.50
-10.95
5.36
18.87
29.45
37.30
42.92
47.03
50.31
53.17
55.61
57.36
58.04
57.52
55.93
53.69
51.25
48.98
47.14
45.83
45.06
44.84
45.07
45.55
45.99
45.94
44.94
42.63
38.90
34.03
28.50
22.86
17.42
12.19
6.94
1.42
-4.51
-10.77
-17.22
-23.65
-29.87
-35.69
-40.99
-45.88
-50.80
-56.57
-63.96
-73.28
-83.93
-94.29
-102.16
-105.41
-102.72
-93.88
-79.82
-62.23
-43.02
-23.97
-6.39
9.00
21.88
32.30
40.47
46.70
51.38
54.98
57.88
60.27
62.03
62.77
62.15
60.14
57.10
53.74
50.79
48.66
47.40
46.81
46.64
46.78
47.14
47.56
47.64
46.85
44.72
41.09
36.22
30.58
24.64
18.72
12.86
6.99
0.99
-5.19
-11.60
-18.22
-25.04
-32.01
-38.97
-45.67
-51.90
-57.66
-63.29
-69.41
-76.64
-85.20
-94.62
-103.56
-110.11
-112.35
-108.92
-99.48
-84.81
-66.53
-46.55
-26.68
-8.30
7.70
20.93
31.40
39.56
46.06
51.60
56.61
61.15
64.96
67.67
68.96
68.80
67.37
64.99
62.06
58.98
56.14
53.94
52.65
52.30
52.57
52.89
52.65
51.44
49.24
46.19
42.53
38.29
33.37
27.68
21.32
14.63
8.14
2.27
-2.92
-7.75
-12.71
-18.12
-23.96
-29.90
-35.54
-40.68
-45.49
-50.38
-55.84
-62.32
-70.09
-79.16
-89.10
-98.90
-106.96
-111.34
-110.33
-103.09
-90.00
-72.58
-52.95
-33.16
-14.67
1.70
15.68
27.24
36.49
43.66
49.12
53.36
56.80
59.61
61.68
62.77
62.68
61.45
59.31
56.73
54.15
51.96
50.35
49.39
48.92
48.77
48.71
48.57
48.21
47.49
46.34
44.64
42.32
39.30
35.49
30.78
25.07
18.39
11.11
3.89
-2.43
-7.21
-10.34
-12.43
-14.51
-17.68
-22.62
-29.32
-37.20
-45.33
-52.80
-59.04
-64.04
-68.35
-72.92
-78.65
-85.88
-94.11
-101.86
-107.14
-107.98
-103.19
-92.59
-77.11
-58.37
-38.24
-18.55
-0.74
14.24
26.00
34.76
41.11
45.79
49.37
52.07
53.82
54.46
53.97
52.53
50.53
48.33
46.15
44.00
41.79
39.49
37.34
35.69
34.90
35.14
36.10
37.21
37.71
37.02
34.90
31.57
27.46
23.03
18.57
14.10
9.51
4.59
-0.71
-6.38
-12.30
-18.37
-24.46
-30.42
-36.12
-41.38
-46.15
-50.60
-55.23
-60.68
-67.45
-75.51
-84.04
-91.45
-95.81
-95.41
-89.40
-77.99
-62.39
-44.37
-25.81
-8.18
7.47
20.64
31.19
39.20
44.91
48.72
51.13
52.62
53.57
54.07
54.01
53.09
51.10
48.07
44.36
40.62
37.57
35.81
35.56
36.68
38.63
40.74
42.23
42.48
41.11
38.07
33.60
28.19
22.36
16.50
10.78
5.14
-0.56
-6.47
-12.62
-18.90
-25.17
-31.28
-37.13
-42.67
-47.94
-53.16
-58.67
-64.99
-72.49
-81.20
-90.45
-98.89
-104.74
-106.27
-102.31
-92.67
-78.14
-60.19
-40.65
-21.21
-3.28
12.22
24.75
34.25
41.02
45.72
49.25
52.37
55.53
58.58
60.88
61.69
60.58
57.79
54.14
50.67
48.14
46.79
46.30
46.09
45.70
44.98
44.01
42.93
41.72
40.17
38.05
35.19
31.61
27.43
22.76
17.65
12.09
6.01
-0.52
-7.27
-13.94
-20.18
-25.79
-30.73
-35.17
-39.42
-43.84
-48.80
-54.65
-61.63
-69.80
-78.94
-88.44
-97.17
-103.63
-106.18
-103.55
-95.28
-81.88
-64.88
-46.23
-27.90
-11.28
2.96
14.87
24.86
33.38
40.75
47.09
52.37
56.53
59.47
61.07
61.19
59.83
57.16
53.58
49.74
46.31
43.88
42.69
42.69
43.54
44.75
45.85
46.50
46.45
45.60
43.95
41.54
38.54
35.08
31.24
26.97
22.16
16.71
10.71
4.41
-1.82
-7.73
-13.27
-18.66
-24.16
-29.97
-36.06
-42.18
-48.05
-53.50
-58.69
-64.06
-70.18
-77.44
-85.71
-94.17
-101.21
-104.83
-103.27
-95.63
-82.32
-64.90
-45.54
-26.37
-8.80
6.45
19.21
29.50
37.37
42.96
46.67
49.01
50.53
51.51
51.94
51.65
50.52
48.62
46.23
43.66
41.18
39.02
37.43
36.60
36.66
37.50
38.64
39.38
39.07
37.35
34.26
30.26
25.86
21.42
17.03
12.48
7.48
1.89
-4.18
-10.44
-16.65
-22.80
-29.06
-35.70
-42.76
-50.03
-57.19
-64.17
-71.24
-78.73
-86.57
-93.84
-98.87
-99.78
-95.20
-84.97
-70.03
-52.14
-33.22
-14.92
1.59
15.60
26.86
35.48
41.92
46.85
50.86
54.30
57.07
58.87
59.39
58.57
56.61
53.97
51.23
48.88
47.28
46.57
46.60
47.10
47.69
48.09
48.11
47.69
46.77
45.19
42.74
39.19
34.49
28.82
22.60
16.33
10.38
4.84
-0.48
-5.94
-11.76
-17.91
-24.04
-29.70
-34.61
-38.95
-43.25
-48.28
-54.61
-62.44
-71.42
-80.92
-90.12
-98.08
-103.77
-106.01
-103.78
-96.59
-84.75
-69.45
-52.32
-34.98
-18.60
-3.77
9.32
20.58
30.03
37.70
43.81
48.70
52.67
55.79
57.86
58.55
57.73
55.69
53.12
50.83
49.49
49.33
50.14
51.43
52.64
53.35
53.37
52.65
51.26
49.31
46.94
44.33
41.57
38.63
35.28
31.17
26.06
19.99
13.39
6.85
0.90
-4.27
-8.89
-13.43
-18.33
-23.76
-29.60
-35.54
-41.29
-46.72
-51.91
-57.02
-62.32
-68.06
-74.50
-81.77
-89.69
-97.51
-103.92
-107.29
-106.14
-99.69
-88.11
-72.57
-54.75
-36.45
-19.15
-3.74
9.33
20.07
28.71
35.65
41.33
46.16
50.28
53.62
55.88
56.77
56.24
54.56
52.29
50.07
48.40
47.52
47.39
47.82
48.55
49.38
50.15
50.71
50.78
50.08
48.41
45.65
41.83
37.04
31.43
25.20
18.69
12.35
6.60
1.68
-2.51
-6.40
-10.58
-15.42
-20.96
-26.87
-32.66
-37.98
-42.82
-47.51
-52.63
-58.73
-66.14
-74.81
-84.20
-93.24
-100.44
-104.21
-103.29
-97.13
-86.02
-71.05
-53.78
-35.85
-18.71
-3.45
9.40
19.77
28.04
34.84
40.69
45.81
50.05
53.05
54.51
54.46
53.18
51.09
48.53
45.71
42.92
40.55
39.16
39.15
40.51
42.67
44.69
45.67
45.03
42.76
39.20
34.84
30.11
25.25
20.42
15.66
11.02
6.42
1.74
-3.25
-8.70
-14.66
-21.03
-27.56
-33.98
-40.07
-45.76
-51.23
-56.94
-63.46
-71.23
-80.16
-89.37
-97.24
-101.77
-101.25
-94.81
-82.78
-66.56
-48.15
-29.50
-12.05
3.36
16.47
27.27
35.92
42.76
48.27
52.98
57.22
60.97
63.77
65.01
64.37
62.07
58.95
56.02
54.04
53.17
53.04
53.08
52.96
52.67
52.42
52.29
52.01
51.02
48.77
45.00
39.90
34.00
27.97
22.34
17.40
13.10
9.20
5.25
0.79
-4.51
-10.72
-17.61
-24.77
-31.68
-38.00
-43.62
-48.69
-53.58
-58.81
-64.93
-72.30
-80.91
-90.13
-98.68
-104.75
-106.64
-103.19
-94.31
-80.92
-64.58
-46.94
-29.32
-12.54
2.93
16.70
28.43
37.90
45.17
50.66
54.92
58.33
60.90
62.33
62.26
60.68
57.99
54.90
52.05
49.83
48.34
47.50
47.21
47.37
47.78
48.13
48.05
47.22
45.58
43.33
40.72
37.89
34.75
31.08
26.71
21.72
16.42
11.16
6.17
1.43
-3.27
-8.17
-13.49
-19.30
-25.45
-31.65
-37.55
-42.86
-47.57
-51.99
-56.73
-62.47
-69.67
-78.29
-87.56
-96.10
-102.19
-104.11
-100.71
-91.68
-77.70
-60.26
-41.30
-22.75
-5.99
8.13
19.52
28.44
35.43
41.01
45.58
49.38
52.41
