1564620878.00
64.000000
-0.00
-0.00
-0.00
-0.00
-0.00
-0.00
-0.00
-0.00
-0.00
-0.00
0.00
0.01
0.01
-0.00
-0.03
-0.05
-0.05
0.00
0.13
0.36
0.66
1.01
1.37
1.72
2.06
2.40
2.79
3.24
3.80
4.42
5.06
5.66
6.20
6.68
7.15
7.68
8.31
9.14
10.09
11.04
11.88
12.56
13.14
13.76
14.65
15.96
17.91
20.32
22.90
25.38
27.58
29.57
31.68
34.32
37.81
42.54
48.15
54.10
59.83
64.97
69.59
74.15
79.35
85.71
93.76
102.99
112.62
121.75
129.80
136.80
143.34
150.72
157.64
166.37
177.54
191.27
206.38
219.97
227.66
224.78
207.91
176.16
131.93
79.09
22.02
-36.02
-93.48
-150.15
-206.23
-261.49
-315.10
-365.56
-411.85
-453.14
-488.79
-517.95
-539.33
-551.36
-552.44
-541.52
-518.25
-483.63
-439.49
-388.31
-332.77
-275.38
-218.22
-162.88
-110.48
-61.69
-17.04
23.07
58.32
88.34
112.87
131.76
145.19
153.68
158.17
159.71
159.30
157.64
154.97
151.19
146.03
139.22
130.60
120.06
107.75
94.44
81.81
72.33
68.59
72.13
82.49
97.04
111.81
122.98
128.29
127.62
122.43
114.71
105.97
96.84
87.39
77.84
68.58
60.27
53.50
48.41
44.54
41.12
37.31
32.73
27.52
22.30
17.86
14.81
13.25
12.73
12.45
11.62
9.83
7.21
4.29
1.76
0.14
-0.50
-0.47
-0.33
-0.53
-1.26
-2.38
-3.59
-4.59
-5.18
-5.26
-4.78
-3.74
-2.24
-0.57
0.81
1.40
0.95
-0.42
-2.21
-3.81
-4.75
-5.00
-4.80
-4.53
-4.44
-4.52
-4.58
-4.44
-4.07
-3.55
-3.05
-2.62
-2.23
-1.76
-1.14
-0.39
0.36
0.90
1.10
0.93
0.47
-0.11
-0.64
-0.99
-1.13
-1.07
-0.87
-0.60
-0.29
0.04
0.38
0.73
1.10
1.49
1.94
2.44
2.99
3.53
4.04
4.53
5.07
5.72
6.47
7.25
7.90
8.28
8.29
7.90
7.14
5.99
4.48
2.55
0.25
-2.23
-4.56
-6.47
-7.75
-8.40
-8.57
-8.53
-8.49
-8.55
-8.72
-8.88
-8.91
-8.74
-8.35
-7.82
-7.27
-6.80
-6.48
-6.25
-6.03
-5.72
-5.28
-4.77
-4.31
-4.00
-3.87
-3.83
-3.71
-3.40
-2.91
-2.37
-1.98
-1.87
-2.03
-2.31
-2.51
-2.54
-2.40
-2.22
-2.10
-2.10
-2.17
-2.23
-2.22
-2.10
-1.95
-1.81
-1.74
-1.71
-1.67
-1.58
-1.39
-1.13
-0.81
-0.55
-0.43
-0.52
-0.85
-1.36
-1.95
-2.55
-3.20
-3.86
-4.52
-5.12
-5.56
-5.79
-5.84
-5.82
-5.88
-6.16
-6.67
-7.36
-8.12
-8.89
-9.64
-10.41
-11.22
-12.05
-12.82
-13.41
-13.72
-13.74
-13.46
-12.91
-12.05
-10.80
-9.04
-6.74
-3.97
-0.96
2.01
4.76
7.25
9.59
11.93
14.29
16.51
18.33
19.51
19.97
19.85
19.38
18.76
18.03
17.13
15.94
14.47
12.90
11.48
10.39
9.62
9.03
8.40
7.60
6.66
5.76
5.06
4.61
4.33
4.04
3.62
3.07
2.50
2.01
1.62
1.23
0.72
-0.03
-0.94
-1.87
-2.60
-3.00
-3.07
-2.93
-2.74
-2.63
-2.72
-2.98
-3.38
-3.80
-4.11
-4.20
-4.00
-3.49
-2.77
-1.92
-1.04
-0.20
0.55
1.14
1.51
1.60
1.38
0.88
0.23
-0.43
-0.94
-1.17
-1.10
-0.74
-0.21
0.38
0.91
1.29
1.47
1.44
1.26
1.00
0.76
0.59
0.50
0.45
0.38
0.23
-0.00
-0.30
-0.61
-0.91
-1.19
-1.46
-1.72
-1.96
-2.19
-2.43
-2.74
-3.12
-3.53
-3.87
-3.99
-3.79
-3.23
-2.39
-1.42
-0.48
0.31
0.88
1.23
1.35
1.27
1.04
0.71
0.36
0.08
-0.07
-0.07
0.08
0.34
0.61
0.83
0.93
0.91
0.82
0.71
0.62
0.57
0.50
0.36
0.14
-0.15
-0.47
-0.79
-1.11
-1.44
-1.79
-2.12
-2.36
-2.49
-2.52
-2.54
-2.62
-2.83
-3.14
-3.46
-3.68
-3.69
-3.44
-2.91
-2.16
-1.27
-0.38
0.39
0.92
1.15
1.09
0.84
0.52
0.30
0.23
0.34
0.59
0.87
1.07
1.13
1.04
0.85
0.65
0.53
0.56
0.76
1.11
1.52
1.85
1.95
1.72
1.16
0.41
-0.29
-0.72
-0.79
-0.58
-0.29
-0.15
-0.28
-0.68
-1.26
-1.92
-2.55
-3.06
-3.35
-3.35
-3.03
-2.42
-1.66
-0.90
-0.27
0.16
0.41
0.49
0.44
0.30
0.13
0.04
0.08
0.27
0.55
0.82
0.99
1.03
0.92
0.73
0.52
0.36
0.32
0.45
0.75
1.15
1.54
1.79
1.79
1.56
1.19
0.80
0.49
0.28
0.08
-0.20
-0.62
-1.19
-1.81
-2.39
-2.82
-3.05
-3.06
-2.90
-2.60
-2.18
-1.67
-1.06
-0.41
0.22
0.72
1.03
1.18
1.23
1.31
1.51
1.81
2.10
2.24
2.14
1.83
1.44
1.15
1.06
1.19
1.46
1.74
1.94
2.05
2.07
2.03
1.92
1.69
1.27
0.66
-0.03
-0.62
-0.93
-0.88
-0.53
-0.10
0.20
0.22
-0.03
-0.41
-0.77
-1.02
-1.18
-1.32
-1.50
-1.67
-1.71
-1.49
-0.95
-0.18
0.63
1.28
1.63
1.69
1.58
1.43
1.33
1.28
1.23
1.12
0.95
0.82
0.79
0.90
1.09
1.26
1.31
1.23
1.07
0.94
0.96
1.18
1.58
1.99
2.26
2.25
1.90
1.33
0.72
0.25
-0.00
-0.06
-0.06
-0.12
-0.34
-0.70
-1.15
-1.61
-2.03
-2.37
-2.59
-2.64
-2.46
-2.05
-1.45
-0.78
-0.13
0.41
0.81
1.09
1.25
1.34
1.34
1.28
1.16
1.01
0.85
0.71
0.65
0.71
0.93
1.31
1.80
2.29
2.67
2.88
2.87
2.68
2.35
1.94
1.50
1.07
0.69
0.38
0.12
-0.10
-0.32
-0.53
-0.68
-0.70
-0.61
-0.49
-0.49
-0.74
-1.25
-1.85
-2.30
-2.35
-1.94
-1.18
-0.37
0.23
0.48
0.49
0.47
0.62
0.97
1.41
1.70
1.67
1.34
0.87
0.52
0.48
0.77
1.26
1.73
2.00
2.00
1.80
1.53
1.32
1.25
1.30
1.42
1.54
1.61
1.63
1.60
1.50
1.31
0.97
0.49
-0.08
-0.65
-1.10
-1.38
-1.52
-1.65
-1.90
-2.35
-2.93
-3.47
-3.78
-3.71
-3.26
-2.53
-1.66
-0.80
-0.03
0.61
1.10
1.41
1.54
1.52
1.36
1.13
0.87
0.65
0.51
0.53
0.74
1.13
1.62
2.07
2.31
2.27
1.97
1.53
1.14
0.90
0.87
0.98
1.12
1.19
1.14
1.00
0.79
0.59
0.41
0.25
0.10
-0.05
-0.16
-0.22
-0.25
-0.27
-0.37
-0.59
-0.97
-1.49
-2.09
-2.64
-3.02
-3.15
-2.96
-2.46
-1.73
-0.88
-0.08
0.58
1.00
1.23
1.30
1.31
1.32
1.33
1.35
1.35
1.36
1.44
1.61
1.84
2.04
2.10
1.99
1.78
1.61
1.59
1.72
1.86
1.88
1.71
1.41
1.16
1.10
1.24
1.38
1.31
0.87
0.09
-0.84
-1.69
-2.26
-2.52
-2.53
-2.40
-2.21
-2.05
-1.96
-1.98
-2.15
-2.45
-2.83
-3.18
-3.39
-3.36
-3.03
-2.37
-1.42
-0.29
0.85
1.79
2.37
2.56
2.46
2.29
2.21
2.21
2.21
2.05
1.67
1.18
0.82
0.80
1.17
1.76
2.30
2.55
2.43
2.05
1.61
1.28
1.12
1.06
1.00
0.86
0.68
0.48
0.33
0.21
0.09
-0.11
-0.39
-0.74
-1.08
-1.38
-1.62
-1.85
-2.11
-2.45
-2.86
-3.29
-3.66
-3.87
-3.84
-3.50
-2.87
-2.04
-1.18
-0.44
0.07
0.34
0.44
0.51
0.66
0.94
1.32
1.71
2.00
2.11
2.01
1.78
1.54
1.42
1.46
1.65
1.84
1.91
1.79
1.55
1.32
1.22
1.27
1.37
1.38
1.17
0.78
0.32
-0.08
-0.32
-0.45
-0.57
-0.73
-0.95
-1.15
-1.26
-1.27
-1.26
-1.35
-1.60
-2.01
-2.50
-2.98
-3.38
-3.69
-3.84
-3.78
-3.41
-2.69
-1.73
-0.71
0.11
0.52
0.50
0.13
-0.41
-0.94
-1.38
-1.70
-1.92
-2.06
-2.09
-1.99
-1.78
-1.53
-1.37
-1.43
-1.76
-2.29
-2.88
-3.38
-3.73
-3.99
-4.33
-4.93
-5.87
-7.09
-8.39
-9.61
-10.67
-11.57
-12.41
-13.26
-14.11
-14.92
-15.62
-16.14
-16.43
-16.45
-16.14
-15.39
-14.06
-12.04
-9.26
-5.74
-1.66
2.69
6.96
10.82
14.02
16.42
17.98
18.74
18.80
18.30
17.48
16.58
15.81
15.28
14.93
14.59
14.08
13.30
12.26
11.10
9.93
8.89
8.01
7.30
6.75
6.31
5.91
5.45
4.84
4.07
3.20
2.33
1.57
0.95
0.47
0.02
-0.44
-0.97
-1.55
-2.12
-2.61
-2.96
-3.13
-3.10
-2.90
-2.55
-2.10
-1.58
-1.02
-0.44
0.09
0.50
0.72
0.77
0.71
0.65
0.67
0.77
0.83
0.78
0.57
0.25
-0.04
-0.20
-0.15
0.09
0.46
0.90
1.33
1.70
1.91
1.86
1.51
0.87
0.04
-0.80
-1.47
-1.87
-1.98
-1.87
-1.70
-1.60
-1.69
-2.03
-2.59
-3.27
-3.87
-4.22
-4.19
-3.78
-3.08
-2.23
-1.38
-0.62
0.03
0.52
0.83
0.89
0.71
0.39
0.08
-0.05
0.07
0.37
0.73
0.96
0.98
0.83
0.61
0.43
0.38
0.44
0.59
0.82
1.11
1.50
1.93
2.32
2.53
2.46
2.06
1.38
0.58
-0.15
-0.69
-1.03
-1.27
-1.56
-1.95
-2.45
-2.92
-3.25
-3.38
-3.34
-3.20
-3.05
-2.90
-2.69
-2.35
-1.84
-1.21
-0.54
0.08
0.56
0.87
1.01
0.98
0.82
0.56
0.27
0.05
0.01
0.21
0.63
1.19
1.70
2.02
2.07
1.91
1.67
1.50
1.44
1.46
1.49
1.46
1.37
1.31
1.32
1.36
1.34
1.16
0.78
0.28
-0.23
-0.64
-0.92
-1.11
-1.27
-1.45
-1.64
-1.83
-2.04
-2.27
-2.50
-2.64
-2.56
-2.14
-1.37
-0.36
0.64
1.40
1.76
1.73
1.46
1.14
0.92
0.90
1.03
1.23
1.41
1.49
1.48
1.37
1.19
0.97
0.73
0.53
0.44
0.56
0.89
1.36
1.78
1.93
1.64
0.93
-0.07
-1.11
-1.95
-2.47
-2.65
-2.57
-2.38
-2.22
-2.19
-2.33
-2.63
-2.98
-3.27
-3.40
-3.30
-2.99
-2.51
-1.93
-1.26
-0.53
0.24
0.99
1.62
2.01
2.14
2.04
1.83
1.62
1.51
1.52
1.57
1.60
1.52
1.34
1.09
0.89
0.81
0.92
1.19
1.48
1.68
1.66
1.40
0.98
0.54
0.22
0.07
0.06
0.08
0.04
-0.09
-0.29
-0.52
-0.76
-1.02
-1.31
-1.65
-2.01
-2.35
-2.66
-2.95
-3.20
-3.35
-3.28
-2.87
-2.12
-1.14
-0.16
0.57
0.94
0.98
0.86
0.77
0.79
0.90
0.98
0.90
0.66
0.34
0.16
0.28
0.78
1.55
2.33
2.85
2.92
2.55
1.90
1.21
0.67
0.35
0.22
0.18
0.19
0.23
0.27
0.29
0.22
-0.01
-0.38
-0.81
-1.16
-1.32
-1.32
-1.25
-1.28
-1.51
-1.94
-2.50
-3.04
-3.43
-3.60
-3.54
-3.25
-2.74
-2.06
-1.25
-0.42
0.35
0.95
1.36
1.55
1.57
1.43
1.18
0.90
0.70
0.68
0.89
1.28
1.66
1.85
1.76
1.43
1.02
0.75
0.70
0.82
0.97
1.02
0.91
0.71
0.52
0.39
0.31
0.21
0.05
-0.12
-0.28
-0.40
-0.50
-0.65
-0.86
-1.09
-1.22
-1.19
-1.06
-1.00
-1.18
-1.66
-2.30
-2.82
-2.95
-2.58
-1.79
-0.81
0.12
0.87
1.43
1.81
2.01
2.01
1.77
1.32
0.76
0.25
-0.09
-0.20
-0.13
0.02
0.18
0.33
0.54
0.84
1.22
1.56
1.72
1.57
1.12
0.48
-0.17
-0.70
-1.06
-1.29
-1.45
-1.58
-1.61
-1.48
-1.19
-0.81
-0.53
-0.49
-0.76
-1.27
-1.91
-2.56
-3.16
-3.66
-3.98
-4.00
-3.60
-2.77
-1.64
-0.49
0.41
0.89
0.99
0.90
0.83
0.90
1.05
1.13
0.99
0.61
0.10
-0.35
-0.58
-0.56
-0.35
-0.10
0.09
0.22
0.33
0.52
0.82
1.15
1.39
1.39
1.07
0.51
-0.11
-0.57
-0.73
-0.59
-0.29
-0.03
0.03
-0.17
-0.57
-1.04
-1.47
-1.81
-2.11
-2.38
-2.63
-2.81
-2.82
-2.57
-2.03
-1.21
-0.22
0.78
1.65
2.24
2.51
2.48
2.24
1.93
1.64
1.41
1.22
1.04
0.88
0.78
0.78
0.90
1.08
1.26
1.39
1.47
1.57
1.77
2.07
2.39
2.62
2.66
2.51
2.25
2.01
1.87
1.84
1.86
1.79
1.54
1.06
0.40
-0.28
-0.80
-1.03
-0.93
-0.66
-0.43
-0.50
-0.94
-1.62
-2.26
-2.56
-2.33
-1.62
-0.65
0.30
1.01
1.43
1.63
1.72
1.78
1.78
1.70
1.49
1.23
0.99
0.85
0.79
0.76
0.65
0.43
0.20
0.10
0.24
0.66
1.26
1.83
2.19
2.25
2.05
1.70
1.34
1.05
0.84
0.64
0.38
0.06
-0.32
-0.67
-0.95
-1.11
-1.19
-1.26
-1.38
-1.62
-1.98
-2.43
-2.92
-3.37
-3.68
-3.80
-3.67
-3.33
-2.86
-2.40
-2.08
-2.01
-2.21
-2.63
-3.17
-3.73
-4.23
-4.65
-5.00
-5.32
-5.67
-6.12
-6.74
-7.53
-8.43
-9.35
-10.18
-10.82
-11.31
-11.74
-12.19
-12.70
-13.14
-13.29
-12.90
-11.84
-10.10
-7.83
-5.21
-2.40
0.53
3.49
6.39
9.06
11.31
13.03
14.20
14.88
15.19
15.21
14.95
14.40
13.59
12.61
11.63
10.79
10.22
9.95
9.89
9.90
9.82
9.54
9.04
8.40
7.69
7.00
6.31
5.62
4.90
4.21
3.64
3.28
3.14
3.16
3.22
3.21
3.08
2.86
2.59
2.31
2.04
1.80
1.58
1.37
1.13
0.84
0.50
0.14
-0.16
-0.30
-0.24
-0.05
0.14
0.14
-0.15
-0.72
-1.42
-2.06
-2.49
-2.65
-2.57
-2.31
-1.93
-1.46
-0.96
-0.52
-0.26
-0.25
-0.48
-0.84
-1.13
-1.17
-0.88
-0.32
0.33
0.87
1.13
1.08
0.77
0.31
-0.13
-0.44
-0.55
-0.48
-0.29
-0.09
0.07
0.18
0.25
0.29
0.27
0.13
-0.16
-0.55
-0.94
-1.18
-1.19
-0.97
-0.65
-0.38
-0.27
-0.35
-0.52
-0.64
-0.66
-0.58
-0.49
-0.50
-0.67
-0.94
-1.22
-1.40
-1.43
-1.33
-1.17
-1.06
-1.02
-1.01
-0.95
-0.76
-0.45
-0.09
0.19
0.31
0.23
0.06
-0.12
-0.21
-0.19
-0.08
0.06
0.20
0.36
0.52
0.67
0.76
0.74
0.61
0.43
0.28
0.16
0.05
-0.13
-0.38
-0.62
-0.75
-0.69
-0.50
-0.36
-0.41
-0.73
-1.19
-1.58
-1.72
-1.56
-1.22
-0.90
-0.78
-0.93
-1.30
-1.74
-2.12
-2.31
-2.25
-1.93
-1.37
-0.66
0.11
0.81
1.32
1.55
1.47
1.16
0.72
0.32
0.08
0.06
0.25
0.54
0.84
1.03
1.08
1.01
0.88
0.75
0.66
0.59
0.52
0.42
0.28
0.12
-0.01
-0.09
-0.11
-0.07
0.02
0.16
0.32
0.44
0.45
0.29
-0.07
-0.58
-1.12
-1.57
-1.85
-1.94
-1.85
-1.62
-1.26
-0.80
-0.26
0.30
0.75
0.98
0.95
0.69
0.35
0.12
0.12
0.37
0.76
1.11
1.26
1.12
0.73
0.18
-0.40
-0.89
-1.23
-1.37
-1.33
-1.18
-1.04
-1.01
-1.12
-1.32
-1.49
-1.57
-1.55
-1.52
-1.54
-1.65
-1.77
-1.84
-1.81
-1.75
-1.76
-1.86
-2.03
-2.11
-2.00
-1.64
-1.12
-0.57
-0.13
0.12
0.21
0.17
0.07
-0.07
-0.25
-0.47
-0.70
-0.91
-1.08
-1.15
-1.16
-1.12
-1.08
-1.06
-1.08
-1.10
-1.04
-0.89
-0.65
-0.36
-0.12
0.00
-0.03
-0.19
-0.41
-0.58
-0.67
-0.67
-0.67
-0.77
-1.03
-1.42
-1.85
-2.18
-2.29
-2.12
-1.71
-1.20
-0.70
-0.31
-0.02
0.23
0.46
0.69
0.85
0.87
0.71
0.44
0.18
0.06
0.13
0.37
0.69
0.99
1.24
1.41
1.51
1.50
1.36
1.10
0.78
0.46
0.23
0.08
-0.01
-0.11
-0.23
-0.39
-0.54
-0.69
-0.84
-1.01
-1.20
-1.40
-1.54
-1.54
-1.36
-1.01
-0.52
0.01
0.54
1.01
1.41
1.68
1.81
1.78
1.65
1.48
1.36
1.32
1.33
1.31
1.21
1.01
0.79
0.70
0.79
1.06
1.39
1.67
1.83
1.89
1.97
2.13
2.36
2.54
2.53
2.20
1.61
0.91
0.33
0.02
-0.02
0.05
0.04
-0.18
-0.60
-1.09
-1.47
-1.58
-1.37
-0.86
-0.17
0.58
1.25
1.73
1.95
1.92
1.75
1.55
1.43
1.42
1.49
1.56
1.57
1.52
1.47
1.48
1.59
1.74
1.86
1.90
1.83
1.71
1.57
1.42
1.22
0.93
0.51
0.02
-0.42
-0.69
-0.70
-0.47
-0.11
0.19
0.27
0.05
-0.44
-1.08
-1.68
-2.11
-2.31
-2.30
-2.15
-1.92
-1.66
-1.36
-1.08
-0.88
-0.82
-0.91
-1.04
-1.04
-0.77
-0.21
0.49
1.10
1.42
1.40
1.17
0.90
0.72
0.68
0.73
0.80
0.86
0.90
0.92
0.94
0.93
0.89
0.82
0.79
0.79
0.81
0.79
0.68
0.47
0.20
-0.08
-0.32
-0.52
-0.67
-0.80
-0.88
-0.94
-1.01
-1.15
-1.37
-1.66
-1.95
-2.14
-2.19
-2.10
-1.94
-1.78
-1.61
-1.39
-1.06
-0.65
-0.24
0.07
0.22
0.24
0.23
0.25
0.32
0.35
0.28
0.12
0.00
0.07
0.36
0.79
1.16
1.31
1.19
0.92
0.66
0.53
0.57
0.69
0.85
1.02
1.18
1.31
1.29
1.02
0.48
-0.22
-0.89
-1.33
-1.46
-1.36
-1.19
-1.14
-1.27
-1.53
-1.78
-1.95
-2.01
-2.04
-2.11
-2.23
-2.33
-2.28
-2.01
-1.57
-1.15
-0.97
-1.13
-1.54
-1.93
-2.05
-1.76
-1.18
-0.55
-0.14
-0.02
-0.14
-0.30
-0.34
-0.23
-0.02
0.16
0.26
0.27
0.28
0.31
0.35
0.33
0.22
0.05
-0.09
-0.10
0.07
0.35
0.63
0.75
0.66
0.36
-0.04
-0.42
-0.70
-0.84
-0.85
-0.75
-0.58
-0.34
-0.06
0.21
0.38
0.38
0.17
-0.22
-0.72
-1.22
-1.63
-1.91
-2.08
-2.17
-2.21
-2.19
-2.10
-1.94
-1.74
-1.56
-1.45
-1.39
-1.31
-1.14
-0.83
-0.40
0.07
0.51
0.84
1.05
1.14
1.15
1.08
0.94
0.75
0.54
0.35
0.24
0.24
0.40
0.71
1.12
1.52
1.80
1.86
1.65
1.24
0.74
0.25
-0.14
-0.42
-0.59
-0.72
-0.83
-0.97
-1.12
-1.28
-1.37
-1.37
-1.28
-1.17
-1.13
-1.22
-1.43
-1.64
-1.73
-1.63
-1.37
-1.05
-0.79
-0.64
-0.56
-0.48
-0.34
-0.11
0.14
0.34
0.46
0.48
0.44
0.39
0.32
0.26
0.20
0.13
0.06
0.01
-0.03
-0.07
-0.12
-0.19
-0.26
-0.31
-0.36
-0.40
-0.49
-0.63
-0.83
-1.02
-1.15
-1.15
-1.03
-0.85
-0.72
-0.74
-0.96
-1.35
-1.83
-2.30
-2.62
-2.70
-2.49
-2.02
-1.38
-0.75
-0.30
-0.11
-0.14
-0.25
-0.27
-0.10
0.25
0.67
1.05
1.33
1.50
1.62
1.68
1.66
1.49
1.14
0.65
0.13
-0.27
-0.45
-0.40
-0.17
0.15
0.48
0.78
1.04
1.24
1.33
1.24
0.91
0.33
-0.41
-1.17
-1.77
-2.04
-1.90
-1.40
-0.72
-0.09
0.24
0.09
-0.58
-1.59
-2.62
-3.32
-3.42
-2.92
-1.99
-0.96
-0.09
0.49
0.88
1.20
1.57
1.97
2.24
2.21
1.84
1.24
0.65
0.32
0.37
0.77
1.34
1.89
2.30
2.55
2.68
2.78
2.86
2.85
2.66
2.22
1.55
0.76
0.04
-0.47
-0.64
-0.50
-0.15
0.22
0.46
0.49
0.30
-0.03
-0.38
-0.68
-0.92
-1.12
-1.32
-1.52
-1.64
-1.59
-1.28
-0.72
-0.04
0.59
1.02
1.17
1.12
1.05
1.09
1.30
1.58
1.78
1.78
1.60
1.37
1.28
1.43
1.82
2.32
2.78
3.06
3.11
2.95
2.62
2.18
1.72
1.34
1.11
1.08
1.21
1.42
1.58
1.60
1.45
1.19
0.93
0.78
0.78
0.89
1.03
1.10
1.08
1.02
1.03
1.18
1.50
1.92
2.35
2.68
2.88
2.97
2.97
2.93
2.86
2.78
2.69
2.57
2.39
2.11
1.73
1.33
0.97
0.72
0.59
0.52
0.41
0.24
0.02
-0.21
-0.42
-0.62
-0.87
-1.20
-1.58
-1.94
-2.20
-2.34
-2.38
-2.37
-2.40
-2.51
-2.67
-2.86
-3.03
-3.11
-3.07
-2.85
-2.43
-1.85
-1.18
-0.58
-0.19
-0.13
-0.44
-1.04
-1.80
-2.53
-3.07
-3.30
-3.20
-2.81
-2.25
-1.63
-1.10
-0.74
-0.60
-0.67
-0.90
-1.17
-1.37
-1.40
-1.28
-1.06
-0.86
-0.75
-0.74
-0.79
-0.82
-0.79
-0.74
-0.72
-0.77
-0.85
-0.86
-0.73
-0.42
0.00
0.42
0.75
1.02
1.29
1.61
2.00
2.35
2.51
2.38
1.92
1.26
0.60
0.11
-0.07
0.03
0.32
0.64
0.88
1.00
1.04
1.06
1.09
1.09
1.02
0.82
0.55
0.28
0.11
0.11
0.25
0.42
0.49
0.37
0.02
-0.48
-1.01
-1.42
-1.58
-1.45
-1.03
-0.43
0.23
0.81
1.26
1.52
1.64
1.66
1.63
1.58
1.51
1.45
1.41
1.44
1.54
1.71
1.90
2.02
2.03
1.92
1.73
1.50
1.29
1.07
0.82
0.54
0.29
0.15
0.19
0.42
0.71
0.93
0.95
0.71
0.25
-0.29
-0.78
-1.15
-1.34
-1.39
-1.29
-1.09
-0.79
-0.43
-0.10
0.14
0.24
0.22
0.15
0.11
0.13
0.19
0.27
0.36
0.48
0.71
1.08
1.57
2.10
2.54
2.81
2.89
2.78
2.56
2.31
2.10
1.98
1.95
1.99
2.05
2.07
2.03
1.96
1.84
1.67
1.38
0.94
0.35
-0.33
-0.97
-1.49
-1.83
-1.95
-1.88
-1.60
-1.14
-0.54
0.06
0.50
0.65
0.49
0.09
-0.40
-0.84
-1.17
-1.42
-1.64
-1.85
-2.02
-2.09
-1.97
-1.65
-1.21
-0.76
-0.44
-0.31
-0.35
-0.44
-0.50
-0.49
-0.47
-0.55
-0.79
-1.13
-1.48
-1.69
-1.70
-1.56
-1.36
-1.20
-1.10
-1.01
-0.89
-0.76
-0.70
-0.82
-1.13
-1.57
-2.02
-2.41
-2.73
-3.02
-3.33
-3.59
-3.72
-3.61
-3.26
-2.78
-2.33
-2.05
-1.97
-2.06
-2.26
-2.53
-2.86
-3.20
-3.47
-3.54
-3.27
-2.66
-1.84
-1.03
-0.46
-0.20
-0.21
-0.32
-0.39
-0.34
-0.23
-0.16
-0.18
-0.28
-0.38
-0.35
-0.13
0.30
0.87
1.50
2.08
2.53
2.79
2.86
2.83
2.82
2.96
3.35
3.99
4.76
5.46
5.90
5.99
5.79
5.44
5.18
5.16
5.43
5.92
6.47
6.92
7.14
7.06
6.72
6.22
5.66
5.13
4.64
4.16
3.61
2.92
2.12
1.25
0.41
-0.35
-1.08
-1.87
-2.80
-3.87
-4.99
-6.00
-6.78
-7.23
-7.38
-7.28
-6.97
-6.50
-5.90
-5.21
-4.51
-3.86
-3.35
-3.01
-2.83
-2.74
-2.64
-2.41
-2.00
-1.39
-0.67
0.07
0.75
1.29
1.71
1.98
2.09
2.00
1.70
1.24
0.73
0.33
0.15
0.22
0.46
0.75
0.95
0.98
0.83
0.56
0.24
-0.00
-0.09
0.06
0.49
1.18
2.04
2.95
3.73
4.23
4.36
4.13
3.63
3.04
2.55
2.28
2.26
2.37
2.42
2.22
1.70
0.93
0.09
-0.60
-1.00
-1.06
-0.84
-0.44
0.03
0.48
0.82
1.02
1.04
0.92
0.73
0.51
0.28
0.00
-0.35
-0.78
-1.23
-1.60
-1.82
-1.90
-1.91
-1.95
-2.09
-2.36
-2.72
-3.11
-3.45
-3.73
-3.93
-4.10
-4.30
-4.53
-4.79
-5.00
-5.06
-4.95
-4.67
-4.34
-4.06
-3.91
-3.90
-3.95
-3.95
-3.87
-3.72
-3.56
-3.44
-3.35
-3.24
-3.06
-2.81
-2.51
-2.23
-2.01
-1.83
-1.64
-1.44
-1.26
-1.21
-1.39
-1.78
-2.25
-2.57
-2.54
-2.08
-1.31
-0.48
0.15
0.44
0.43
0.27
0.16
0.20
0.38
0.58
0.73
0.81
0.87
1.00
1.21
1.44
1.57
1.53
1.33
1.08
0.96
1.05
1.36
1.77
2.09
2.18
1.93
1.42
0.77
0.20
-0.16
-0.26
-0.21
-0.13
-0.12
-0.19
-0.25
-0.23
-0.12
0.02
0.05
-0.06
-0.26
-0.38
-0.26
0.12
0.66
1.12
1.32
1.22
0.90
0.51
0.20
0.01
-0.06
-0.08
-0.05
0.02
0.13
0.27
0.39
0.43
0.37
0.25
0.10
-0.05
-0.23
-0.46
-0.79
-1.19
-1.60
-1.95
-2.16
-2.19
-2.03
-1.70
-1.27
-0.81
-0.43
-0.18
-0.09
-0.14
-0.28
-0.46
-0.61
-0.70
-0.65
-0.45
-0.11
0.29
0.61
0.73
0.61
0.34
0.07
-0.07
-0.05
0.06
0.14
0.10
-0.04
-0.22
-0.32
-0.31
-0.22
-0.17
-0.24
-0.47
-0.80
-1.17
-1.50
-1.77
-1.99
-2.21
-2.41
-2.58
-2.66
-2.61
-2.48
-2.34
-2.24
-2.19
-2.13
-1.96
-1.65
-1.22
-0.81
-0.55
-0.53
-0.74
-1.06
-1.41
-1.72
-1.97
-2.16
-2.25
-2.22
-2.02
-1.70
-1.34
-1.08
-1.03
-1.23
-1.69
-2.34
-3.12
-3.94
-4.70
-5.32
-5.76
-6.07
-6.32
-6.70
-7.28
-8.10
-9.11
-10.18
-11.20
-12.04
-12.60
-12.79
-12.57
-11.95
-10.99
-9.77
-8.30
-6.56
-4.50
-2.10
0.53
3.24
5.83
8.18
10.26
12.13
13.85
15.40
16.68
17.54
17.84
17.57
16.82
15.83
14.85
14.03
13.39
12.82
12.15
11.25
10.11
8.84
7.61
6.54
5.69
4.99
4.33
3.65
2.94
2.27
1.74
1.41
1.25
1.17
1.06
0.85
0.55
0.26
0.09
0.11
0.28
0.46
0.53
0.43
0.22
0.02
-0.02
0.12
0.38
0.63
0.76
0.75
0.65
0.56
0.53
0.53
0.48
0.28
-0.09
-0.56
-0.99
-1.27
-1.38
-1.36
-1.31
-1.32
-1.41
-1.56
-1.74
-1.97
-2.25
-2.57
-2.85
-2.96
-2.80
-2.33
-1.65
-0.92
-0.32
0.06
0.21
0.22
0.20
0.24
0.36
0.55
0.78
1.01
1.21
1.34
1.35
1.24
1.02
0.78
0.65
0.73
1.03
1.45
1.82
1.99
1.87
1.51
0.99
0.43
-0.11
-0.60
-1.01
-1.32
-1.50
-1.56
-1.57
-1.58
-1.67
-1.84
-2.04
-2.19
-2.21
-2.05
-1.69
-1.17
-0.57
0.01
0.45
0.69
0.69
0.50
0.20
-0.13
-0.42
-0.63
-0.72
-0.70
-0.57
-0.36
-0.15
-0.02
-0.02
-0.16
-0.41
-0.69
-0.93
-1.05
-1.02
-0.86
-0.66
-0.55
-0.59
-0.82
-1.12
-1.34
-1.36
-1.17
-0.89
-0.71
-0.77
-1.09
-1.49
-1.74
-1.67
-1.26
-0.62
0.07
0.69
1.19
1.60
1.98
2.30
2.50
2.48
2.19
1.70
1.16
0.83
0.86
1.31
2.04
2.78
3.27
3.40
3.24
3.02
2.95
3.08
3.29
3.37
3.18
2.76
2.35
2.18
2.35
2.73
3.02
2.96
2.48
1.73
1.02
0.62
0.61
0.92
1.36
1.83
2.28
2.76
3.27
3.77
4.10
4.14
3.83
3.24
2.53
1.87
1.42
1.20
1.21
1.33
1.46
1.50
1.38
1.10
0.70
0.28
-0.10
-0.41
-0.66
-0.93
-1.24
-1.61
-1.99
-2.31
-2.51
-2.62
-2.68
-2.79
-3.02
-3.35
-3.70
-3.92
-3.88
-3.55
-2.97
-2.28
-1.60
-1.01
-0.50
-0.08
0.27
0.47
0.47
0.28
0.02
-0.17
-0.17
0.02
0.30
0.47
0.45
0.24
-0.02
-0.21
-0.26
-0.19
-0.09
-0.04
-0.07
-0.14
-0.21
-0.26
-0.34
-0.50
-0.79
-1.17
-1.56
-1.86
-2.02
-2.06
-2.02
-1.95
-1.86
-1.70
-1.39
-0.91
-0.27
0.41
0.94
1.22
1.22
1.01
0.77
0.69
0.84
1.21
1.66
1.96
1.94
1.52
0.79
-0.00
-0.57
-0.68
-0.26
0.52
1.33
1.83
1.80
1.25
0.35
-0.65
-1.49
-2.02
-2.21
-2.09
-1.74
-1.30
-0.92
-0.77
-0.96
-1.51
-2.29
-3.07
-3.58
-3.66
-3.25
-2.48
-1.54
-0.67
-0.02
0.38
0.60
0.73
0.86
0.98
1.04
0.96
0.72
0.38
0.02
-0.25
-0.36
-0.31
-0.17
-0.02
0.11
0.21
0.29
0.38
0.43
0.37
0.16
-0.20
-0.63
-0.99
-1.18
-1.14
-0.94
-0.66
-0.44
-0.36
-0.50
-0.86
-1.39
-2.00
-2.55
-2.89
-2.94
-2.67
-2.14
-1.47
-0.77
-0.14
0.40
0.82
1.12
1.31
1.44
1.54
1.65
1.80
1.94
2.01
1.97
1.82
1.63
1.55
1.68
2.08
2.69
3.36
3.95
4.31
4.43
4.35
4.14
3.87
3.56
3.25
2.98
2.80
2.76
2.85
3.01
3.10
3.00
2.67
2.17
1.63
1.21
1.00
0.98
1.10
1.25
1.41
1.56
1.73
1.93
2.13
2.30
2.39
2.41
2.37
2.28
2.12
1.83
1.37
0.79
0.20
-0.25
-0.44
-0.39
-0.24
-0.17
-0.33
-0.73
-1.22
-1.62
-1.76
-1.63
-1.32
-1.03
-0.93
-1.10
-1.51
-2.05
-2.58
-3.03
-3.37
-3.64
-3.89
-4.15
-4.39
-4.54
-4.50
-4.20
-3.62
-2.83
-1.91
-1.04
-0.33
0.11
0.28
0.21
-0.01
-0.29
-0.58
-0.85
-1.06
-1.14
-1.02
-0.64
-0.04
0.66
1.26
1.60
1.62
1.39
1.08
0.84
0.77
0.82
0.88
0.81
0.56
0.15
-0.33
-0.80
-1.20
-1.49
-1.68
-1.78
-1.81
-1.82
-1.87
-2.02
-2.30
-2.67
-3.01
-3.21
-3.18
-2.87
-2.34
-1.68
-1.03
-0.47
-0.12
0.01
-0.07
-0.25
-0.42
-0.47
-0.35
-0.14
0.03
0.06
-0.10
-0.35
-0.55
-0.56
-0.32
0.11
0.60
0.98
1.16
1.09
0.81
0.39
-0.09
-0.56
-0.95
-1.22
-1.33
-1.30
-1.14
-0.93
-0.74
-0.68
-0.81
-1.12
-1.55
-1.96
-2.20
-2.19
-1.91
-1.46
-0.95
-0.49
-0.13
0.13
0.33
0.50
0.65
0.79
0.90
0.96
0.96
0.90
0.80
0.71
0.66
0.68
0.74
0.80
0.82
0.77
0.68
0.56
0.46
0.38
0.30
0.23
0.21
0.24
0.35
0.52
0.71
0.87
1.01
1.10
1.08
0.88
0.42
-0.29
-1.13
-1.89
-2.39
-2.54
-2.37
-2.03
-1.65
-1.33
-1.08
-0.81
-0.44
0.05
0.62
1.20
1.72
2.14
2.47
2.70
2.84
2.89
2.83
2.68
2.47
2.27
2.15
2.15
2.22
2.31
2.36
2.35
2.28
2.20
2.11
2.03
1.99
1.96
1.91
1.75
1.39
0.79
0.04
-0.69
-1.18
-1.29
-1.05
-0.65
-0.37
-0.39
-0.77
-1.39
-2.06
-2.62
-2.99
-3.13
-3.08
-2.85
-2.44
-1.89
-1.25
-0.62
-0.11
0.22
0.36
0.35
0.28
0.24
0.26
0.34
0.47
0.60
0.71
0.75
0.72
0.58
0.36
0.12
-0.05
-0.05
0.14
0.51
0.94
1.30
1.47
1.38
1.07
0.60
0.05
-0.55
-1.17
-1.83
-2.46
-2.99
-3.30
-3.35
-3.16
-2.85
-2.56
-2.39
-2.33
-2.29
-2.16
-1.89
-1.51
-1.15
-0.91
-0.85
-0.86
-0.80
-0.52
0.01
0.66
1.22
1.53
1.52
1.29
1.02
0.87
0.86
0.90
0.85
0.63
0.25
-0.14
-0.42
-0.54
-0.52
-0.44
-0.36
-0.27
-0.15
0.02
0.19
0.25
0.11
-0.26
-0.79
-1.38
-1.94
-2.42
-2.82
-3.07
-3.11
-2.85
-2.25
-1.45
-0.68
-0.21
-0.16
-0.46
-0.85
-1.01
-0.76
-0.15
0.59
1.18
1.41
1.26
0.86
0.40
0.03
-0.16
-0.17
-0.04
0.18
0.44
0.71
0.95
1.18
1.39
1.56
1.60
1.40
0.88
0.09
-0.81
-1.55
-1.89
-1.78
-1.34
-0.86
-0.63
-0.79
-1.32
-2.01
-2.64
-3.04
-3.16
-3.05
-2.83
-2.58
-2.35
-2.12
-1.86
-1.51
-1.04
-0.48
0.09
0.62
1.01
1.23
1.29
1.21
1.05
0.87
0.71
0.61
0.60
0.72
0.99
1.40
1.89
2.33
2.60
2.60
2.37
2.01
1.68
1.51
1.53
1.66
1.78
1.79
1.67
1.47
1.26
1.09
0.99
0.97
1.05
1.22
1.46
1.71
1.86
1.87
1.73
1.55
1.40
1.38
1.48
1.64
1.78
1.86
1.85
1.80
1.73
1.61
1.39
1.03
0.57
0.09
-0.25
-0.36
-0.19
0.20
0.69
1.12
1.38
1.39
1.17
0.76
0.24
-0.35
-0.96
-1.52
-1.99
-2.32
-2.45
-2.39
-2.16
-1.87
-1.63
-1.54
-1.61
-1.82
-2.12
-2.48
-2.90
-3.34
-3.71
-3.88
-3.70
-3.10
-2.17
-1.13
-0.22
0.34
0.53
0.42
0.18
-0.03
-0.14
-0.13
-0.01
0.16
0.37
0.61
0.90
1.24
1.60
1.93
2.14
2.16
1.95
1.54
1.05
0.63
0.39
0.38
0.51
0.66
0.70
0.53
0.15
-0.40
-0.99
-1.52
-1.87
-2.00
-1.96
-1.85
-1.78
-1.84
-2.04
-2.30
-2.50
-2.58
-2.51
-2.32
-2.04
-1.68
-1.22
-0.66
-0.07
0.47
0.87
1.07
1.07
0.91
0.68
0.46
0.32
0.26
0.23
0.16
-0.02
-0.28
-0.53
-0.64
-0.53
-0.22
0.18
0.52
0.68
0.61
0.38
0.06
-0.28
-0.61
-0.92
-1.21
-1.48
-1.70
-1.86
-1.94
-1.95
-1.89
-1.76
-1.59
-1.40
-1.23
-1.11
-1.04
-0.99
-0.89
-0.68
-0.35
0.07
0.50
0.85
1.07
1.18
1.21
1.21
1.21
1.25
1.34
1.48
1.65
1.81
1.87
1.82
1.64
1.39
1.14
0.95
0.85
0.85
0.91
1.00
1.07
1.09
1.02
0.89
0.74
0.63
0.61
0.70
0.86
0.99
1.02
0.92
0.69
0.43
0.25
0.24
0.45
0.86
1.39
1.90
2.27
2.44
2.39
2.19
1.90
1.61
1.36
1.22
1.25
1.46
1.83
2.25
2.54
2.59
2.35
1.92
1.46
1.13
0.98
0.94
0.84
0.55
0.01
-0.65
-1.27
-1.68
-1.85
-1.86
-1.86
-1.94
-2.11
-2.32
-2.51
-2.66
-2.82
-3.07
-3.42
-3.79
-4.03
-3.99
-3.56
-2.75
-1.69
-0.59
0.32
0.83
0.88
0.55
0.05
-0.36
-0.52
-0.40
-0.11
0.18
0.36
0.37
0.27
0.11
-0.03
-0.13
-0.17
-0.13
-0.03
0.07
0.13
0.11
-0.00
-0.15
-0.28
-0.35
-0.36
-0.36
-0.42
-0.59
-0.87
-1.24
-1.62
-1.96
-2.17
-2.22
-2.06
-1.73
-1.30
-0.89
-0.59
-0.41
-0.30
-0.15
0.12
0.50
0.86
1.06
0.99
0.72
0.46
0.43
0.77
1.39
2.04
2.44
2.41
1.99
1.36
0.76
0.42
0.37
0.53
0.73
0.84
0.77
0.55
0.23
-0.10
-0.42
-0.72
-1.03
-1.34
-1.64
-1.88
-2.04
-2.11
-2.15
-2.19
-2.27
-2.35
-2.36
-2.24
-1.97
-1.60
-1.20
-0.86
-0.61
-0.44
-0.32
-0.18
-0.00
0.23
0.45
0.61
0.67
0.62
0.49
0.36
0.26
0.23
0.25
0.29
0.33
0.39
0.47
0.56
0.58
0.42
0.02
-0.58
-1.24
-1.75
-1.95
-1.85
-1.59
-1.37
-1.32
-1.49
-1.75
-1.98
-2.06
-1.98
-1.82
-1.65
-1.51
-1.33
-1.03
-0.53
0.18
0.98
1.73
2.30
2.65
2.85
2.99
3.16
3.34
3.48
3.50
3.39
3.19
2.99
2.83
2.74
2.70
2.71
2.80
2.99
3.24
3.49
3.64
3.63
3.44
3.11
2.72
2.29
1.82
1.32
0.82
0.41
0.17
0.12
0.20
0.28
0.26
0.09
-0.19
-0.50
-0.73
-0.82
-0.78
-0.67
-0.52
-0.37
-0.19
0.04
0.34
0.67
0.95
1.11
1.10
0.91
0.60
0.25
-0.06
-0.28
-0.35
-0.29
-0.14
0.02
0.09
0.02
-0.22
-0.55
-0.89
-1.13
-1.24
-1.27
-1.29
-1.35
-1.44
-1.51
-1.53
-1.50
-1.49
-1.60
-1.87
-2.30
-2.79
-3.20
-3.41
-3.34
-2.99
-2.43
-1.74
-1.03
-0.38
0.12
0.43
0.51
0.40
0.21
0.09
0.20
0.58
1.20
1.86
2.39
2.65
2.63
2.37
2.00
1.58
1.18
0.84
0.62
0.58
0.71
0.92
1.05
0.96
0.60
0.08
-0.42
-0.75
-0.91
-1.03
-1.26
-1.66
-2.14
-2.54
-2.74
-2.74
-2.68
-2.69
-2.86
-3.11
-3.25
-3.14
-2.71
-2.06
-1.37
-0.80
-0.45
-0.28
-0.15
0.06
0.41
0.80
1.06
1.05
0.72
0.19
-0.27
-0.45
-0.24
0.29
0.91
1.36
1.48
1.27
0.84
0.40
0.08
-0.06
-0.05
0.01
0.07
0.06
-0.02
-0.19
-0.46
-0.78
-1.10
-1.35
-1.43
-1.32
-1.06
-0.79
-0.70
-0.89
-1.38
-2.05
-2.70
-3.15
-3.29
-3.09
-2.62
-2.01
-1.38
-0.84
-0.42
-0.10
0.17
0.43
0.70
0.95
1.15
1.26
1.30
1.33
1.42
1.59
1.82
2.02
2.11
2.06
1.92
1.77
1.66
1.61
1.59
1.56
1.50
1.43
1.42
1.52
1.70
1.89
1.98
1.92
1.71
1.43
1.19
1.08
1.12
1.26
1.40
1.47
1.40
1.20
0.96
0.78
0.77
0.95
1.28
1.68
2.03
2.26
2.33
2.27
2.11
1.89
1.63
1.38
1.20
1.17
1.30
1.55
1.82
1.95
1.83
1.48
0.98
0.52
0.25
0.24
0.46
0.74
0.90
0.84
0.51
-0.01
-0.59
-1.08
-1.41
-1.55
-1.56
-1.50
-1.44
-1.38
-1.32
-1.26
-1.26
-1.39
-1.67
-2.07
-2.46
-2.68
-2.60
-2.18
-1.51
-0.71
0.05
0.63
0.95
0.99
0.78
0.42
0.03
-0.27
-0.40
-0.36
-0.20
0.01
0.23
0.44
0.65
0.82
0.88
0.82
0.62
0.39
0.20
0.12
0.11
0.06
-0.09
-0.37
-0.71
-1.01
-1.21
-1.34
-1.46
-1.64
-1.93
-2.26
-2.54
-2.70
-2.68
-2.51
-2.24
-1.96
-1.73
-1.59
-1.56
-1.57
-1.53
-1.38
-1.08
-0.65
-0.17
0.29
0.66
0.92
1.03
0.98
0.79
0.48
0.14
-0.15
-0.32
-0.35
-0.27
-0.11
0.08
0.27
0.42
0.49
0.46
0.31
0.06
-0.23
-0.52
-0.79
-1.01
-1.19
-1.30
-1.36
-1.37
-1.39
-1.47
-1.61
-1.80
-1.96
-2.05
-2.02
-1.90
-1.70
-1.48
-1.27
-1.10
-0.99
-0.90
-0.79
-0.62
-0.38
-0.07
0.26
0.61
0.96
1.30
1.60
1.81
1.85
1.73
1.52
1.37
1.43
1.77
2.29
2.78
3.03
2.95
2.61
2.20
1.93
1.88
1.97
2.05
1.97
1.69
1.27
0.84
0.46
0.16
-0.12
-0.41
-0.72
-0.98
-1.11
-1.02
-0.69
-0.15
0.51
1.16
1.67
1.92
1.88
1.61
1.24
0.92
0.78
0.89
1.16
1.44
1.57
1.44
1.08
0.62
0.20
-0.05
-0.12
-0.04
0.10
0.24
0.33
0.33
0.20
-0.10
-0.54
-1.01
-1.36
-1.46
-1.26
-0.85
-0.43
-0.22
-0.36
-0.87
-1.60
-2.34
-2.91
-3.21
-3.25
-3.12
-2.89
-2.56
-2.14
-1.63
-1.09
-0.65
-0.42
-0.40
-0.48
-0.47
-0.26
0.15
0.66
1.10
1.38
1.46
1.40
1.23
0.98
0.70
0.46
0.38
0.55
0.91
1.29
1.47
1.33
0.88
0.30
-0.19
-0.50
-0.61
-0.62
-0.59
-0.60
-0.67
-0.85
-1.18
-1.67
-2.26
-2.83
-3.24
-3.42
-3.38
-3.20
-2.95
-2.69
-2.41
-2.10
-1.79
-1.50
-1.26
-1.08
-1.01
-1.06
-1.28
-1.61
-1.96
-2.18
-2.16
-1.90
-1.49
-1.07
-0.70
-0.39
-0.10
0.15
0.31
0.29
0.08
-0.19
-0.35
-0.23
0.18
0.73
1.20
1.40
1.30
0.96
0.52
0.10
-0.25
-0.53
-0.75
-0.94
-1.08
-1.16
-1.13
-0.99
-0.75
-0.49
-0.29
-0.23
-0.30
-0.46
-0.63
-0.74
-0.75
-0.63
-0.38
-0.01
0.44
0.91
1.32
1.60
1.72
1.74
1.70
1.66
1.62
1.59
1.54
1.46
1.34
1.20
1.01
0.77
0.53
0.34
0.26
0.30
0.39
0.44
0.38
0.24
0.09
0.01
0.03
0.09
0.09
-0.04
-0.31
-0.63
-0.89
-1.00
-0.96
-0.76
-0.44
-0.05
0.38
0.78
1.06
1.16
1.05
0.79
0.50
0.29
0.19
0.18
0.16
0.08
-0.04
-0.09
0.06
0.47
1.06
1.66
2.05
2.07
1.74
1.17
0.54
-0.01
-0.41
-0.64
-0.73
-0.67
-0.53
-0.34
-0.20
-0.17
-0.27
-0.45
-0.62
-0.72
-0.75
-0.78
-0.84
-0.94
-1.00
-0.88
-0.54
-0.02
0.51
0.83
0.82
0.50
0.03
-0.40
-0.64
-0.66
-0.56
-0.45
-0.42
-0.54
-0.82
-1.29
-1.96
-2.78
-3.66
-4.45
-5.02
-5.32
-5.43
-5.47
-5.59
-5.89
-6.41
-7.10
-7.93
-8.82
-9.71
-10.54
-11.22
-11.67
-11.82
-11.69
-11.29
-10.68
-9.86
-8.83
-7.52
-5.90
-3.92
-1.61
0.94
3.60
6.23
8.67
10.83
12.68
14.22
15.47
16.45
17.16
17.55
17.56
17.15
16.36
15.29
14.07
12.86
11.79
10.97
10.42
10.10
9.84
9.47
8.84
7.92
6.77
5.53
4.35
3.35
2.60
2.16
2.08
2.36
2.92
3.57
4.06
4.18
3.91
3.38
2.83
2.45
2.32
2.36
2.43
2.43
2.36
2.26
2.18
2.12
2.01
1.76
1.39
0.99
0.71
0.64
0.78
1.04
1.27
1.35
1.23
0.94
0.53
0.07
-0.41
-0.85
-1.22
-1.49
-1.70
-1.89
-2.18
-2.59
-3.06
-3.44
-3.53
-3.19
-2.40
-1.30
-0.12
0.92
1.66
2.05
2.17
2.11
1.99
1.84
1.65
1.39
1.01
0.53
-0.01
-0.53
-0.97
-1.24
-1.34
-1.26
-1.05
-0.77
-0.45
-0.15
0.09
0.22
0.15
-0.16
-0.74
-1.51
-2.35
-3.08
-3.60
-3.86
-3.95
-3.97
-4.02
-4.12
-4.23
-4.32
-4.41
-4.54
-4.75
-5.00
-5.15
-5.05
-4.61
-3.89
-3.11
-2.49
-2.15
-2.08
-2.11
-2.02
-1.72
-1.19
-0.57
-0.02
0.36
0.53
0.53
0.42
0.32
0.27
0.35
0.54
0.79
1.04
1.18
1.17
1.01
0.74
0.42
0.11
-0.13
-0.27
-0.30
-0.24
-0.17
-0.14
-0.22
-0.40
-0.65
-0.93
-1.20
-1.46
-1.69
-1.85
-1.90
-1.83
-1.65
-1.45
-1.28
-1.16
-1.02
-0.80
-0.45
-0.02
0.36
0.58
0.58
0.40
0.14
-0.09
-0.25
-0.32
-0.31
-0.22
-0.06
0.13
0.33
0.47
0.54
0.56
0.55
0.56
0.61
0.69
0.80
0.91
1.00
1.01
0.91
0.68
0.37
0.10
-0.06
-0.11
-0.12
-0.20
-0.38
-0.60
-0.71
-0.58
-0.22
0.24
0.61
0.76
0.70
0.54
0.42
0.39
0.43
0.42
0.28
0.02
-0.29
-0.54
-0.65
-0.64
-0.55
-0.46
-0.39
-0.34
-0.30
-0.24
-0.19
-0.19
-0.24
-0.29
-0.27
-0.14
0.09
0.30
0.35
0.16
-0.26
-0.77
-1.20
-1.40
-1.34
-1.06
-0.66
-0.25
0.07
0.22
0.16
-0.14
-0.64
-1.24
-1.76
-2.05
-2.04
-1.72
-1.23
-0.75
-0.39
-0.24
-0.27
-0.35
-0.39
-0.32
-0.15
0.04
0.18
0.22
0.21
0.19
0.17
0.11
-0.07
-0.42
-0.90
-1.38
-1.68
-1.67
-1.38
-0.93
-0.47
-0.15
-0.00
0.03
0.02
0.05
0.16
0.29
0.39
0.39
0.31
0.19
0.12
0.14
0.24
0.32
0.27
0.03
-0.36
-0.76
-1.02
-1.06
-0.93
-0.75
-0.66
-0.71
-0.84
-0.94
-0.91
-0.73
-0.47
-0.24
-0.14
-0.21
-0.36
-0.48
-0.47
-0.30
-0.04
0.16
0.17
-0.11
-0.61
-1.22
-1.77
-2.13
-2.22
-2.01
-1.55
-0.93
-0.23
0.41
0.85
0.98
0.77
0.29
-0.31
-0.84
-1.15
-1.16
-0.91
-0.53
-0.15
0.10
0.15
-0.02
-0.32
-0.68
-0.96
-1.08
-1.01
-0.81
-0.61
-0.53
-0.67
-1.00
-1.38
-1.66
-1.73
-1.59
-1.32
-1.05
-0.91
-0.91
-1.04
-1.23
-1.39
-1.51
-1.58
-1.61
-1.60
-1.55
-1.43
-1.22
-0.93
-0.62
-0.35
-0.19
-0.13
-0.13
-0.13
-0.08
0.01
0.06
0.03
-0.10
-0.26
-0.37
-0.34
-0.15
0.13
0.43
0.65
0.75
0.68
0.46
0.09
-0.36
-0.78
-1.04
-1.06
-0.85
-0.51
-0.18
0.01
0.02
-0.13
-0.36
-0.65
-0.95
-1.25
-1.47
-1.55
-1.40
-1.00
-0.42
0.22
0.80
1.19
1.35
1.29
1.12
0.95
0.91
1.07
1.40
1.77
2.00
2.00
1.77
1.41
1.08
0.88
0.83
0.84
0.82
0.75
0.65
0.57
0.54
0.54
0.50
0.37
0.15
-0.10
-0.34
-0.50
-0.59
-0.63
-0.64
-0.64
-0.60
-0.54
-0.46
-0.37
-0.30
-0.23
-0.17
-0.12
-0.12
-0.18
-0.30
-0.44
-0.53
-0.55
-0.53
-0.55
-0.69
-0.93
-1.19
-1.32
-1.22
-0.93
-0.57
-0.30
-0.25
-0.38
-0.59
-0.74
-0.78
-0.78
-0.91
-1.27
-1.86
-2.48
-2.83
-2.69
-2.01
-0.98
0.06
0.79
1.08
1.01
0.82
0.75
0.89
1.17
1.42
1.47
1.29
0.93
0.56
0.32
0.31
0.54
0.97
1.51
2.02
2.39
2.51
2.38
2.05
1.65
1.27
0.93
0.62
0.30
-0.00
-0.26
-0.43
-0.53
-0.63
-0.81
-1.05
-1.27
-1.34
-1.15
-0.76
-0.28
0.12
0.35
0.42
0.43
0.48
0.62
0.80
0.97
1.07
1.11
1.14
1.18
1.26
1.36
1.48
1.59
1.68
1.74
1.75
1.68
1.49
1.17
0.73
0.21
-0.29
-0.64
-0.76
-0.65
-0.38
-0.11
0.02
-0.06
-0.35
-0.74
-1.15
-1.48
-1.69
-1.73
-1.57
-1.20
-0.64
0.05
0.78
1.45
2.02
2.45
2.71
2.77
2.64
2.35
1.99
1.68
1.49
1.45
1.52
1.63
1.76
1.90
2.05
2.19
2.30
2.35
2.32
2.28
2.27
2.34
2.43
2.47
2.35
2.03
1.55
1.02
0.56
0.25
0.10
0.01
-0.12
-0.39
-0.78
-1.28
-1.78
-2.21
-2.53
-2.71
-2.69
-2.45
-2.00
-1.41
-0.78
-0.25
0.14
0.39
0.58
0.74
0.88
0.95
0.88
0.65
0.34
0.06
-0.07
0.01
0.27
0.62
0.96
1.21
1.35
1.39
1.35
1.28
1.20
1.11
1.04
0.97
0.94
0.97
1.07
1.18
1.22
1.11
0.77
0.27
-0.26
-0.64
-0.75
-0.62
-0.39
-0.23
-0.20
-0.25
-0.24
-0.04
0.35
0.83
1.26
1.60
1.90
2.25
2.73
3.24
3.63
3.75
3.59
3.27
2.98
2.89
3.01
3.25
3.41
3.36
3.05
2.60
2.18
1.95
2.03
2.36
2.78
3.08
3.08
2.74
2.13
1.45
0.85
0.45
0.26
0.18
0.12
-0.02
-0.31
-0.73
-1.27
-1.82
-2.28
-2.56
-2.61
-2.48
-2.23
-1.91
-1.54
-1.07
-0.46
0.28
1.02
1.63
1.94
1.91
1.59
1.14
0.73
0.51
0.51
0.73
1.07
1.42
1.69
1.85
1.89
1.85
1.78
1.70
1.62
1.49
1.32
1.09
0.83
0.55
0.26
-0.04
-0.36
-0.68
-0.98
-1.21
-1.38
-1.49
-1.59
-1.73
-1.91
-2.12
-2.32
-2.51
-2.70
-2.92
-3.14
-3.30
-3.31
-3.07
-2.58
-1.88
-1.09
-0.34
0.25
0.61
0.75
0.71
0.57
0.40
0.27
0.20
0.16
0.11
0.01
-0.17
-0.39
-0.57
-0.62
-0.50
-0.22
0.15
0.54
0.87
1.09
1.18
1.15
1.03
0.83
0.55
0.17
-0.27
-0.76
-1.23
-1.63
-1.88
-1.94
-1.83
-1.61
-1.42
-1.36
-1.50
-1.78
-2.09
-2.27
-2.22
-1.95
-1.52
-1.08
-0.71
-0.47
-0.36
-0.31
-0.29
-0.26
-0.23
-0.22
-0.25
-0.33
-0.39
-0.37
-0.21
0.06
0.37
0.62
0.74
0.73
0.67
0.64
0.66
0.71
0.74
0.70
0.64
0.60
0.61
0.61
0.51
0.22
-0.26
-0.83
-1.34
-1.64
-1.71
-1.60
-1.49
-1.49
-1.65
-1.90
-2.08
-2.04
-1.73
-1.21
-0.63
-0.14
0.15
0.22
0.11
-0.15
-0.52
-0.94
-1.35
-1.65
-1.70
-1.44
-0.84
-0.02
0.85
1.56
1.99
2.09
1.93
1.67
1.43
1.29
1.24
1.23
1.13
0.88
0.46
-0.08
-0.66
-1.19
-1.59
-1.84
-1.93
-1.88
-1.74
-1.57
-1.45
-1.43
-1.55
-1.78
-2.06
-2.32
-2.48
-2.50
-2.39
-2.16
-1.80
-1.34
-0.79
-0.22
0.24
0.48
0.46
0.24
0.02
-0.04
0.16
0.56
0.98
1.22
1.19
0.95
0.63
0.37
0.23
0.17
0.13
0.07
-0.03
-0.13
-0.19
-0.22
-0.25
-0.33
-0.47
-0.66
-0.85
-1.02
-1.15
-1.29
-1.49
-1.75
-2.07
-2.41
-2.70
-2.90
-2.95
-2.85
-2.58
-2.16
-1.62
-1.01
-0.42
0.07
0.39
0.52
0.53
0.51
0.53
0.65
0.82
1.00
1.15
1.24
1.32
1.44
1.65
1.94
2.30
2.66
2.98
3.22
3.37
3.44
3.43
3.33
3.15
2.90
2.58
2.23
1.90
1.64
1.46
1.36
1.26
1.09
0.81
0.43
0.05
-0.22
-0.32
-0.23
-0.05
0.15
0.30
0.43
0.59
0.81
1.08
1.34
1.48
1.47
1.34
1.16
0.99
0.86
0.73
0.56
0.33
0.07
-0.15
-0.29
-0.35
-0.36
-0.36
-0.35
-0.31
-0.25
-0.19
-0.20
-0.34
-0.63
-1.03
-1.46
-1.85
-2.17
-2.45
-2.70
-2.93
-3.13
-3.25
-3.22
-3.02
-2.63
-2.09
-1.50
-0.97
-0.59
-0.36
-0.20
0.01
0.39
0.91
1.47
1.86
1.95
1.69
1.19
0.66
0.30
0.18
0.29
0.46
0.56
0.50
0.29
0.01
-0.26
-0.52
-0.83
-1.27
-1.84
-2.49
-3.08
-3.50
-3.68
-3.68
-3.61
-3.56
-3.58
-3.64
-3.66
-3.56
-3.26
-2.76
-2.09
-1.35
-0.63
-0.04
0.35
0.52
0.48
0.28
-0.01
-0.34
-0.65
-0.90
-1.08
-1.18
-1.21
-1.21
-1.19
-1.17
-1.17
-1.21
-1.35
-1.59
-1.91
-2.21
-2.38
-2.34
-2.10
-1.77
-1.48
-1.31
-1.27
-1.27
-1.28
-1.30
-1.42
-1.71
-2.18
-2.71
-3.11
-3.22
-3.04
-2.63
-2.16
-1.71
-1.29
-0.83
-0.28
0.34
0.88
1.21
1.23
1.02
0.76
0.66
0.86
1.35
2.01
2.64
3.13
3.42
3.57
3.62
3.60
3.52
3.37
3.12
2.79
2.42
2.09
1.84
1.69
1.59
1.46
1.22
0.87
0.44
0.05
-0.21
-0.31
-0.29
-0.21
-0.13
-0.04
0.12
0.41
0.85
1.37
1.86
2.22
2.41
2.46
2.41
2.35
2.25
2.09
1.85
1.56
1.31
1.20
1.31
1.57
1.87
2.08
2.12
2.04
1.96
1.95
2.06
2.23
2.37
2.42
2.35
2.17
1.90
1.53
1.05
0.49
-0.11
-0.68
-1.15
-1.46
-1.60
-1.55
-1.31
-0.90
-0.37
0.22
0.81
1.35
1.83
2.23
2.56
2.78
2.86
2.82
2.65
2.39
2.09
1.74
1.36
0.95
0.57
0.31
0.25
0.42
0.77
1.15
1.39
1.38
1.09
0.60
0.06
-0.42
-0.78
-1.05
-1.28
-1.51
-1.74
-1.95
-2.12
-2.24
-2.37
-2.54
-2.74
-2.89
-2.89
-2.64
-2.15
-1.50
-0.83
-0.27
0.13
0.36
0.48
0.54
0.55
0.53
0.47
0.37
0.27
0.19
0.15
0.09
-0.02
-0.22
-0.45
-0.63
-0.66
-0.50
-0.19
0.11
0.26
0.15
-0.18
-0.59
-0.94
-1.13
-1.21
-1.28
-1.41
-1.63
-1.82
-1.88
-1.73
-1.44
-1.18
-1.08
-1.20
-1.41
-1.49
-1.30
-0.80
-0.13
0.47
0.85
0.99
0.98
0.97
1.03
1.17
1.30
1.37
1.40
1.45
1.56
1.70
1.82
1.81
1.67
1.44
1.24
1.17
1.26
1.50
1.77
2.00
2.10
2.05
1.84
1.53
1.15
0.74
0.32
-0.09
-0.49
-0.82
-1.05
-1.17
-1.22
-1.26
-1.37
-1.55
-1.76
-1.92
-1.94
-1.83
-1.66
-1.50
-1.37
-1.23
-0.98
-0.57
-0.05
0.44
0.71
0.65
0.29
-0.22
-0.63
-0.76
-0.58
-0.19
0.22
0.52
0.69
0.80
0.95
1.18
1.46
1.73
1.96
2.18
2.41
2.63
2.76
2.69
2.38
1.93
1.52
1.27
1.22
1.24
1.19
0.92
0.45
-0.13
-0.70
-1.12
-1.35
-1.34
-1.09
-0.64
-0.07
0.50
0.94
1.21
1.32
1.38
1.51
1.76
2.09
2.37
2.47
2.32
1.93
1.42
0.94
0.62
0.52
0.61
0.79
0.99
1.19
1.38
1.58
1.76
1.88
1.87
1.71
1.40
0.98
0.49
-0.03
-0.56
-1.09
-1.58
-2.00
-2.31
-2.47
-2.51
-2.44
-2.34
-2.28
-2.30
-2.39
-2.49
-2.54
-2.47
-2.28
-1.98
-1.66
-1.36
-1.12
-0.98
-0.95
-1.02
-1.18
-1.36
-1.50
-1.52
-1.39
-1.15
-0.84
-0.56
-0.35
-0.24
-0.23
-0.27
-0.32
-0.39
-0.47
-0.57
-0.68
-0.79
-0.82
-0.74
-0.54
-0.29
-0.06
0.03
-0.05
-0.29
-0.64
-1.07
-1.59
-2.22
-2.94
-3.60
-4.02
-4.01
-3.46
-2.50
-1.39
-0.47
0.06
0.19
0.11
0.07
0.22
0.52
0.81
0.92
0.81
0.57
0.40
0.46
0.79
1.28
1.75
2.02
2.02
1.77
1.40
1.04
0.76
0.59
0.46
0.29
0.05
-0.23
-0.46
-0.56
-0.49
-0.27
0.02
0.26
0.35
0.26
0.01
-0.35
-0.75
-1.13
-1.46
-1.70
-1.85
-1.89
-1.83
-1.68
-1.48
-1.27
-1.08
-0.89
-0.66
-0.39
-0.11
0.09
0.11
-0.07
-0.36
-0.61
-0.68
-0.55
-0.29
-0.03
0.15
0.26
0.38
0.54
0.71
0.80
0.72
0.47
0.15
-0.08
-0.10
0.10
0.39
0.60
0.60
0.38
0.04
-0.27
-0.42
-0.38
-0.22
-0.07
-0.05
-0.24
-0.61
-1.05
-1.44
-1.68
-1.73
-1.61
-1.36
-1.01
-0.56
0.01
0.69
1.38
1.99
2.37
2.48
2.33
2.00
1.61
1.25
0.97
0.82
0.82
0.99
1.30
1.65
1.95
2.11
2.10
1.97
1.76
1.55
1.34
1.14
0.94
0.72
0.50
0.29
0.11
-0.05
-0.20
-0.35
-0.52
-0.73
-0.95
-1.18
-1.36
-1.45
-1.43
-1.29
-1.07
-0.81
-0.59
-0.45
-0.44
-0.56
-0.77
-1.00
-1.15
-1.17
-1.04
-0.82
-0.56
-0.30
-0.02
0.29
0.67
1.07
1.44
1.70
1.78
1.68
1.42
1.07
0.72
0.43
0.24
0.14
0.07
-0.01
-0.12
-0.27
-0.43
-0.55
-0.62
-0.64
-0.64
-0.64
-0.65
-0.67
-0.72
-0.84
-1.05
-1.34
-1.64
-1.80
-1.71
-1.33
-0.73
-0.07
0.48
0.77
0.73
0.40
-0.13
-0.71
-1.16
-1.38
-1.31
-1.00
-0.59
-0.22
-0.01
0.02
-0.08
-0.20
-0.26
-0.22
-0.10
0.06
0.21
0.31
0.30
0.17
-0.08
-0.41
-0.72
-0.89
-0.83
-0.57
-0.21
0.08
0.12
-0.18
-0.77
-1.52
-2.21
-2.64
-2.68
-2.34
-1.67
-0.85
-0.03
0.63
1.01
1.09
0.87
0.49
0.05
-0.30
-0.46
-0.39
-0.14
0.21
0.54
0.78
0.91
0.94
0.90
0.80
0.66
0.47
0.23
-0.07
-0.40
-0.70
-0.87
-0.82
-0.51
0.01
0.60
1.05
1.19
0.91
0.25
-0.61
-1.41
-1.92
-2.01
-1.68
-1.08
-0.39
0.19
0.56
0.74
0.82
0.90
1.03
1.20
1.34
1.39
1.37
1.32
1.29
1.28
1.23
1.09
0.85
0.58
0.39
0.37
0.53
0.78
0.99
1.06
0.97
0.75
0.46
0.15
-0.18
-0.56
-0.99
-1.42
-1.79
-2.00
-1.99
-1.78
-1.43
-1.05
-0.72
-0.44
-0.16
0.16
0.51
0.80
0.92
0.80
0.49
0.14
-0.03
0.15
0.69
1.42
2.13
2.56
2.63
2.37
1.93
1.48
1.14
0.93
0.82
0.75
0.71
0.70
0.73
0.81
0.93
1.06
1.12
1.06
0.84
0.43
-0.15
-0.80
-1.38
-1.74
-1.80
-1.59
-1.30
-1.12
-1.22
-1.61
-2.15
-2.61
-2.80
-2.63
-2.13
-1.45
-0.72
-0.07
0.42
0.74
0.87
0.83
0.65
0.40
0.13
-0.06
-0.12
-0.04
0.13
0.32
0.44
0.44
0.33
0.16
-0.02
-0.16
-0.21
-0.17
-0.05
0.07
0.08
-0.15
-0.67
-1.44
-2.27
-2.93
-3.24
-3.12
-2.67
-2.09
-1.53
-1.08
-0.72
-0.36
0.04
0.46
0.82
1.02
0.98
0.76
0.49
0.29
0.29
0.46
0.72
0.92
0.95
0.81
0.57
0.35
0.26
0.32
0.47
0.61
0.62
0.47
0.17
-0.17
-0.44
-0.56
-0.50
-0.31
-0.05
0.18
0.27
0.17
-0.15
-0.65
-1.22
-1.76
-2.16
-2.37
-2.36
-2.15
-1.77
-1.25
-0.66
-0.08
0.40
0.71
0.88
1.01
1.16
1.33
1.42
1.32
0.93
0.30
-0.40
-0.93
-1.13
-0.95
-0.51
-0.00
0.42
0.67
0.75
0.72
0.63
0.50
0.35
0.18
0.04
-0.05
-0.11
-0.18
-0.39
-0.81
-1.46
-2.22
-2.88
-3.28
-3.32
-3.05
-2.56
-1.97
-1.34
-0.68
-0.02
0.60
1.11
1.47
1.68
1.79
1.87
1.92
1.92
1.81
1.59
1.33
1.14
1.13
1.33
1.70
2.15
2.56
2.82
2.85
2.65
2.26
1.80
1.39
1.14
1.09
1.19
1.34
1.40
1.30
1.02
0.64
0.26
-0.02
-0.13
-0.03
0.24
0.68
1.22
1.82
2.41
2.88
3.14
3.16
2.97
2.70
2.47
2.39
2.46
2.54
2.46
2.14
1.57
0.91
0.36
0.05
-0.01
0.05
0.10
0.05
-0.09
-0.23
-0.33
-0.42
-0.60
-0.95
-1.44
-1.96
-2.29
-2.28
-1.94
-1.45
-1.06
-1.01
-1.37
-2.02
-2.69
-3.09
-3.04
-2.55
-1.80
-1.05
-0.51
-0.23
-0.16
-0.17
-0.15
-0.06
0.04
0.07
-0.01
-0.20
-0.41
-0.55
-0.58
-0.50
-0.38
-0.28
-0.24
-0.24
-0.20
-0.05
0.23
0.59
0.93
1.14
1.16
1.01
0.74
0.39
-0.02
-0.48
-0.96
-1.43
-1.83
-2.13
-2.31
-2.40
-2.39
-2.29
-2.10
-1.82
-1.46
-1.05
-0.62
-0.19
0.15
0.35
0.39
0.29
0.16
0.11
0.21
0.43
0.68
0.81
0.73
0.47
0.14
-0.13
-0.25
-0.23
-0.15
-0.08
-0.07
-0.10
-0.12
-0.08
-0.01
0.05
0.04
-0.08
-0.26
-0.42
-0.46
-0.33
-0.07
0.23
0.41
0.37
0.07
-0.48
-1.11
-1.68
-2.02
-2.06
-1.81
-1.39
-0.91
-0.47
-0.12
0.16
0.43
0.71
0.99
1.25
1.44
1.54
1.55
1.47
1.29
1.04
0.74
0.46
0.27
0.25
0.41
0.71
1.05
1.34
1.49
1.50
1.37
1.14
0.86
0.63
0.55
0.71
1.09
1.59
2.00
2.11
1.81
1.14
0.31
-0.44
-0.87
-0.91
-0.65
-0.26
0.09
0.35
0.56
0.82
1.21
1.70
2.21
2.59
2.76
2.76
2.70
2.71
2.84
3.05
3.21
3.20
2.99
2.60
2.15
1.72
1.38
1.12
0.94
0.78
0.62
0.43
0.19
-0.12
-0.49
-0.89
-1.24
-1.46
-1.48
-1.32
-1.04
-0.77
-0.63
-0.69
-0.96
-1.37
-1.80
-2.15
-2.33
-2.30
-2.07
-1.68
-1.20
-0.74
-0.40
-0.23
-0.27
-0.46
-0.70
-0.86
-0.87
-0.70
-0.45
-0.20
-0.11
-0.24
-0.59
-1.08
-1.56
-1.87
-1.93
-1.73
-1.34
-0.87
-0.41
-0.07
0.12
0.11
-0.11
-0.51
-1.03
-1.58
-1.99
-2.16
-2.00
-1.58
-1.09
-0.73
-0.69
-1.00
-1.58
-2.29
-2.98
-3.54
-3.89
-3.98
-3.77
-3.30
-2.66
-2.01
-1.52
-1.25
-1.17
-1.13
-0.98
-0.66
-0.25
0.14
0.38
0.45
0.39
0.25
0.08
-0.13
-0.36
-0.51
-0.51
-0.29
0.10
0.49
0.71
0.63
0.29
-0.16
-0.54
-0.71
-0.69
-0.59
-0.53
-0.61
-0.82
-1.05
-1.20
-1.18
-0.98
-0.70
-0.47
-0.43
-0.61
-0.94
-1.23
-1.30
-1.03
-0.46
0.23
0.88
1.37
1.70
1.94
2.18
2.42
2.62
2.71
2.66
2.52
2.37
2.29
2.28
2.29
2.28
2.20
2.05
1.82
1.53
1.18
0.80
0.47
0.29
0.32
0.57
0.93
1.23
1.37
1.31
1.09
0.84
0.61
0.44
0.30
0.14
-0.03
-0.18
-0.23
-0.15
0.05
0.33
0.63
0.90
1.17
1.44
1.71
1.96
2.14
2.20
2.12
1.90
1.57
1.17
0.72
0.27
-0.17
-0.51
-0.73
-0.80
-0.77
-0.72
-0.70
-0.74
-0.79
-0.81
-0.75
-0.64
-0.52
-0.48
-0.58
-0.80
-1.11
-1.47
-1.86
-2.28
-2.73
-3.14
-3.41
-3.47
-3.31
-2.98
-2.58
-2.17
-1.77
-1.34
-0.88
-0.44
-0.12
-0.03
-0.15
-0.36
-0.47
-0.37
-0.04
0.35
0.65
0.72
0.62
0.48
0.45
0.56
0.73
0.74
0.47
-0.07
-0.70
-1.14
-1.21
-0.91
-0.46
-0.14
-0.17
-0.52
-1.02
-1.46
-1.71
-1.82
-1.95
-2.20
-2.52
-2.77
-2.79
-2.51
-2.05
-1.58
-1.27
-1.13
-1.07
-0.94
-0.63
-0.17
0.35
0.81
1.14
1.33
1.41
1.43
1.41
1.37
1.32
1.24
1.13
0.99
0.86
0.81
0.87
1.06
1.31
1.50
1.49
1.23
0.77
0.28
-0.03
-0.05
0.23
0.62
0.90
0.91
0.61
0.11
-0.41
-0.79
-0.95
-0.90
-0.69
-0.42
-0.13
0.12
0.30
0.42
0.50
0.55
0.63
0.75
0.92
1.09
1.21
1.28
1.29
1.25
1.20
1.13
1.05
0.99
0.95
0.92
0.91
0.91
0.92
0.96
0.98
0.92
0.70
0.28
-0.27
-0.80
-1.13
-1.17
-0.96
-0.64
-0.38
-0.30
-0.38
-0.55
-0.72
-0.83
-0.83
-0.70
-0.37
0.15
0.81
1.46
1.91
2.03
1.80
1.37
0.93
0.65
0.59
0.74
1.00
1.30
1.60
1.86
2.00
1.93
1.57
0.96
0.22
-0.42
-0.76
-0.71
-0.33
0.16
0.55
0.67
0.49
0.09
-0.39
-0.82
-1.08
-1.12
-0.94
-0.56
-0.04
0.52
1.00
1.36
1.58
1.73
1.90
2.15
2.48
2.80
3.03
3.11
3.04
2.85
2.58
2.26
1.89
1.46
1.04
0.70
0.52
0.51
0.66
0.87
1.07
1.22
1.28
1.23
1.06
0.79
0.44
0.10
-0.15
-0.27
-0.27
-0.24
-0.23
-0.29
-0.40
-0.49
-0.51
-0.48
-0.45
-0.48
-0.57
-0.66
-0.68
-0.58
-0.36
-0.11
0.08
0.14
0.08
-0.03
-0.11
-0.14
-0.14
-0.20
-0.37
-0.64
-0.96
-1.22
-1.33
-1.27
-1.08
-0.85
-0.66
-0.59
-0.64
-0.75
-0.86
-0.94
-0.97
-1.05
-1.21
-1.51
-1.88
-2.26
-2.51
-2.55
-2.38
-2.05
-1.66
-1.30
-1.04
-0.89
-0.81
-0.73
-0.60
-0.42
-0.20
0.00
0.12
0.12
0.02
-0.12
-0.26
-0.35
-0.40
-0.46
-0.55
-0.68
-0.81
-0.91
-0.92
-0.84
-0.71
-0.57
-0.45
-0.38
-0.33
-0.26
-0.21
-0.20
-0.33
-0.67
-1.18
-1.74
-2.18
-2.40
-2.37
-2.20
-2.04
-1.97
-1.98
-1.96
-1.80
-1.45
-0.96
-0.44
0.01
0.33
0.53
0.61
0.60
0.45
0.15
-0.25
-0.66
-0.95
-1.00
-0.78
-0.34
0.24
0.79
1.20
1.36
1.23
0.86
0.40
0.00
-0.20
-0.17
0.03
0.26
0.40
0.40
0.30
0.21
0.18
0.20
0.17
0.01
-0.29
-0.67
-0.99
-1.17
-1.18
-1.07
-0.90
-0.68
-0.40
-0.00
0.49
0.98
1.33
1.40
1.20
0.85
0.54
0.40
0.49
0.69
0.91
1.05
1.12
1.18
1.28
1.46
1.64
1.76
1.75
1.61
1.41
1.25
1.23
1.33
1.48
1.55
1.48
1.28
1.04
0.88
0.87
0.95
1.04
0.99
0.79
0.47
0.14
-0.09
-0.17
-0.09
0.15
0.53
1.02
1.53
1.96
2.19
2.15
1.86
1.42
1.00
0.72
0.68
0.86
1.15
1.40
1.45
1.23
0.76
0.20
-0.26
-0.48
-0.41
-0.10
0.33
0.75
1.06
1.17
1.04
0.66
0.08
-0.60
-1.27
-1.84
-2.27
-2.56
-2.76
-2.87
-2.91
-2.87
-2.76
-2.62
-2.47
-2.31
-2.08
-1.72
-1.21
-0.61
-0.04
0.41
0.64
0.67
0.61
0.57
0.63
0.80
0.99
1.08
0.93
0.52
-0.07
-0.69
-1.18
-1.47
-1.58
-1.60
-1.62
-1.70
-1.80
-1.88
-1.88
-1.79
-1.63
-1.46
-1.31
-1.21
-1.21
-1.30
-1.47
-1.69
-1.90
-2.02
-2.02
-1.88
-1.62
-1.29
-0.99
-0.76
-0.66
-0.68
-0.78
-0.87
-0.86
-0.73
-0.49
-0.21
0.03
0.20
0.33
0.47
0.66
0.92
1.20
1.42
1.53
1.50
1.34
1.08
0.78
0.48
0.24
0.08
0.02
0.02
0.05
0.07
0.06
0.05
0.05
0.00
-0.13
-0.44
-0.90
-1.44
-1.88
-2.04
-1.84
-1.34
-0.72
-0.21
0.09
0.20
0.23
0.32
0.54
0.86
1.20
1.44
1.51
1.40
1.14
0.80
0.49
0.34
0.44
0.79
1.30
1.81
2.15
2.22
2.05
1.78
1.58
1.54
1.67
1.89
2.07
2.10
1.97
1.75
1.56
1.52
1.63
1.85
2.02
2.02
1.79
1.42
1.05
0.88
1.00
1.39
1.94
2.49
2.94
3.27
3.48
3.59
3.60
3.49
3.28
3.00
2.75
2.57
2.47
2.40
2.32
2.21
2.11
2.07
2.11
2.15
2.09
1.83
1.35
0.70
-0.02
-0.73
-1.40
-2.01
-2.53
-2.96
-3.27
-3.45
-3.51
-3.45
-3.24
-2.86
-2.28
-1.56
-0.81
-0.17
0.24
0.36
0.25
0.05
-0.12
-0.20
-0.23
-0.26
-0.39
-0.59
-0.80
-0.90
-0.81
-0.52
-0.10
0.32
0.63
0.78
0.81
0.77
0.70
0.60
0.43
0.18
-0.13
-0.45
-0.71
-0.89
-0.97
-1.01
-1.06
-1.16
-1.28
-1.41
-1.49
-1.50
-1.45
-1.36
-1.24
-1.06
-0.81
-0.46
-0.06
0.28
0.47
0.45
0.27
0.03
-0.14
-0.17
-0.08
0.06
0.15
0.12
-0.06
-0.34
-0.68
-0.96
-1.08
-0.97
-0.61
-0.14
0.26
0.40
0.24
-0.14
-0.58
-0.88
-1.00
-1.00
-1.02
-1.15
-1.39
-1.65
-1.83
-1.88
-1.78
-1.58
-1.30
-1.01
-0.78
-0.67
-0.70
-0.83
-0.90
-0.80
-0.49
-0.07
0.28
0.42
0.35
0.20
0.14
0.25
0.43
0.52
0.42
0.18
-0.01
0.04
0.39
0.88
1.28
1.35
1.05
0.53
0.02
-0.28
-0.33
-0.23
-0.16
-0.22
-0.42
-0.66
-0.82
-0.86
-0.86
-0.92
-1.10
-1.36
-1.53
-1.43
-0.96
-0.20
0.67
1.44
1.97
2.28
2.51
2.76
3.08
3.42
3.67
3.73
3.63
3.46
3.36
3.39
3.52
3.66
3.69
3.56
3.36
3.24
3.30
3.56
3.90
4.10
4.02
3.62
3.02
2.39
1.87
1.51
1.24
0.99
0.70
0.34
-0.08
-0.53
-0.95
-1.31
-1.55
-1.67
-1.68
-1.62
-1.52
-1.40
-1.26
-1.11
-0.98
-0.93
-0.99
-1.16
-1.41
-1.70
-2.02
-2.38
-2.78
-3.18
-3.48
-3.58
-3.44
-3.09
-2.66
-2.26
-1.92
-1.65
-1.43
-1.27
-1.23
-1.35
-1.59
-1.85
-1.99
-1.91
-1.65
-1.32
-1.07
-1.01
-1.13
-1.36
-1.59
-1.80
-1.97
-2.14
-2.34
-2.54
-2.67
-2.66
-2.48
-2.13
-1.67
-1.21
-0.82
-0.57
-0.47
-0.52
-0.70
-0.97
-1.30
-1.62
-1.85
-1.95
-1.87
-1.65
-1.37
-1.12
-0.95
-0.86
-0.80
-0.70
-0.58
-0.48
-0.46
-0.54
-0.70
-0.85
-0.93
-0.89
-0.79
-0.69
-0.65
-0.69
-0.75
-0.74
-0.60
-0.33
-0.00
0.28
0.39
0.26
-0.12
-0.67
-1.25
-1.71
-1.94
-1.91
-1.67
-1.33
-1.01
-0.77
-0.63
-0.52
-0.36
-0.11
0.17
0.41
0.51
0.41
0.17
-0.11
-0.31
-0.34
-0.19
0.08
0.38
0.62
0.77
0.86
0.91
0.95
0.96
0.88
0.65
0.28
-0.16
-0.53
-0.75
-0.78
-0.72
-0.70
-0.80
-1.03
-1.30
-1.50
-1.61
-1.66
-1.73
-1.88
-2.05
-2.11
-1.95
-1.48
-0.76
0.07
0.82
1.32
1.49
1.40
1.18
1.00
0.98
1.15
1.47
1.85
2.23
2.57
2.88
3.16
3.37
3.47
3.43
3.30
3.16
3.10
3.17
3.32
3.48
3.56
3.53
3.40
3.21
3.01
2.83
2.65
2.46
2.23
1.98
1.72
1.48
1.26
1.06
0.87
0.70
0.56
0.46
0.39
0.33
0.23
0.11
0.01
-0.05
-0.04
-0.01
-0.02
-0.15
-0.40
-0.73
-1.04
-1.26
-1.36
-1.34
-1.25
-1.13
-0.99
-0.88
-0.87
-1.03
-1.37
-1.85
-2.37
-2.78
-3.00
-2.98
-2.75
-2.43
-2.14
-1.98
-2.00
-2.20
-2.52
-2.84
-3.04
-3.03
-2.82
-2.44
-2.00
-1.55
-1.12
-0.67
-0.19
0.29
0.63
0.67
0.32
-0.37
-1.19
-1.79
-1.94
-1.56
-0.83
-0.06
0.49
0.74
0.78
0.80
0.92
1.10
1.16
0.95
0.48
-0.11
-0.59
-0.81
-0.73
-0.50
-0.26
-0.14
-0.13
-0.19
-0.28
-0.40
-0.58
-0.84
-1.14
-1.41
-1.58
-1.65
-1.60
-1.46
-1.23
-0.92
-0.55
-0.19
0.06
0.13
-0.00
-0.26
-0.50
-0.60
-0.49
-0.19
0.19
0.52
0.69
0.66
0.48
0.25
0.07
-0.01
0.01
0.09
0.20
0.32
0.46
0.65
0.87
1.08
1.23
1.28
1.21
1.02
0.74
0.39
-0.01
-0.41
-0.78
-1.08
-1.23
-1.19
-0.95
-0.52
-0.00
0.48
0.80
0.89
0.78
0.61
0.53
0.65
0.95
1.29
1.48
1.41
1.12
0.80
0.66
0.87
1.37
1.97
2.45
2.66
2.60
2.37
2.15
2.02
2.02
2.10
2.22
2.31
2.33
2.25
2.04
1.71
1.26
0.76
0.29
-0.06
-0.20
-0.08
0.32
0.93
1.61
2.19
2.55
2.66
2.62
2.59
2.68
2.95
3.31
3.64
3.84
3.88
3.79
3.62
3.38
3.09
2.74
2.36
2.00
1.70
1.42
1.15
0.86
0.58
0.38
0.31
0.32
0.30
0.13
-0.27
-0.82
-1.38
-1.82
-2.10
-2.27
-2.44
-2.68
-2.97
-3.22
-3.30
-3.16
-2.79
-2.28
-1.72
-1.23
-0.85
-0.58
-0.35
-0.11
0.17
0.42
0.53
0.45
0.17
-0.17
-0.42
-0.46
-0.29
-0.02
0.18
0.20
0.00
-0.33
-0.69
-0.95
-1.05
-1.00
-0.85
-0.72
-0.68
-0.77
-0.99
-1.30
-1.63
-1.99
-2.39
-2.84
-3.30
-3.68
-3.81
-3.57
-2.93
-2.00
-1.05
-0.34
-0.05
-0.17
-0.54
-0.90
-1.04
-0.91
-0.61
-0.28
-0.05
0.06
0.10
0.15
0.20
0.21
0.13
-0.04
-0.23
-0.33
-0.28
-0.10
0.14
0.34
0.44
0.44
0.35
0.17
-0.10
-0.47
-0.91
-1.36
-1.75
-2.06
-2.26
-2.39
-2.47
-2.50
-2.47
-2.37
-2.20
-1.93
-1.57
-1.11
-0.58
-0.05
0.38
0.61
0.62
0.43
0.19
0.02
0.01
0.16
0.39
0.60
0.72
0.76
0.76
0.76
0.76
0.72
0.58
0.32
-0.03
-0.35
-0.56
-0.59
-0.46
-0.29
-0.22
-0.35
-0.69
-1.17
-1.63
-1.97
-2.12
-2.09
-1.93
-1.70
-1.40
-1.01
-0.53
0.01
0.51
0.90
1.13
1.23
1.26
1.28
1.32
1.33
1.30
1.20
1.07
0.95
0.92
1.00
1.21
1.51
1.87
2.22
2.54
2.80
2.97
3.07
3.10
3.06
2.96
2.80
2.60
2.35
2.03
1.59
1.00
0.27
-0.52
-1.19
-1.57
-1.52
-1.05
-0.26
0.66
1.55
2.32
2.94
3.40
3.68
3.76
3.66
3.44
3.24
3.15
3.21
3.37
3.51
3.56
3.50
3.37
3.21
3.06
2.88
2.63
2.31
1.93
1.53
1.13
0.71
0.28
-0.18
-0.62
-0.99
-1.22
-1.29
-1.25
-1.21
-1.29
-1.60
-2.13
-2.72
-3.13
-3.16
-2.71
-1.91
-1.03
-0.38
-0.15
-0.31
-0.67
-0.98
-1.05
-0.85
-0.47
-0.06
0.24
0.37
0.33
0.16
-0.10
-0.44
-0.83
-1.28
-1.74
-2.13
-2.39
-2.42
-2.23
-1.85
-1.38
-0.96
-0.67
-0.58
-0.67
-0.87
-1.11
-1.35
-1.58
-1.82
-2.07
-2.34
-2.58
-2.76
-2.81
-2.68
-2.33
-1.77
-1.09
-0.45
-0.01
0.12
0.01
-0.18
-0.23
-0.04
0.36
0.78
1.05
1.13
1.07
1.01
1.03
1.11
1.15
1.10
0.96
0.78
0.66
0.60
0.57
0.52
0.43
0.33
0.26
0.24
0.25
0.22
0.10
-0.12
-0.44
-0.86
-1.32
-1.77
-2.13
-2.32
-2.28
-2.05
-1.66
-1.21
-0.76
-0.35
-0.01
0.21
0.30
0.25
0.11
-0.05
-0.13
-0.10
0.06
0.29
0.57
0.87
1.15
1.39
1.54
1.59
1.51
1.34
1.11
0.84
0.57
0.31
0.11
0.03
0.12
0.35
0.65
0.93
1.09
1.12
1.03
0.84
0.58
0.24
-0.17
-0.65
-1.11
-1.46
-1.56
-1.34
-0.79
-0.02
0.78
1.43
1.82
1.95
1.94
1.92
1.97
2.08
2.13
2.05
1.81
1.52
1.34
1.39
1.69
2.14
2.58
2.86
2.92
2.80
2.59
2.40
2.30
2.30
2.35
2.38
2.33
2.14
1.82
1.39
0.91
0.44
0.04
-0.28
-0.54
-0.79
-1.08
-1.41
-1.75
-2.04
-2.24
-2.29
-2.19
-1.94
-1.56
-1.06
-0.50
0.04
0.48
0.72
0.72
0.47
0.05
-0.40
-0.74
-0.89
-0.82
-0.61
-0.37
-0.23
-0.21
-0.28
-0.34
-0.32
-0.22
-0.11
-0.11
-0.28
-0.61
-0.97
-1.24
-1.32
-1.21
-0.96
-0.70
-0.53
-0.55
-0.76
-1.13
-1.59
-2.05
-2.42
-2.68
-2.82
-2.91
-2.97
-2.97
-2.80
-2.35
-1.58
-0.61
0.33
1.02
1.34
1.31
1.07
0.77
0.51
0.27
0.02
-0.21
-0.32
-0.23
0.08
0.49
0.79
0.81
0.48
-0.10
-0.72
-1.16
-1.36
-1.35
-1.27
-1.22
-1.23
-1.23
-1.13
-0.90
-0.62
-0.46
-0.55
-0.97
-1.62
-2.32
-2.85
-3.07
-2.96
-2.57
-2.00
-1.36
-0.72
-0.15
0.27
0.51
0.61
0.66
0.79
1.10
1.54
1.95
2.11
1.90
1.31
0.53
-0.17
-0.56
-0.52
-0.09
0.58
1.28
1.83
2.10
2.07
1.79
1.41
1.06
0.80
0.63
0.49
0.33
0.16
0.03
-0.06
-0.14
-0.33
-0.73
-1.32
-1.95
-2.34
-2.22
-1.53
-0.44
0.73
1.64
2.10
2.15
1.97
1.79
1.78
1.96
2.24
2.53
2.76
2.89
2.94
2.93
2.88
2.79
2.70
2.62
2.59
2.61
2.67
2.78
2.89
2.98
2.97
2.79
2.37
1.72
0.93
0.16
-0.47
-0.88
-1.12
-1.29
-1.48
-1.73
-1.98
-2.12
-2.08
-1.83
-1.39
-0.87
-0.38
-0.03
0.13
0.08
-0.11
-0.33
-0.48
-0.51
-0.45
-0.37
-0.32
-0.34
-0.39
-0.44
-0.46
-0.45
-0.45
-0.43
-0.35
-0.14
0.21
0.64
0.99
1.12
0.96
0.54
0.00
-0.52
-0.94
-1.24
-1.45
-1.60
-1.69
-1.72
-1.71
-1.68
-1.69
-1.81
-2.00
-2.22
-2.33
-2.22
-1.85
-1.24
-0.54
0.11
0.56
0.77
0.75
0.60
0.45
0.38
0.43
0.55
0.66
0.70
0.65
0.57
0.51
0.51
0.53
0.51
0.39
0.15
-0.18
-0.50
-0.74
-0.88
-0.94
-1.00
-1.12
-1.32
-1.60
-1.90
-2.17
-2.36
-2.47
-2.54
-2.59
-2.65
-2.67
-2.54
-2.14
-1.45
-0.58
0.23
0.73
0.78
0.41
-0.14
-0.65
-0.94
-1.00
-0.91
-0.81
-0.74
-0.71
-0.66
-0.56
-0.45
-0.35
-0.31
-0.32
-0.34
-0.34
-0.34
-0.38
-0.47
-0.59
-0.71
-0.79
-0.82
-0.83
-0.86
-0.95
-1.08
-1.23
-1.36
-1.42
-1.39
-1.23
-0.95
-0.58
-0.18
0.22
0.56
0.84
1.08
1.25
1.33
1.30
1.14
0.92
0.72
0.64
0.70
0.86
1.00
1.04
0.98
0.89
0.88
0.97
1.15
1.31
1.35
1.22
0.91
0.49
0.00
-0.49
-0.95
-1.35
-1.67
-1.89
-1.98
-1.93
-1.73
-1.39
-0.95
-0.49
-0.10
0.17
0.32
0.43
0.60
0.87
1.24
1.62
1.92
2.10
2.16
2.12
2.00
1.79
1.49
1.13
0.87
0.84
1.16
1.78
2.52
3.13
3.44
3.42
3.17
2.90
2.73
2.70
2.70
2.64
2.46
2.17
1.82
1.47
1.10
0.71
0.27
-0.14
-0.41
-0.41
-0.13
0.37
0.91
1.34
1.53
1.53
1.43
1.36
1.37
1.43
1.42
1.26
0.92
0.45
-0.03
-0.41
-0.65
-0.76
-0.77
-0.70
-0.60
-0.49
-0.41
-0.43
-0.56
-0.80
-1.09
-1.33
-1.47
-1.52
-1.55
-1.66
-1.85
-2.08
-2.26
-2.34
-2.36
-2.36
-2.41
-2.49
-2.52
-2.39
-2.05
-1.52
-0.93
-0.39
-0.03
0.18
0.27
0.31
0.29
0.18
-0.08
-0.47
-0.91
-1.25
-1.38
-1.28
-1.02
-0.73
-0.51
-0.39
-0.33
-0.28
-0.24
-0.22
-0.31
-0.51
-0.78
-1.03
-1.18
-1.22
-1.18
-1.13
-1.12
-1.15
-1.18
-1.18
-1.15
-1.12
-1.16
-1.30
-1.48
-1.61
-1.59
-1.34
-0.92
-0.43
-0.01
0.25
0.33
0.29
0.22
0.18
0.22
0.33
0.49
0.71
0.96
1.17
1.31
1.30
1.13
0.88
0.64
0.52
0.55
0.68
0.76
0.64
0.25
-0.37
-1.08
-1.70
-2.08
-2.18
-2.06
-1.83
-1.61
-1.47
-1.43
-1.52
-1.79
-2.23
-2.74
-3.12
-3.14
-2.62
-1.61
-0.34
0.85
1.65
1.94
1.80
1.45
1.08
0.78
0.53
0.31
0.15
0.12
0.31
0.70
1.22
1.67
1.94
1.98
1.84
1.62
1.41
1.25
1.15
1.12
1.18
1.26
1.29
1.16
0.80
0.31
-0.11
-0.23
0.06
0.62
1.15
1.32
0.97
0.19
-0.76
-1.58
-2.06
-2.19
-2.04
-1.69
-1.15
-0.44
0.41
1.28
2.00
2.44
2.54
2.42
2.24
2.17
2.31
2.61
2.98
3.28
3.43
3.42
3.32
3.24
3.22
3.25
3.27
3.22
3.06
2.84
2.63
2.45
2.29
2.11
1.89
1.61
1.32
1.06
0.85
0.67
0.50
0.30
0.05
-0.29
-0.75
-1.35
-2.04
-2.67
-3.08
-3.14
-2.81
-2.20
-1.47
-0.81
-0.31
0.00
0.18
0.27
0.31
0.30
0.23
0.08
-0.13
-0.34
-0.49
-0.51
-0.38
-0.11
0.21
0.48
0.63
0.59
0.36
-0.01
-0.47
-0.93
-1.33
-1.61
-1.73
-1.71
-1.60
-1.46
-1.35
-1.27
-1.20
-1.10
-0.99
-0.91
-0.95
-1.20
-1.67
-2.29
-2.92
-3.40
-3.62
-3.54
-3.16
-2.57
-1.84
-1.07
-0.34
0.28
0.75
1.05
1.20
1.24
1.24
1.24
1.27
1.32
1.39
1.49
1.60
1.70
1.76
1.70
1.50
1.13
0.65
0.12
-0.34
-0.64
-0.79
-0.83
-0.87
-1.00
-1.24
-1.53
-1.77
-1.85
-1.75
-1.57
-1.42
-1.44
-1.67
-2.02
-2.35
-2.50
-2.41
-2.13
-1.78
-1.47
-1.26
-1.11
-0.93
-0.66
-0.28
0.13
0.48
0.69
0.75
0.70
0.63
0.59
0.64
0.75
0.90
1.03
1.11
1.11
1.01
0.85
0.66
0.51
0.43
0.39
0.40
0.43
0.48
0.51
0.50
0.36
0.06
-0.35
-0.75
-0.99
-0.98
-0.76
-0.51
-0.40
-0.55
-0.92
-1.37
-1.74
-1.93
-1.92
-1.72
-1.33
-0.71
0.12
1.05
1.92
2.52
2.76
2.65
2.36
2.06
1.89
1.92
2.08
2.30
2.48
2.59
2.63
2.66
2.72
2.84
2.97
3.01
2.85
2.43
1.80
1.13
0.64
0.49
0.68
1.07
1.43
1.55
1.38
1.01
0.58
0.22
-0.07
-0.34
-0.68
-1.08
-1.47
-1.70
-1.68
-1.40
-0.96
-0.49
-0.10
0.18
0.38
0.56
0.76
0.97
1.15
1.23
1.21
1.06
0.81
0.49
0.15
-0.18
-0.43
-0.58
-0.64
-0.63
-0.57
-0.50
-0.43
-0.34
-0.24
-0.13
-0.08
-0.16
-0.43
-0.87
-1.37
-1.79
-2.04
-2.10
-2.10
-2.19
-2.48
-2.93
-3.36
-3.55
-3.35
-2.75
-1.94
-1.15
-0.63
-0.43
-0.50
-0.68
-0.78
-0.73
-0.55
-0.32
-0.08
0.15
0.42
0.72
0.99
1.11
0.97
0.55
-0.03
-0.56
-0.85
-0.79
-0.42
0.11
0.59
0.88
0.88
0.59
0.08
-0.52
-1.08
-1.49
-1.66
-1.63
-1.48
-1.29
-1.15
-1.08
-1.08
-1.14
-1.24
-1.40
-1.54
-1.58
-1.43
-1.05
-0.52
-0.01
0.31
0.34
0.14
-0.15
-0.36
-0.45
-0.43
-0.38
-0.32
-0.17
0.15
0.67
1.32
1.87
2.14
2.03
1.60
1.04
0.51
0.12
-0.13
-0.30
-0.44
-0.56
-0.65
-0.71
-0.74
-0.77
-0.82
-0.92
-1.07
-1.26
-1.48
-1.71
-1.91
-2.03
-2.02
-1.86
-1.55
-1.11
-0.60
-0.11
0.30
0.56
0.68
0.67
0.60
0.55
0.54
0.60
0.71
0.82
0.90
0.94
0.94
0.94
0.97
1.03
1.12
1.22
1.33
1.45
1.58
1.73
1.85
1.87
1.75
1.46
1.06
0.63
0.29
0.10
0.02
-0.02
-0.11
-0.28
-0.50
-0.66
-0.66
-0.45
-0.03
0.50
1.05
1.51
1.87
2.12
2.29
2.38
2.40
2.34
2.22
2.09
1.98
1.92
1.89
1.86
1.78
1.63
1.42
1.16
0.91
0.69
0.53
0.44
0.37
0.25
-0.01
-0.43
-0.99
-1.56
-1.99
-2.15
-2.08
-1.91
-1.79
-1.80
-1.92
-2.01
-1.95
-1.69
-1.31
-0.93
-0.65
-0.48
-0.34
-0.13
0.20
0.61
1.00
1.23
1.20
0.95
0.57
0.23
0.10
0.22
0.56
0.97
1.31
1.43
1.28
0.87
0.30
-0.28
-0.74
-0.98
-0.99
-0.84
-0.72
-0.78
-1.11
-1.69
-2.35
-2.92
-3.24
-3.28
-3.05
-2.63
-2.10
-1.52
-0.96
-0.50
-0.16
0.06
0.19
0.25
0.20
0.04
-0.26
-0.62
-0.91
-0.97
-0.73
-0.23
0.36
0.82
1.04
0.97
0.74
0.47
0.28
0.22
0.25
0.32
0.33
0.26
0.10
-0.09
-0.25
-0.33
-0.34
-0.34
-0.41
-0.63
-1.00
-1.48
-2.00
-2.47
-2.82
-2.98
-2.92
-2.62
-2.08
-1.35
-0.53
0.26
0.90
1.29
1.38
1.18
0.77
0.30
-0.07
-0.20
-0.03
0.40
0.94
1.39
1.61
1.52
1.21
0.84
0.58
0.51
0.56
0.62
0.55
0.34
0.03
-0.27
-0.48
-0.59
-0.68
-0.81
-0.98
-1.16
-1.22
-1.11
-0.82
-0.44
-0.14
-0.03
-0.17
-0.45
-0.70
-0.71
-0.37
0.27
1.01
1.64
2.03
2.22
2.35
2.53
2.78
2.97
2.95
2.63
2.09
1.54
1.23
1.27
1.64
2.20
2.75
3.14
3.32
3.31
3.16
2.93
2.66
2.36
2.02
1.63
1.20
0.77
0.41
0.17
0.07
0.07
0.05
-0.12
-0.47
-0.98
-1.50
-1.84
-1.86
-1.53
-0.92
-0.17
0.52
1.04
1.32
1.39
1.31
1.16
0.98
0.79
0.57
0.33
0.09
-0.07
-0.10
0.03
0.26
0.49
0.58
0.44
0.09
-0.37
-0.76
-0.96
-0.93
-0.78
-0.70
-0.85
-1.27
-1.85
-2.42
-2.86
-3.15
-3.40
-3.68
-3.96
-4.11
-3.97
-3.43
-2.57
-1.59
-0.72
-0.11
0.23
0.39
0.50
0.62
0.72
0.72
0.57
0.28
-0.05
-0.27
-0.29
-0.08
0.30
0.73
1.06
1.23
1.23
1.11
0.91
0.65
0.33
-0.06
-0.48
-0.88
-1.18
-1.32
-1.30
-1.16
-1.02
-1.06
-1.36
-1.92
-2.57
-3.07
-3.15
-2.69
-1.77
-0.64
0.39
1.06
1.29
1.20
1.02
0.98
1.18
1.56
1.93
2.13
2.04
1.73
1.33
1.00
0.83
0.80
0.80
0.70
0.43
0.06
-0.26
-0.38
-0.26
0.03
0.29
0.33
0.10
-0.34
-0.79
-1.10
-1.21
-1.23
-1.30
-1.51
-1.82
-2.12
-2.27
-2.23
-2.05
-1.81
-1.58
-1.35
-1.08
-0.75
-0.34
0.09
0.54
1.01
1.46
1.89
2.23
2.38
2.29
1.95
1.45
0.92
0.54
0.44
0.64
1.10
1.66
2.17
2.51
2.60
2.48
2.21
1.89
1.59
1.38
1.26
1.21
1.19
1.11
0.92
0.62
0.28
-0.03
-0.25
-0.39
-0.47
-0.53
-0.53
-0.41
-0.15
0.24
0.63
0.91
1.00
0.94
0.85
0.84
0.97
1.19
1.42
1.56
1.53
1.34
1.02
0.67
0.39
0.24
0.27
0.45
0.72
0.99
1.18
1.24
1.17
0.97
0.69
0.35
0.02
-0.24
-0.37
-0.40
-0.41
-0.49
-0.68
-0.97
-1.25
-1.44
-1.49
-1.43
-1.34
-1.27
-1.22
-1.14
-0.97
-0.70
-0.39
-0.11
0.08
0.20
0.29
0.40
0.52
0.62
0.62
0.52
0.34
0.14
-0.02
-0.07
-0.03
0.09
0.23
0.33
0.35
0.28
0.14
-0.02
-0.14
-0.17
-0.08
0.06
0.17
0.16
-0.01
-0.33
-0.69
-1.01
-1.23
-1.36
-1.45
-1.55
-1.68
-1.80
-1.87
-1.85
-1.76
-1.64
-1.52
-1.40
-1.26
-1.08
-0.83
-0.54
-0.25
0.00
0.17
0.27
0.29
0.27
0.21
0.12
0.03
-0.03
0.02
0.23
0.62
1.11
1.54
1.76
1.65
1.23
0.64
0.07
-0.33
-0.52
-0.57
-0.55
-0.53
-0.51
-0.46
-0.39
-0.34
-0.40
-0.62
-0.97
-1.30
-1.47
-1.35
-0.95
-0.37
0.18
0.54
0.63
0.52
0.36
0.30
0.44
0.73
1.05
1.25
1.27
1.14
0.93
0.77
0.69
0.68
0.61
0.40
0.02
-0.48
-0.92
-1.13
-1.05
-0.73
-0.34
-0.08
-0.08
-0.30
-0.64
-0.91
-1.06
-1.09
-1.11
-1.17
-1.25
-1.24
-1.04
-0.67
-0.22
0.17
0.44
0.60
0.73
0.86
0.96
0.94
0.75
0.42
0.10
-0.04
0.10
0.46
0.89
1.15
1.11
0.72
0.10
-0.52
-0.90
-0.88
-0.49
0.09
0.61
0.86
0.76
0.38
-0.11
-0.58
-0.99
-1.34
-1.65
-1.90
-1.99
-1.87
-1.52
-1.03
-0.58
-0.30
-0.30
-0.52
-0.81
-0.98
-0.94
-0.69
-0.36
-0.12
-0.07
-0.13
-0.17
-0.03
0.32
0.75
1.09
1.19
1.07
0.86
0.73
0.75
0.87
0.96
0.91
0.68
0.38
0.14
0.03
0.05
0.11
0.08
-0.09
-0.40
-0.74
-0.99
-1.07
-0.99
-0.87
-0.83
-0.94
-1.13
-1.26
-1.18
-0.84
-0.32
0.22
0.59
0.71
0.62
0.43
0.25
0.18
0.22
0.36
0.58
0.84
1.09
1.26
1.33
1.30
1.22
1.17
1.19
1.28
1.39
1.45
1.44
1.40
1.38
1.38
1.34
1.12
0.64
-0.09
-0.95
-1.71
-2.17
-2.25
-2.00
-1.58
-1.12
-0.70
-0.31
0.08
0.46
0.77
0.94
0.95
0.84
0.69
0.58
0.54
0.55
0.56
0.55
0.53
0.53
0.56
0.60
0.59
0.50
0.32
0.10
-0.13
-0.37
-0.62
-0.89
-1.14
-1.28
-1.27
-1.09
-0.83
-0.65
-0.67
-0.91
-1.31
-1.71
-1.96
-2.01
-1.87
-1.60
-1.27
-0.94
-0.61
-0.33
-0.14
-0.08
-0.18
-0.37
-0.55
-0.58
-0.37
0.08
0.64
1.12
1.39
1.40
1.22
0.97
0.77
0.65
0.56
0.45
0.32
0.22
0.20
0.24
0.26
0.13
-0.20
-0.68
-1.19
-1.57
-1.80
-1.94
-2.11
-2.41
-2.75
-2.97
-2.83
-2.25
-1.31
-0.29
0.45
0.72
0.51
0.03
-0.44
-0.71
-0.75
-0.67
-0.60
-0.59
-0.55
-0.36
0.03
0.53
0.96
1.15
1.07
0.81
0.56
0.48
0.57
0.73
0.77
0.58
0.16
-0.37
-0.83
-1.09
-1.10
-0.95
-0.78
-0.72
-0.81
-1.05
-1.34
-1.61
-1.79
-1.86
-1.83
-1.72
-1.48
-1.11
-0.58
0.06
0.76
1.37
1.80
1.96
1.86
1.57
1.22
0.94
0.80
0.79
0.88
0.98
1.04
1.03
0.94
0.80
0.65
0.54
0.51
0.55
0.61
0.63
0.60
0.52
0.41
0.29
0.14
-0.07
-0.33
-0.56
-0.63
-0.43
0.01
0.54
0.95
1.08
0.96
0.74
0.65
0.84
1.33
1.97
2.59
3.10
3.45
3.69
3.81
3.80
3.61
3.24
2.77
2.33
2.01
1.87
1.86
1.86
1.79
1.59
1.31
0.99
0.72
0.54
0.46
0.48
0.56
0.67
0.76
0.77
0.66
0.36
-0.11
-0.73
-1.39
-1.94
-2.23
-2.17
-1.76
-1.09
-0.35
0.28
0.68
0.80
0.70
0.46
0.17
-0.08
-0.26
-0.34
-0.35
-0.33
-0.33
-0.38
-0.46
-0.56
-0.63
-0.65
-0.66
-0.68
-0.75
-0.85
-0.95
-0.99
-0.97
-0.88
-0.81
-0.82
-0.99
-1.30
-1.67
-2.01
-2.23
-2.35
-2.45
-2.61
-2.88
-3.16
-3.33
-3.25
-2.83
-2.14
-1.31
-0.55
0.02
0.34
0.46
0.47
0.49
0.58
0.71
0.78
0.69
0.38
-0.05
-0.44
-0.58
-0.37
0.14
0.79
1.35
1.66
1.74
1.65
1.54
1.47
1.40
1.26
0.99
0.59
0.14
-0.22
-0.44
-0.55
-0.63
-0.83
-1.22
-1.75
-2.29
-2.69
-2.82
-2.66
-2.28
-1.81
-1.35
-0.93
-0.54
-0.17
0.19
0.46
0.58
0.52
0.34
0.15
0.10
0.25
0.56
0.92
1.20
1.32
1.30
1.19
1.10
1.09
1.19
1.35
1.51
1.61
1.57
1.36
0.97
0.41
-0.26
-0.91
-1.42
-1.68
-1.63
-1.31
-0.81
-0.30
0.05
0.13
-0.07
-0.48
-0.96
-1.38
-1.66
-1.76
-1.69
-1.49
-1.22
-0.92
-0.64
-0.40
-0.16
0.11
0.42
0.74
1.00
1.08
0.93
0.57
0.16
-0.12
-0.13
0.14
0.58
1.00
1.32
1.52
1.71
1.97
2.29
2.57
2.69
2.57
2.21
1.74
1.29
0.98
0.82
0.78
0.77
0.73
0.61
0.41
0.15
-0.13
-0.39
-0.62
-0.84
-1.05
-1.25
-1.40
-1.47
-1.43
-1.30
-1.13
-0.97
-0.84
-0.71
-0.52
-0.20
0.27
0.85
1.43
1.89
2.14
2.17
2.03
1.82
1.66
1.64
1.80
2.10
2.46
2.79
3.00
3.03
2.85
2.51
2.08
1.65
1.30
1.04
0.83
0.63
0.42
0.25
0.19
0.27
0.48
0.68
0.68
0.36
-0.30
-1.13
-1.89
-2.35
-2.43
-2.17
-1.72
-1.18
-0.63
-0.08
0.49
1.01
1.41
1.58
1.49
1.19
0.77
0.37
0.09
-0.04
-0.02
0.10
0.26
0.42
0.57
0.64
0.61
0.44
0.14
-0.24
-0.58
-0.76
-0.70
-0.44
-0.11
0.11
0.07
-0.28
-0.87
-1.54
-2.13
-2.51
-2.66
-2.67
-2.61
-2.58
-2.61
-2.66
-2.69
-2.66
-2.54
-2.31
-1.95
-1.47
-0.91
-0.35
0.09
0.32
0.27
0.00
-0.39
-0.77
-1.02
-1.10
-0.97
-0.69
-0.31
0.07
0.35
0.45
0.34
0.05
-0.33
-0.66
-0.84
-0.82
-0.61
-0.29
0.01
0.18
0.15
-0.07
-0.41
-0.79
-1.14
-1.43
-1.70
-1.98
-2.28
-2.57
-2.77
-2.80
-2.62
-2.26
-1.82
-1.39
-1.04
-0.77
-0.51
-0.23
0.11
0.45
0.71
0.82
0.74
0.52
0.25
0.02
-0.10
-0.08
0.05
0.23
0.43
0.59
0.65
0.58
0.37
0.05
-0.31
-0.61
-0.82
-0.92
-0.95
-0.98
-1.07
-1.25
-1.50
-1.76
-1.96
-2.08
-2.12
-2.11
-2.10
-2.07
-2.00
-1.85
-1.58
-1.26
-0.94
-0.70
-0.57
-0.51
-0.42
-0.24
0.02
0.29
0.45
0.42
0.24
-0.01
-0.18
-0.20
-0.09
0.09
0.24
0.30
0.31
0.29
0.25
0.18
0.05
-0.16
-0.37
-0.54
-0.60
-0.58
-0.55
-0.59
-0.72
-0.87
-0.95
-0.90
-0.73
-0.51
-0.30
-0.11
0.11
0.45
0.93
1.47
1.96
2.27
2.36
2.27
2.11
1.94
1.81
1.68
1.51
1.29
1.08
0.97
1.07
1.39
1.89
2.43
2.87
3.11
3.11
2.96
2.75
2.58
2.49
2.47
2.44
2.34
2.10
1.71
1.20
0.64
0.14
-0.20
-0.32
-0.22
0.04
0.39
0.77
1.19
1.68
2.26
2.87
3.37
3.63
3.60
3.34
3.00
2.74
2.61
2.53
2.40
2.11
1.72
1.36
1.20
1.31
1.61
1.91
2.02
1.84
1.41
0.91
0.48
0.21
0.04
-0.13
-0.39
-0.78
-1.24
-1.71
-2.15
-2.58
-3.02
-3.43
-3.70
-3.69
-3.28
-2.49
-1.44
-0.37
0.50
1.06
1.29
1.26
1.11
0.93
0.81
0.76
0.76
0.77
0.76
0.75
0.76
0.79
0.82
0.78
0.61
0.31
-0.05
-0.36
-0.49
-0.42
-0.19
0.06
0.19
0.07
-0.31
-0.91
-1.61
-2.28
-2.81
-3.18
-3.41
-3.53
-3.54
-3.38
-2.95
-2.24
-1.34
-0.43
0.24
0.54
0.49
0.25
0.04
-0.01
0.14
0.40
0.64
0.77
0.79
0.75
0.73
0.79
0.93
1.11
1.26
1.31
1.23
1.03
0.73
0.39
0.09
-0.13
-0.22
-0.20
-0.11
-0.02
0.00
-0.11
-0.42
-0.93
-1.58
-2.26
-2.81
-3.11
-3.08
-2.77
-2.26
-1.67
-1.08
-0.55
-0.10
0.26
0.49
0.62
0.65
0.66
0.69
0.73
0.77
0.77
0.70
0.61
0.55
0.58
0.71
0.90
1.08
1.17
1.12
0.94
0.65
0.30
-0.05
-0.33
-0.48
-0.45
-0.25
0.09
0.50
0.86
1.04
0.96
0.62
0.11
-0.39
-0.68
-0.66
-0.40
-0.09
0.02
-0.21
-0.75
-1.43
-1.98
-2.18
-2.01
-1.57
-1.03
-0.56
-0.22
-0.00
0.15
0.27
0.38
0.46
0.48
0.45
0.38
0.28
0.21
0.22
0.31
0.47
0.62
0.66
0.53
0.22
-0.16
-0.46
-0.56
-0.40
-0.04
0.40
0.78
1.01
1.05
0.98
0.87
0.79
0.73
0.66
0.52
0.29
0.03
-0.20
-0.31
-0.33
-0.37
-0.54
-0.89
-1.34
-1.71
-1.83
-1.65
-1.28
-0.93
-0.72
-0.65
-0.62
-0.49
-0.23
0.08
0.32
0.43
0.46
0.53
0.74
1.06
1.40
1.63
1.71
1.72
1.74
1.84
1.97
2.04
1.95
1.71
1.40
1.13
0.96
0.89
0.85
0.77
0.67
0.59
0.60
0.74
0.98
1.22
1.37
1.35
1.15
0.82
0.44
0.09
-0.19
-0.36
-0.44
-0.43
-0.33
-0.16
0.07
0.35
0.65
0.89
0.99
0.89
0.59
0.18
-0.21
-0.40
-0.35
-0.08
0.26
0.51
0.57
0.43
0.18
-0.09
-0.29
-0.40
-0.45
-0.49
-0.56
-0.67
-0.81
-0.98
-1.13
-1.23
-1.26
-1.23
-1.17
-1.14
-1.18
-1.31
-1.47
-1.60
-1.66
-1.67
-1.65
-1.62
-1.56
-1.40
-1.04
-0.50
0.13
0.67
0.96
0.93
0.63
0.22
-0.16
-0.38
-0.45
-0.48
-0.58
-0.84
-1.24
-1.67
-1.98
-2.01
-1.72
-1.17
-0.54
-0.03
0.22
0.18
-0.05
-0.38
-0.70
-1.01
-1.30
-1.58
-1.83
-1.99
-2.02
-1.94
-1.80
-1.69
-1.65
-1.64
-1.57
-1.35
-0.95
-0.46
0.00
0.35
0.55
0.64
0.69
0.74
0.77
0.77
0.70
0.59
0.47
0.36
0.26
0.15
0.03
-0.06
-0.09
-0.04
0.06
0.13
0.10
-0.05
-0.28
-0.52
-0.74
-0.90
-0.98
-0.97
-0.88
-0.74
-0.62
-0.60
-0.75
-1.06
-1.44
-1.79
-2.01
-2.07
-2.00
-1.83
-1.56
-1.15
-0.59
0.05
0.63
0.99
1.04
0.80
0.41
0.01
-0.29
-0.50
-0.67
-0.84
-0.98
-1.02
-0.91
-0.65
-0.32
0.02
0.27
0.42
0.48
0.45
0.38
0.28
0.21
0.19
0.24
0.28
0.25
0.10
-0.12
-0.32
-0.40
-0.40
-0.42
-0.64
-1.11
-1.73
-2.27
-2.49
-2.27
-1.68
-0.92
-0.20
0.32
0.63
0.78
0.82
0.77
0.67
0.52
0.40
0.40
0.55
0.86
1.26
1.67
2.01
2.27
2.47
2.61
2.71
2.76
2.76
2.70
2.58
2.39
2.10
1.72
1.29
0.89
0.60
0.50
0.56
0.70
0.81
0.81
0.70
0.55
0.45
0.44
0.54
0.67
0.78
0.83
0.82
0.79
0.77
0.79
0.82
0.84
0.82
0.74
0.60
0.40
0.18
-0.04
-0.19
-0.21
-0.11
0.08
0.24
0.28
0.13
-0.15
-0.46
-0.68
-0.75
-0.67
-0.54
-0.46
-0.50
-0.65
-0.88
-1.13
-1.37
-1.58
-1.75
-1.90
-2.02
-2.12
-2.20
-2.19
-2.03
-1.63
-0.99
-0.24
0.45
0.86
0.87
0.53
-0.00
-0.50
-0.81
-0.89
-0.81
-0.65
-0.49
-0.33
-0.10
0.21
0.57
0.90
1.08
1.04
0.80
0.46
0.14
-0.08
-0.20
-0.30
-0.48
-0.78
-1.19
-1.56
-1.79
-1.76
-1.47
-1.06
-0.73
-0.65
-0.84
-1.20
-1.50
-1.56
-1.30
-0.78
-0.19
0.31
0.65
0.82
0.91
0.95
0.92
0.80
0.64
0.48
0.40
0.44
0.52
0.51
0.35
0.07
-0.23
-0.40
-0.40
-0.27
-0.12
-0.05
-0.09
-0.21
-0.33
-0.42
-0.47
-0.51
-0.56
-0.63
-0.76
-0.98
-1.32
-1.77
-2.24
-2.57
-2.61
-2.28
-1.64
-0.89
-0.21
0.27
0.51
0.58
0.59
0.59
0.60
0.59
0.53
0.42
0.32
0.30
0.40
0.61
0.82
0.88
0.71
0.32
-0.14
-0.48
-0.54
-0.29
0.16
0.61
0.90
0.96
0.83
0.56
0.22
-0.17
-0.58
-0.94
-1.20
-1.33
-1.36
-1.36
-1.38
-1.37
-1.24
-0.91
-0.35
0.31
0.90
1.26
1.32
1.16
0.93
0.79
0.83
1.08
1.50
2.00
2.51
2.94
3.22
3.29
3.17
2.89
2.55
2.25
2.10
2.11
2.27
2.50
2.71
2.78
2.67
2.39
2.02
1.65
1.33
1.05
0.75
0.35
-0.14
-0.63
-0.95
-0.96
-0.62
-0.04
0.56
0.95
1.01
0.80
0.48
0.26
0.29
0.54
0.88
1.14
1.20
1.08
0.86
0.67
0.56
0.51
0.43
0.27
0.05
-0.15
-0.25
-0.21
-0.06
0.08
0.13
0.03
-0.20
-0.51
-0.84
-1.15
-1.42
-1.63
-1.74
-1.80
-1.87
-2.02
-2.28
-2.60
-2.82
-2.77
-2.34
-1.55
-0.55
0.42
1.16
1.53
1.54
1.30
0.96
0.63
0.35
0.11
-0.11
-0.32
-0.44
-0.41
-0.17
0.28
0.80
1.22
1.40
1.29
0.96
0.57
0.25
0.06
-0.05
-0.15
-0.32
-0.53
-0.70
-0.72
-0.56
-0.32
-0.16
-0.25
-0.66
-1.30
-1.96
-2.41
-2.49
-2.19
-1.64
-1.02
-0.48
-0.10
0.16
0.35
0.52
0.65
0.69
0.58
0.35
0.08
-0.06
0.01
0.31
0.74
1.17
1.48
1.63
1.66
1.63
1.57
1.45
1.21
0.81
0.29
-0.28
-0.80
-1.19
-1.45
-1.59
-1.65
-1.62
-1.50
-1.33
-1.19
-1.17
-1.33
-1.67
-2.08
-2.42
-2.56
-2.41
-2.00
-1.37
-0.64
0.08
0.68
1.12
1.36
1.46
1.50
1.52
1.54
1.50
1.34
1.03
0.67
0.43
0.49
0.89
1.53
2.20
2.65
2.76
2.55
2.19
1.87
1.70
1.66
1.64
1.52
1.26
0.86
0.41
0.02
-0.22
-0.26
-0.11
0.21
0.61
1.03
1.38
1.61
1.67
1.56
1.31
0.98
0.68
0.50
0.53
0.78
1.21
1.67
2.02
2.18
2.14
1.98
1.85
1.82
1.92
2.10
2.28
2.39
2.39
2.27
2.03
1.70
1.30
0.89
0.53
0.25
0.09
0.02
-0.01
-0.03
-0.05
-0.07
-0.11
-0.24
-0.54
-1.01
-1.62
-2.22
-2.68
-2.95
-3.06
-3.14
-3.24
-3.38
-3.42
-3.22
-2.73
-2.00
-1.22
-0.57
-0.17
-0.02
-0.01
-0.04
-0.00
0.11
0.29
0.48
0.62
0.68
0.62
0.48
0.32
0.22
0.24
0.36
0.53
0.67
0.71
0.62
0.40
0.10
-0.25
-0.58
-0.86
-1.03
-1.09
-1.03
-0.93
-0.85
-0.85
-0.95
-1.10
-1.26
-1.39
-1.51
-1.64
-1.83
-2.07
-2.32
-2.47
-2.40
-2.02
-1.36
-0.57
0.13
0.58
0.71
0.61
0.43
0.26
0.17
0.08
-0.08
-0.30
-0.56
-0.77
-0.88
-0.87
-0.77
-0.58
-0.30
0.10
0.60
1.10
1.44
1.48
1.17
0.55
-0.23
-0.98
-1.54
-1.82
-1.84
-1.67
-1.40
-1.15
-0.99
-0.98
-1.13
-1.42
-1.79
-2.15
-2.42
-2.54
-2.49
-2.24
-1.79
-1.21
-0.58
0.02
0.51
0.86
1.05
1.09
0.97
0.71
0.34
-0.05
-0.30
-0.33
-0.10
0.26
0.61
0.82
0.88
0.87
0.86
0.88
0.88
0.75
0.48
0.13
-0.13
-0.17
0.04
0.42
0.83
1.10
1.18
1.07
0.81
0.44
-0.03
-0.58
-1.15
-1.63
-1.89
-1.80
-1.38
-0.73
-0.02
0.56
0.95
1.16
1.29
1.44
1.67
1.96
2.25
2.47
2.57
2.55
2.43
2.23
2.00
1.78
1.62
1.56
1.60
1.69
1.76
1.75
1.62
1.38
1.07
0.75
0.44
0.18
-0.04
-0.20
-0.27
-0.27
-0.24
-0.24
-0.36
-0.67
-1.17
-1.80
-2.42
-2.85
-2.94
-2.64
-2.01
-1.19
-0.36
0.31
0.73
0.86
0.74
0.46
0.15
-0.06
-0.08
0.04
0.22
0.34
0.34
0.23
0.10
0.01
-0.03
-0.08
-0.21
-0.42
-0.63
-0.73
-0.68
-0.51
-0.32
-0.23
-0.28
-0.41
-0.53
-0.61
-0.66
-0.75
-0.99
-1.41
-1.98
-2.56
-3.02
-3.25
-3.26
-3.11
-2.86
-2.57
-2.21
-1.71
-1.07
-0.35
0.33
0.77
0.87
0.62
0.17
-0.26
-0.45
-0.28
0.21
0.86
1.46
1.83
1.90
1.70
1.34
0.95
0.62
0.37
0.19
0.05
-0.10
-0.24
-0.37
-0.49
-0.61
-0.75
-0.91
-1.06
-1.15
-1.16
-1.10
-1.07
-1.17
-1.47
-1.92
-2.35
-2.57
-2.41
-1.81
-0.91
0.09
0.93
1.42
1.50
1.23
0.80
0.36
0.04
-0.12
-0.14
-0.05
0.10
0.28
0.47
0.59
0.58
0.38
0.01
-0.40
-0.69
-0.73
-0.50
-0.08
0.37
0.66
0.68
0.39
-0.16
-0.84
-1.48
-1.94
-2.16
-2.21
-2.21
-2.27
-2.44
-2.65
-2.76
-2.66
-2.27
-1.64
-0.83
0.08
1.03
1.94
2.71
3.20
3.34
3.15
2.73
2.25
1.87
1.62
1.49
1.45
1.48
1.59
1.77
2.00
2.16
2.19
2.06
1.85
1.71
1.78
2.07
2.43
2.65
2.54
2.10
1.49
0.97
0.69
0.64
0.63
0.45
-0.06
-0.82
-1.63
-2.24
-2.49
-2.36
-1.90
-1.24
-0.44
0.41
1.21
1.81
2.08
1.95
1.50
0.91
0.38
0.05
-0.02
0.08
0.23
0.30
0.19
-0.11
-0.55
-1.04
-1.46
-1.71
-1.72
-1.49
-1.14
-0.78
-0.57
-0.63
-1.00
-1.63
-2.43
-3.27
-4.01
-4.51
-4.71
-4.60
-4.25
-3.78
-3.31
-2.89
-2.51
-2.12
-1.67
-1.17
-0.66
-0.17
0.26
0.63
0.97
1.30
1.61
1.90
2.12
2.24
2.19
1.94
1.50
1.00
0.60
0.48
0.72
1.23
1.84
2.33
2.58
2.55
2.31
1.94
1.49
0.97
0.42
-0.13
-0.61
-0.96
-1.23
-1.51
-1.91
-2.46
-3.08
-3.59
-3.82
-3.66
-3.13
-2.32
-1.36
-0.34
0.65
1.52
2.20
2.64
2.82
2.77
2.58
2.32
2.07
1.90
1.86
1.96
2.16
2.34
2.34
2.09
1.60
1.03
0.59
0.42
0.51
0.73
0.91
0.96
0.88
0.70
0.50
0.28
0.03
-0.28
-0.62
-0.91
-1.05
-0.93
-0.55
0.03
0.66
1.20
1.54
1.69
1.74
1.83
2.12
2.67
3.47
4.38
5.22
5.76
5.80
5.26
4.19
2.80
1.43
0.43
0.08
0.49
1.54
2.98
4.42
5.50
5.93
5.59
4.52
2.91
1.06
-0.71
-2.13
-3.07
-3.49
-3.48
-3.17
-2.69
-2.19
-1.79
-1.57
-1.55
-1.64
-1.73
-1.66
-1.31
-0.69
0.09
0.87
1.46
1.77
1.81
1.66
1.44
1.24
1.12
1.08
1.07
1.02
0.91
0.74
0.58
0.47
0.44
0.43
0.41
0.35
0.26
0.17
0.08
-0.07
-0.34
-0.79
-1.37
-1.95
-2.34
-2.43
-2.22
-1.87
-1.60
-1.56
-1.76
-2.04
-2.15
-1.86
-1.12
-0.08
0.98
1.77
2.17
2.23
2.16
2.16
2.31
2.53
2.69
2.67
2.48
2.21
1.98
1.87
1.85
1.88
1.87
1.77
1.58
1.29
0.91
0.46
-0.04
-0.53
-0.97
-1.30
-1.52
-1.63
-1.71
-1.80
-1.97
-2.26
-2.68
-3.21
-3.77
-4.24
-4.48
-4.39
-3.93
-3.15
-2.20
-1.27
-0.50
0.07
0.49
0.85
1.18
1.46
1.63
1.61
1.41
1.08
0.72
0.39
0.14
-0.04
-0.17
-0.27
-0.37
-0.49
-0.66
-0.86
-1.04
-1.09
-0.93
-0.55
-0.06
0.39
0.62
0.54
0.14
-0.50
-1.27
-2.04
-2.68
-3.04
-3.00
-2.52
-1.65
-0.56
0.52
1.39
1.92
2.11
2.04
1.81
1.52
1.20
0.86
0.50
0.15
-0.14
-0.32
-0.38
-0.33
-0.21
-0.03
0.18
0.42
0.67
0.89
1.01
1.01
0.89
0.69
0.50
0.36
0.30
0.29
0.27
0.20
0.06
-0.15
-0.43
-0.74
-1.02
-1.22
-1.30
-1.22
-1.00
-0.68
-0.32
0.02
0.32
0.56
0.75
0.89
0.96
0.95
0.85
0.74
0.67
0.71
0.89
1.15
1.38
1.44
1.28
0.90
0.41
-0.06
-0.36
-0.45
-0.33
-0.12
0.04
0.06
-0.12
-0.47
-0.88
-1.28
-1.61
-1.87
-2.07
-2.20
-2.21
-2.04
-1.65
-1.10
-0.52
-0.06
0.16
0.17
0.08
0.08
0.26
0.63
1.07
1.39
1.49
1.33
1.00
0.59
0.23
-0.03
-0.16
-0.14
0.02
0.27
0.53
0.69
0.67
0.48
0.20
-0.06
-0.19
-0.17
-0.06
0.05
0.04
-0.17
-0.56
-1.06
-1.57
-1.96
-2.16
-2.15
-1.95
-1.61
-1.15
-0.59
0.04
0.67
1.20
1.51
1.57
1.42
1.20
1.04
1.00
1.06
1.10
1.01
0.74
0.36
-0.00
-0.22
-0.23
-0.08
0.13
0.32
0.41
0.41
0.31
0.15
-0.08
-0.36
-0.69
-1.05
-1.40
-1.68
-1.86
-1.93
-1.89
-1.79
-1.64
-1.47
-1.26
-1.02
-0.73
-0.45
-0.23
-0.11
-0.08
-0.06
0.06
0.34
0.75
1.17
1.42
1.40
1.11
0.65
0.21
-0.08
-0.15
-0.01
0.26
0.59
0.89
1.05
1.04
0.85
0.54
0.24
0.05
0.02
0.12
0.21
0.14
-0.20
-0.75
-1.41
-1.97
-2.30
-2.38
-2.25
-1.99
-1.66
-1.27
-0.83
-0.35
0.10
0.45
0.64
0.68
0.59
0.46
0.35
0.32
0.37
0.50
0.68
0.84
0.91
0.84
0.65
0.38
0.15
0.01
0.03
0.16
0.34
0.52
0.64
0.66
0.58
0.36
-0.01
-0.47
-0.97
-1.37
-1.59
-1.58
-1.37
-1.07
-0.83
-0.72
-0.76
-0.89
-1.02
-1.08
-1.02
-0.84
-0.56
-0.25
0.05
0.31
0.50
0.61
0.62
0.54
0.37
0.16
0.01
0.02
0.27
0.73
1.27
1.69
1.81
1.58
1.09
0.51
-0.00
-0.37
-0.63
-0.83
-0.99
-1.14
-1.22
-1.24
-1.22
-1.21
-1.25
-1.32
-1.37
-1.34
-1.20
-0.95
-0.61
-0.20
0.25
0.68
1.04
1.25
1.27
1.09
0.73
0.22
-0.37
-0.95
-1.40
-1.63
-1.56
-1.21
-0.68
-0.10
0.37
0.62
0.61
0.41
0.12
-0.13
-0.27
-0.33
-0.37
-0.46
-0.62
-0.76
-0.79
-0.66
-0.40
-0.15
-0.05
-0.19
-0.53
-0.97
-1.35
-1.58
-1.57
-1.32
-0.82
-0.13
0.61
1.21
1.47
1.30
0.80
0.20
-0.26
-0.43
-0.32
-0.09
0.10
0.14
0.03
-0.14
-0.24
-0.22
-0.06
0.14
0.27
0.24
0.02
-0.32
-0.67
-0.92
-0.99
-0.92
-0.82
-0.77
-0.79
-0.80
-0.73
-0.53
-0.23
0.06
0.24
0.29
0.29
0.33
0.50
0.77
1.02
1.08
0.87
0.40
-0.17
-0.66
-0.91
-0.88
-0.67
-0.42
-0.26
-0.21
-0.19
-0.11
0.04
0.17
0.17
-0.07
-0.49
-0.93
-1.19
-1.16
-0.94
-0.72
-0.73
-1.04
-1.54
-1.96
-2.07
-1.77
-1.15
-0.44
0.16
0.55
0.74
0.83
0.87
0.86
0.74
0.49
0.15
-0.16
-0.28
-0.14
0.22
0.67
1.01
1.10
0.91
0.51
0.04
-0.34
-0.54
-0.48
-0.22
0.16
0.49
0.64
0.50
0.07
-0.56
-1.23
-1.77
-2.07
-2.09
-1.85
-1.41
-0.87
-0.36
0.01
0.17
0.11
-0.08
-0.25
-0.28
-0.11
0.20
0.53
0.69
0.61
0.33
0.00
-0.17
-0.07
0.31
0.83
1.28
1.47
1.33
0.89
0.28
-0.31
-0.77
-1.00
-1.01
-0.85
-0.60
-0.34
-0.17
-0.13
-0.25
-0.49
-0.79
-1.08
-1.26
-1.26
-1.01
-0.50
0.20
0.96
1.58
1.90
1.84
1.44
0.90
0.41
0.13
0.13
0.34
0.64
0.91
1.11
1.24
1.32
1.37
1.38
1.32
1.20
0.98
0.67
0.27
-0.18
-0.65
-1.05
-1.33
-1.46
-1.46
-1.35
-1.14
-0.79
-0.27
0.46
1.31
2.12
2.69
2.90
2.75
2.35
1.86
1.41
1.07
0.80
0.62
0.50
0.49
0.59
0.79
1.01
1.16
1.18
1.11
1.03
1.01
1.07
1.13
1.08
0.80
0.32
-0.26
-0.76
-1.06
-1.13
-1.08
-1.01
-0.99
-0.95
-0.77
-0.36
0.27
0.96
1.48
1.67
1.52
1.14
0.77
0.58
0.65
0.88
1.10
1.15
0.98
0.70
0.52
0.62
1.06
1.71
2.30
2.56
2.34
1.70
0.87
0.14
-0.29
-0.38
-0.25
-0.09
-0.08
-0.29
-0.67
-1.08
-1.33
-1.31
-0.99
-0.47
0.13
0.65
1.03
1.25
1.34
1.36
1.34
1.30
1.21
1.04
0.80
0.52
0.28
0.15
0.17
0.32
0.52
0.66
0.67
0.53
0.26
-0.07
-0.36
-0.54
-0.53
-0.34
-0.05
0.22
0.33
0.23
-0.08
-0.51
-0.98
-1.45
-1.89
-2.29
-2.56
-2.60
-2.33
-1.75
-0.99
-0.23
0.41
0.84
1.11
1.27
1.33
1.28
1.12
0.86
0.61
0.47
0.49
0.61
0.74
0.77
0.67
0.51
0.37
0.36
0.46
0.62
0.74
0.73
0.60
0.41
0.23
0.14
0.16
0.23
0.26
0.15
-0.14
-0.56
-1.01
-1.38
-1.63
-1.79
-1.94
-2.14
-2.36
-2.53
-2.49
-2.17
-1.58
-0.87
-0.21
0.25
0.44
0.44
0.37
0.37
0.51
0.77
1.03
1.16
1.07
0.77
0.38
0.02
-0.21
-0.30
-0.31
-0.28
-0.23
-0.14
-0.02
0.11
0.18
0.13
-0.08
-0.41
-0.76
-1.02
-1.15
-1.14
-1.07
-0.97
-0.88
-0.79
-0.68
-0.53
-0.36
-0.20
-0.11
-0.17
-0.39
-0.74
-1.11
-1.40
-1.50
-1.37
-1.04
-0.56
0.01
0.61
1.17
1.58
1.75
1.60
1.15
0.54
-0.02
-0.33
-0.33
-0.08
0.24
0.46
0.44
0.23
-0.06
-0.29
-0.36
-0.28
-0.13
-0.04
-0.07
-0.22
-0.42
-0.58
-0.64
-0.59
-0.49
-0.42
-0.42
-0.51
-0.68
-0.90
-1.15
-1.39
-1.60
-1.74
-1.77
-1.69
-1.53
-1.33
-1.09
-0.84
-0.55
-0.24
0.02
0.15
0.09
-0.11
-0.33
-0.38
-0.15
0.33
0.91
1.38
1.59
1.49
1.16
0.70
0.22
-0.19
-0.47
-0.55
-0.40
-0.05
0.35
0.63
0.61
0.28
-0.23
-0.70
-0.92
-0.84
-0.56
-0.30
-0.22
-0.38
-0.71
-1.05
-1.31
-1.45
-1.54
-1.66
-1.84
-2.07
-2.27
-2.34
-2.19
-1.80
-1.21
-0.55
0.02
0.34
0.35
0.11
-0.19
-0.36
-0.29
-0.01
0.35
0.61
0.75
0.80
0.92
1.15
1.43
1.62
1.57
1.28
0.88
0.56
0.46
0.57
0.79
0.97
1.04
0.99
0.89
0.80
0.72
0.59
0.32
-0.09
-0.57
-0.98
-1.17
-1.12
-0.91
-0.73
-0.75
-1.05
-1.56
-2.09
-2.48
-2.65
-2.65
-2.59
-2.56
-2.52
-2.36
-1.97
-1.35
-0.59
0.13
0.64
0.85
0.77
0.44
0.01
-0.39
-0.64
-0.67
-0.51
-0.25
-0.01
0.15
0.26
0.42
0.72
1.17
1.64
1.95
1.96
1.68
1.28
0.98
0.93
1.12
1.38
1.52
1.42
1.09
0.64
0.18
-0.17
-0.40
-0.56
-0.68
-0.79
-0.87
-0.93
-0.96
-1.05
-1.26
-1.67
-2.26
-2.93
-3.47
-3.67
-3.39
-2.69
-1.75
-0.87
-0.24
0.09
0.24
0.40
0.70
1.15
1.67
2.11
2.37
2.43
2.33
2.13
1.90
1.66
1.45
1.27
1.15
1.08
1.03
0.99
0.96
0.94
0.96
1.00
1.00
0.93
0.73
0.44
0.12
-0.12
-0.23
-0.23
-0.17
-0.19
-0.35
-0.66
-1.06
-1.47
-1.85
-2.22
-2.59
-2.96
-3.26
-3.37
-3.19
-2.66
-1.81
-0.76
0.31
1.19
1.76
1.99
1.99
1.94
1.98
2.16
2.36
2.36
2.02
1.32
0.47
-0.24
-0.55
-0.36
0.26
1.08
1.87
2.46
2.77
2.80
2.61
2.26
1.80
1.30
0.78
0.31
-0.06
-0.30
-0.43
-0.53
-0.64
-0.83
-1.07
-1.34
-1.59
-1.84
-2.09
-2.35
-2.56
-2.64
-2.48
-2.04
-1.37
-0.56
0.26
1.00
1.59
2.01
2.21
2.18
1.94
1.55
1.13
0.76
0.52
0.41
0.39
0.43
0.52
0.70
0.96
1.26
1.50
1.61
1.56
1.39
1.21
1.11
1.13
1.24
1.32
1.28
1.05
0.61
0.00
-0.68
-1.36
-1.95
-2.38
-2.62
-2.69
-2.64
-2.55
-2.46
-2.37
-2.25
-2.04
-1.69
-1.19
-0.55
0.18
0.90
1.49
1.86
1.96
1.81
1.50
1.16
0.92
0.84
0.93
1.11
1.31
1.49
1.65
1.82
2.00
2.14
2.16
2.02
1.74
1.43
1.19
1.08
1.05
0.98
0.78
0.39
-0.14
-0.68
-1.17
-1.56
-1.85
-2.09
-2.30
-2.49
-2.63
-2.74
-2.76
-2.67
-2.39
-1.91
-1.24
-0.43
0.38
1.10
1.64
1.96
2.08
2.04
1.90
1.68
1.42
1.09
0.69
0.23
-0.21
-0.51
-0.55
-0.30
0.17
0.71
1.12
1.29
1.20
0.97
0.71
0.51
0.37
0.23
0.03
-0.27
-0.63
-0.96
-1.20
-1.30
-1.32
-1.29
-1.31
-1.40
-1.55
-1.66
-1.63
-1.38
-0.88
-0.22
0.48
1.08
1.51
1.75
1.88
1.96
2.01
1.99
1.85
1.57
1.21
0.87
0.68
0.67
0.80
0.96
1.06
1.04
0.96
0.93
1.01
1.22
1.46
1.62
1.57
1.28
0.78
0.21
-0.33
-0.76
-1.06
-1.28
-1.49
-1.75
-2.05
-2.36
-2.59
-2.65
-2.49
-2.10
-1.52
-0.85
-0.14
0.51
1.07
1.50
1.77
1.90
1.88
1.74
1.57
1.41
1.31
1.25
1.20
1.10
0.92
0.70
0.54
0.52
0.69
0.99
1.30
1.47
1.39
1.04
0.50
-0.12
-0.68
-1.10
-1.35
-1.43
-1.40
-1.34
-1.31
-1.40
-1.67
-2.12
-2.68
-3.20
-3.49
-3.35
-2.65
-1.43
0.10
1.60
2.72
3.23
3.14
2.65
2.09
1.71
1.62
1.76
1.97
2.10
2.06
1.84
1.52
1.18
0.92
0.81
0.87
1.07
1.31
1.46
1.39
1.05
0.46
-0.29
-1.08
-1.80
-2.35
-2.64
-2.67
-2.49
-2.22
-2.00
-1.94
-2.04
-2.24
-2.39
-2.37
-2.07
-1.48
-0.62
0.41
1.51
2.51
3.27
3.68
3.67
3.31
2.74
2.18
1.78
1.61
1.61
1.63
1.53
1.27
0.92
0.58
0.36
0.29
0.34
0.46
0.60
0.75
0.86
0.88
0.73
0.35
-0.21
-0.83
-1.35
-1.63
-1.65
-1.49
-1.30
-1.23
-1.34
-1.61
-1.91
-2.12
-2.14
-1.98
-1.73
-1.46
-1.23
-0.98
-0.62
-0.08
0.61
1.30
1.79
1.96
1.79
1.44
1.10
0.90
0.86
0.92
1.01
1.11
1.27
1.50
1.76
1.94
1.93
1.71
1.36
1.01
0.74
0.58
0.43
0.20
-0.12
-0.48
-0.78
-0.96
-1.04
-1.08
-1.14
-1.23
-1.34
-1.46
-1.66
-1.99
-2.46
-2.97
-3.34
-3.38
-3.00
-2.24
-1.23
-0.17
0.77
1.48
1.90
2.01
1.84
1.48
1.06
0.74
0.65
0.84
1.24
1.71
2.10
2.30
2.28
2.09
1.82
1.58
1.44
1.41
1.45
1.46
1.35
1.04
0.53
-0.10
-0.71
-1.17
-1.38
-1.34
-1.13
-0.88
-0.71
-0.69
-0.86
-1.19
-1.66
-2.15
-2.57
-2.74
-2.57
-2.03
-1.23
-0.38
0.30
0.69
0.77
0.66
0.50
0.43
0.51
0.72
1.00
1.23
1.32
1.21
0.91
0.48
0.06
-0.22
-0.26
-0.08
0.23
0.56
0.81
0.95
0.98
0.93
0.81
0.63
0.39
0.10
-0.20
-0.46
-0.66
-0.80
-0.94
-1.12
-1.39
-1.76
-2.18
-2.54
-2.77
-2.81
-2.66
-2.36
-1.98
-1.59
-1.23
-0.91
-0.64
-0.38
-0.11
0.18
0.47
0.76
1.00
1.16
1.19
1.10
0.89
0.65
0.44
0.36
0.46
0.76
1.17
1.58
1.83
1.81
1.52
1.02
0.46
0.01
-0.21
-0.21
-0.06
0.05
-0.01
-0.31
-0.78
-1.23
-1.53
-1.60
-1.52
-1.42
-1.40
-1.51
-1.68
-1.84
-1.93
-1.96
-1.96
-1.95
-1.86
-1.65
-1.28
-0.76
-0.20
0.34
0.78
1.16
1.49
1.80
2.05
2.17
2.09
1.79
1.34
0.87
0.48
0.25
0.13
0.07
-0.02
-0.15
-0.28
-0.39
-0.43
-0.43
-0.43
-0.46
-0.53
-0.62
-0.68
-0.71
-0.70
-0.71
-0.73
-0.79
-0.85
-0.91
-0.97
-1.04
-1.16
-1.33
-1.57
-1.82
-2.01
-2.11
-2.11
-2.04
-1.96
-1.88
-1.74
-1.46
-0.98
-0.33
0.33
0.85
1.08
1.03
0.83
0.64
0.58
0.64
0.76
0.85
0.87
0.84
0.80
0.79
0.79
0.78
0.75
0.69
0.61
0.50
0.34
0.11
-0.15
-0.40
-0.53
-0.52
-0.36
-0.16
-0.01
0.01
-0.11
-0.31
-0.52
-0.69
-0.81
-0.91
-1.03
-1.19
-1.40
-1.63
-1.82
-1.89
-1.78
-1.43
-0.86
-0.11
0.71
1.52
2.19
2.64
2.82
2.72
2.39
1.91
1.41
0.99
0.71
0.60
0.62
0.71
0.82
0.89
0.89
0.80
0.66
0.49
0.34
0.20
0.08
-0.07
-0.27
-0.54
-0.90
-1.34
-1.81
-2.23
-2.52
-2.61
-2.49
-2.23
-1.93
-1.72
-1.66
-1.74
-1.88
-1.97
-1.92
-1.65
-1.16
-0.51
0.20
0.85
1.31
1.53
1.50
1.29
0.98
0.66
0.38
0.15
0.01
-0.04
-0.02
0.06
0.17
0.27
0.35
0.43
0.57
0.79
1.08
1.34
1.44
1.27
0.83
0.22
-0.43
-0.96
-1.32
-1.55
-1.72
-1.92
-2.11
-2.23
-2.21
-2.00
-1.63
-1.19
-0.70
-0.20
0.33
0.89
1.42
1.80
1.90
1.65
1.10
0.43
-0.14
-0.43
-0.40
-0.14
0.20
0.49
0.68
0.79
0.87
0.95
1.01
0.99
0.88
0.66
0.38
0.03
-0.37
-0.76
-1.09
-1.30
-1.34
-1.28
-1.20
-1.21
-1.37
-1.63
-1.93
-2.20
-2.41
-2.54
-2.56
-2.40
-1.99
-1.36
-0.59
0.14
0.69
1.02
1.21
1.38
1.59
1.83
1.98
1.96
1.74
1.42
1.17
1.11
1.25
1.49
1.67
1.70
1.58
1.42
1.31
1.30
1.35
1.32
1.13
0.78
0.31
-0.16
-0.55
-0.82
-0.96
-0.99
-0.93
-0.86
-0.85
-0.97
-1.23
-1.52
-1.71
-1.64
-1.31
-0.81
-0.31
0.03
0.19
0.24
0.35
0.61
1.06
1.59
2.06
2.30
2.25
1.94
1.47
1.01
0.66
0.50
0.48
0.52
0.55
0.54
0.52
0.52
0.60
0.74
0.87
0.95
0.94
0.80
0.57
0.26
-0.10
-0.47
-0.77
-0.94
-0.94
-0.80
-0.62
-0.54
-0.63
-0.85
-1.08
-1.16
-0.97
-0.52
0.06
0.62
1.05
1.30
1.39
1.37
1.25
1.05
0.81
0.60
0.49
0.53
0.71
0.93
1.12
1.22
1.22
1.18
1.14
1.11
1.04
0.87
0.58
0.21
-0.16
-0.42
-0.54
-0.54
-0.52
-0.57
-0.74
-1.06
-1.49
-1.94
-2.34
-2.61
-2.69
-2.56
-2.22
-1.70
-1.09
-0.44
0.15
0.61
0.85
0.88
0.75
0.58
0.50
0.61
0.85
1.11
1.20
1.02
0.63
0.17
-0.16
-0.24
-0.07
0.27
0.66
1.00
1.26
1.38
1.34
1.11
0.69
0.14
-0.46
-0.98
-1.36
-1.55
-1.61
-1.57
-1.53
-1.56
-1.70
-1.94
-2.23
-2.47
-2.56
-2.43
-2.07
-1.53
-0.90
-0.25
0.37
0.92
1.36
1.63
1.65
1.41
0.96
0.49
0.19
0.19
0.51
0.97
1.32
1.35
1.02
0.48
-0.01
-0.21
-0.08
0.27
0.62
0.76
0.64
0.34
0.02
-0.13
-0.04
0.21
0.49
0.65
0.61
0.37
0.02
-0.36
-0.71
-1.01
-1.23
-1.37
-1.37
-1.18
-0.79
-0.28
0.24
0.64
0.84
0.87
0.79
0.70
0.65
0.66
0.74
0.86
1.01
1.18
1.29
1.30
1.17
0.92
0.67
0.54
0.62
0.91
1.29
1.57
1.63
1.41
0.97
0.41
-0.13
-0.60
-0.96
-1.21
-1.33
-1.35
-1.26
-1.15
-1.11
-1.23
-1.52
-1.87
-2.12
-2.07
-1.64
-0.87
0.03
0.78
1.20
1.21
0.94
0.62
0.46
0.53
0.80
1.14
1.45
1.69
1.86
1.99
2.03
1.94
1.66
1.21
0.71
0.29
0.02
-0.08
-0.10
-0.11
-0.14
-0.16
-0.14
-0.08
-0.04
-0.12
-0.37
-0.78
-1.23
-1.61
-1.84
-1.90
-1.86
-1.78
-1.67
-1.53
-1.33
-1.02
-0.61
-0.12
0.36
0.78
1.04
1.11
0.97
0.70
0.38
0.12
-0.03
-0.05
0.05
0.21
0.37
0.48
0.52
0.49
0.41
0.33
0.25
0.19
0.07
-0.13
-0.45
-0.81
-1.11
-1.27
-1.27
-1.19
-1.13
-1.19
-1.35
-1.50
-1.54
-1.44
-1.23
-1.04
-0.94
-0.92
-0.89
-0.72
-0.34
0.21
0.77
1.18
1.32
1.19
0.89
0.57
0.36
0.29
0.33
0.36
0.30
0.16
0.02
0.03
0.27
0.69
1.09
1.28
1.15
0.76
0.30
-0.02
-0.11
-0.05
-0.03
-0.22
-0.64
-1.20
-1.69
-1.98
-2.00
-1.85
-1.65
-1.53
-1.55
-1.66
-1.78
-1.80
-1.65
-1.34
-0.94
-0.54
-0.22
0.00
0.18
0.34
0.50
0.59
0.52
0.28
-0.07
-0.38
-0.51
-0.40
-0.06
0.42
0.96
1.47
1.88
2.10
2.05
1.72
1.19
0.61
0.14
-0.12
-0.17
-0.12
-0.02
0.07
0.18
0.31
0.44
0.51
0.46
0.26
-0.07
-0.45
-0.80
-1.05
-1.17
-1.20
-1.17
-1.14
-1.14
-1.14
-1.09
-0.95
-0.70
-0.36
0.01
0.34
0.60
0.79
0.92
1.00
1.00
0.94
0.83
0.69
0.58
0.54
0.57
0.68
0.84
1.02
1.19
1.28
1.24
1.04
0.71
0.35
0.09
0.08
0.36
0.86
1.40
1.75
1.77
1.41
0.81
0.22
-0.16
-0.19
0.13
0.69
1.34
1.97
2.50
2.89
3.13
3.18
3.01
2.67
2.25
1.87
1.64
1.60
1.72
1.96
2.21
2.40
2.41
2.15
1.57
0.72
-0.28
-1.22
-1.96
-2.48
-2.86
-3.22
-3.62
-4.05
-4.41
-4.65
-4.78
-4.88
-5.01
-5.14
-5.15
-4.90
-4.33
-3.51
-2.59
-1.74
-1.07
-0.58
-0.20
0.13
0.45
0.74
0.96
1.04
0.99
0.85
0.72
0.71
0.88
1.22
1.63
1.93
2.02
1.86
1.51
1.06
0.59
0.10
-0.42
-0.95
-1.43
-1.74
-1.82
-1.68
-1.42
-1.18
-1.07
-1.12
-1.31
-1.55
-1.75
-1.78
-1.54
-0.97
-0.12
0.82
1.59
2.00
1.98
1.67
1.30
1.08
1.07
1.16
1.18
0.99
0.57
0.07
-0.34
-0.50
-0.42
-0.17
0.15
0.46
0.73
0.93
0.99
0.84
0.43
-0.18
-0.83
-1.30
-1.46
-1.35
-1.14
-1.06
-1.24
-1.63
-2.06
-2.33
-2.33
-2.10
-1.69
-1.21
-0.66
-0.05
0.62
1.28
1.78
2.00
1.89
1.54
1.08
0.71
0.54
0.60
0.84
1.17
1.49
1.72
1.79
1.65
1.31
0.82
0.30
-0.14
-0.40
-0.47
-0.38
-0.22
-0.09
-0.03
-0.06
-0.15
-0.26
-0.38
-0.49
-0.61
-0.74
-0.86
-0.94
-0.94
-0.81
-0.51
-0.06
0.46
0.95
1.31
1.52
1.60
1.58
1.51
1.39
1.21
0.99
0.78
0.63
0.59
0.66
0.82
1.00
1.14
1.19
1.14
1.00
0.82
0.63
0.48
0.36
0.27
0.16
-0.02
-0.26
-0.55
-0.82
-1.01
-1.07
-1.00
-0.83
-0.60
-0.37
-0.20
-0.14
-0.16
-0.23
-0.29
-0.27
-0.14
0.10
0.42
0.76
1.08
1.33
1.47
1.51
1.45
1.34
1.20
1.04
0.84
0.61
0.40
0.28
0.35
0.60
0.96
1.28
1.39
1.21
0.79
0.30
-0.11
-0.31
-0.30
-0.16
-0.06
-0.11
-0.38
-0.83
-1.38
-1.88
-2.24
-2.38
-2.31
-2.05
-1.64
-1.13
-0.55
0.04
0.55
0.88
0.97
0.83
0.55
0.31
0.27
0.49
0.96
1.54
2.04
2.31
2.21
1.74
0.96
0.01
-0.89
-1.52
-1.72
-1.48
-0.91
-0.24
0.30
0.58
0.58
0.35
-0.01
-0.43
-0.85
-1.26
-1.59
-1.78
-1.83
-1.75
-1.62
-1.49
-1.41
-1.35
-1.23
-1.03
-0.76
-0.51
-0.36
-0.39
-0.53
-0.69
-0.72
-0.56
-0.21
0.18
0.46
0.50
0.32
0.03
-0.19
-0.24
-0.10
0.13
0.33
0.46
0.52
0.56
0.63
0.67
0.65
0.52
0.33
0.17
0.10
0.15
0.22
0.19
0.00
-0.36
-0.79
-1.21
-1.53
-1.75
-1.88
-1.93
-1.88
-1.68
-1.29
-0.73
-0.08
0.54
0.98
1.16
1.08
0.83
0.56
0.39
0.34
0.40
0.48
0.52
0.52
0.55
0.69
0.96
1.31
1.63
1.81
1.80
1.65
1.42
1.19
0.98
0.78
0.56
0.33
0.15
0.07
0.09
0.10
-0.02
-0.32
-0.75
-1.13
-1.24
-1.00
-0.49
0.06
0.36
0.29
-0.12
-0.68
-1.13
-1.28
-1.09
-0.61
0.03
0.71
1.31
1.76
1.99
2.01
1.87
1.67
1.47
1.28
1.06
0.75
0.36
0.01
-0.13
0.04
0.49
1.05
1.46
1.54
1.26
0.75
0.17
-0.31
-0.63
-0.83
-0.94
-0.99
-0.99
-0.97
-0.95
-1.00
-1.17
-1.47
-1.87
-2.27
-2.56
-2.63
-2.45
-2.04
-1.48
-0.88
-0.33
0.11
0.43
0.61
0.62
0.46
0.16
-0.17
-0.44
-0.54
-0.47
-0.29
-0.08
0.11
0.27
0.43
0.60
0.73
0.77
0.64
0.37
0.01
-0.33
-0.62
-0.83
-0.99
-1.07
-1.05
-0.87
-0.54
-0.18
0.08
0.07
-0.22
-0.72
-1.20
-1.49
-1.47
-1.20
-0.82
-0.49
-0.30
-0.25
-0.24
-0.16
0.05
0.37
0.72
0.95
0.98
0.82
0.56
0.35
0.29
0.38
0.54
0.66
0.67
0.55
0.37
0.20
0.10
0.07
0.06
0.04
-0.02
-0.12
-0.26
-0.44
-0.63
-0.83
-1.06
-1.34
-1.72
-2.14
-2.50
-2.66
-2.51
-2.13
-1.67
-1.36
-1.28
-1.37
-1.40
-1.20
-0.70
-0.04
0.56
0.92
0.97
0.82
0.61
0.48
0.47
0.57
0.74
0.99
1.28
1.54
1.68
1.65
1.45
1.17
0.97
0.91
0.99
1.14
1.23
1.26
1.23
1.21
1.24
1.25
1.13
0.79
0.26
-0.33
-0.81
-1.07
-1.10
-1.04
-1.06
-1.24
-1.54
-1.83
-1.94
-1.77
-1.37
-0.86
-0.42
-0.17
-0.12
-0.19
-0.27
-0.26
-0.13
0.11
0.40
0.70
0.98
1.22
1.43
1.58
1.68
1.73
1.76
1.75
1.71
1.65
1.59
1.58
1.65
1.78
1.88
1.84
1.62
1.26
0.83
0.44
0.13
-0.12
-0.37
-0.64
-0.90
-1.08
-1.10
-1.01
-0.87
-0.81
-0.89
-1.08
-1.27
-1.33
-1.13
-0.65
0.01
0.67
1.16
1.41
1.42
1.33
1.22
1.13
1.02
0.83
0.57
0.31
0.13
0.12
0.27
0.50
0.70
0.82
0.85
0.84
0.85
0.89
0.96
1.02
1.07
1.09
1.06
0.94
0.73
0.43
0.10
-0.21
-0.47
-0.70
-0.96
-1.26
-1.58
-1.84
-1.93
-1.79
-1.41
-0.85
-0.22
0.37
0.84
1.12
1.17
0.93
0.47
-0.10
-0.63
-0.95
-1.01
-0.85
-0.57
-0.27
-0.01
0.21
0.39
0.50
0.49
0.35
0.11
-0.14
-0.30
-0.35
-0.31
-0.26
-0.24
-0.23
-0.17
-0.05
0.06
0.04
-0.21
-0.72
-1.34
-1.86
-2.09
-1.95
-1.50
-0.95
-0.51
-0.32
-0.39
-0.61
-0.82
-0.89
-0.75
-0.43
-0.03
0.39
0.80
1.19
1.55
1.86
2.04
2.03
1.80
1.39
0.92
0.52
0.29
0.27
0.42
0.62
0.77
0.78
0.67
0.48
0.26
0.04
-0.19
-0.48
-0.82
-1.15
-1.39
-1.45
-1.36
-1.18
-1.00
-0.89
-0.82
-0.66
-0.30
0.29
0.98
1.58
1.90
1.88
1.58
1.19
0.84
0.63
0.50
0.38
0.19
-0.08
-0.33
-0.45
-0.34
-0.01
0.47
0.97
1.35
1.55
1.61
1.60
1.61
1.65
1.62
1.39
0.86
0.07
-0.80
-1.55
-2.04
-2.26
-2.30
-2.31
-2.35
-2.38
-2.34
-2.13
-1.80
-1.44
-1.14
-0.93
-0.75
-0.50
-0.11
0.40
0.90
1.26
1.40
1.35
1.24
1.15
1.12
1.08
0.95
0.73
0.50
0.42
0.56
0.90
1.25
1.40
1.19
0.65
-0.03
-0.61
-0.93
-0.98
-0.91
-0.90
-1.08
-1.47
-2.00
-2.53
-2.95
-3.18
-3.19
-2.99
-2.62
-2.14
-1.64
-1.16
-0.74
-0.38
-0.06
0.22
0.45
0.61
0.69
0.67
0.58
0.47
0.37
0.30
0.31
0.39
0.54
0.74
0.93
1.08
1.15
1.13
1.05
0.90
0.67
0.34
-0.04
-0.41
-0.69
-0.83
-0.87
-0.90
-1.05
-1.40
-1.93
-2.52
-3.01
-3.23
-3.07
-2.56
-1.80
-0.95
-0.20
0.33
0.60
0.65
0.58
0.50
0.52
0.70
1.01
1.36
1.60
1.63
1.42
1.11
0.90
0.97
1.37
1.94
2.43
2.56
2.25
1.64
1.00
0.61
0.58
0.84
1.20
1.45
1.50
1.37
1.14
0.88
0.62
0.33
-0.03
-0.45
-0.86
-1.18
-1.34
-1.34
-1.20
-0.98
-0.76
-0.58
-0.44
-0.31
-0.11
0.24
0.75
1.35
1.87
2.15
2.06
1.66
1.09
0.57
0.28
0.25
0.41
0.62
0.77
0.84
0.87
0.96
1.16
1.43
1.66
1.74
1.57
1.22
0.81
0.53
0.50
0.72
1.07
1.37
1.43
1.16
0.59
-0.19
-1.03
-1.79
-2.36
-2.67
-2.68
-2.41
-1.93
-1.33
-0.70
-0.11
0.38
0.74
0.94
1.03
1.05
1.06
1.06
1.06
0.98
0.80
0.52
0.24
0.07
0.08
0.29
0.60
0.88
1.05
1.05
0.94
0.78
0.57
0.32
0.00
-0.38
-0.77
-1.12
-1.38
-1.56
-1.66
-1.72
-1.72
-1.67
-1.58
-1.51
-1.56
-1.78
-2.11
-2.42
-2.54
-2.37
-1.90
-1.26
-0.58
0.02
0.54
0.98
1.37
1.66
1.78
1.70
1.46
1.17
0.94
0.85
0.88
0.97
1.03
1.00
0.86
0.60
0.25
-0.10
-0.37
-0.42
-0.19
0.27
0.80
1.20
1.29
1.05
0.61
0.15
-0.19
-0.36
-0.41
-0.43
-0.48
-0.58
-0.70
-0.83
-1.02
-1.27
-1.60
-1.99
-2.35
-2.55
-2.54
-2.29
-1.84
-1.29
-0.73
-0.24
0.13
0.39
0.56
0.69
0.81
0.92
0.97
0.88
0.65
0.33
0.02
-0.18
-0.22
-0.11
0.10
0.40
0.79
1.25
1.74
2.15
2.33
2.19
1.73
1.09
0.50
0.14
0.07
0.21
0.37
0.41
0.27
-0.01
-0.31
-0.53
-0.63
-0.65
-0.68
-0.81
-1.04
-1.32
-1.51
-1.52
-1.30
-0.92
-0.49
-0.12
0.13
0.28
0.39
0.52
0.71
0.92
1.10
1.17
1.11
0.92
0.66
0.37
0.11
-0.04
-0.03
0.14
0.45
0.81
1.11
1.31
1.38
1.38
1.37
1.37
1.34
1.22
0.94
0.51
0.05
-0.32
-0.50
-0.51
-0.41
-0.35
-0.40
-0.58
-0.82
-1.02
-1.13
-1.17
-1.20
-1.25
-1.29
-1.25
-1.06
-0.74
-0.37
-0.07
0.11
0.18
0.19
0.20
0.20
0.12
-0.11
-0.45
-0.78
-0.94
-0.85
-0.53
-0.12
0.21
0.39
0.42
0.36
0.30
0.28
0.31
0.32
0.23
-0.01
-0.42
-0.89
-1.29
-1.47
-1.39
-1.12
-0.86
-0.81
-1.10
-1.66
-2.31
-2.80
-2.97
-2.75
-2.23
-1.58
-0.96
-0.53
-0.32
-0.32
-0.42
-0.50
-0.46
-0.28
0.02
0.34
0.58
0.71
0.69
0.59
0.47
0.38
0.36
0.38
0.37
0.26
0.08
-0.12
-0.24
-0.23
-0.13
-0.07
-0.16
-0.45
-0.85
-1.22
-1.42
-1.40
-1.23
-1.03
-0.90
-0.91
-1.04
-1.26
-1.51
-1.73
-1.86
-1.87
-1.78
-1.65
-1.55
-1.53
-1.55
-1.48
-1.21
-0.71
-0.07
0.57
1.04
1.26
1.28
1.19
1.09
0.99
0.90
0.77
0.61
0.47
0.41
0.50
0.70
0.95
1.18
1.35
1.43
1.43
1.36
1.24
1.03
0.73
0.35
-0.09
-0.50
-0.79
-0.89
-0.81
-0.65
-0.53
-0.54
-0.71
-0.98
-1.25
-1.47
-1.64
-1.81
-1.96
-2.03
-1.87
-1.37
-0.52
0.56
1.65
2.51
2.97
2.99
2.62
2.02
1.38
0.86
0.58
0.56
0.75
1.01
1.23
1.31
1.25
1.09
0.94
0.87
0.90
0.99
1.06
1.06
0.95
0.75
0.49
0.20
-0.08
-0.38
-0.69
-1.00
-1.31
-1.59
-1.81
-1.96
-1.98
-1.76
-1.25
-0.49
0.34
1.00
1.29
1.17
0.81
0.48
0.40
0.60
0.90
1.10
1.08
0.89
0.70
0.67
0.79
0.94
0.96
0.80
0.53
0.30
0.25
0.38
0.58
0.72
0.71
0.54
0.27
-0.02
-0.32
-0.65
-1.02
-1.45
-1.89
-2.28
-2.55
-2.72
-2.80
-2.84
-2.83
-2.74
-2.53
-2.18
-1.73
-1.25
-0.78
-0.30
0.19
0.72
1.24
1.66
1.86
1.81
1.57
1.25
0.94
0.69
0.44
0.13
-0.21
-0.48
-0.51
-0.22
0.35
0.98
1.43
1.50
1.18
0.62
0.06
-0.32
-0.45
-0.42
-0.34
-0.34
-0.42
-0.59
-0.84
-1.20
-1.71
-2.35
-3.02
-3.50
-3.62
-3.28
-2.53
-1.53
-0.50
0.39
1.02
1.34
1.37
1.18
0.90
0.66
0.55
0.55
0.60
0.57
0.43
0.26
0.19
0.37
0.82
1.41
1.96
2.30
2.36
2.18
1.81
1.33
0.79
0.23
-0.27
-0.64
-0.84
-0.88
-0.79
-0.66
-0.56
-0.53
-0.61
-0.81
-1.12
-1.54
-2.01
-2.40
-2.57
-2.36
-1.73
-0.76
0.34
1.34
2.01
2.28
2.23
2.03
1.85
1.79
1.83
1.90
1.90
1.81
1.70
1.62
1.63
1.66
1.64
1.49
1.23
0.96
0.83
0.95
1.30
1.75
2.09
2.17
1.92
1.40
0.75
0.12
-0.35
-0.60
-0.68
-0.73
-0.90
-1.29
-1.87
-2.46
-2.80
-2.66
-1.99
-0.94
0.22
1.20
1.87
2.25
2.46
2.63
2.76
2.76
2.54
2.09
1.55
1.14
0.99
1.13
1.39
1.55
1.45
1.14
0.82
0.70
0.89
1.25
1.51
1.44
1.01
0.38
-0.17
-0.44
-0.42
-0.28
-0.24
-0.44
-0.87
-1.40
-1.91
-2.33
-2.67
-2.93
-3.10
-3.08
-2.80
-2.23
-1.44
-0.60
0.17
0.74
1.11
1.29
1.36
1.34
1.25
1.11
0.93
0.75
0.59
0.47
0.39
0.31
0.21
0.10
0.03
0.07
0.25
0.50
0.71
0.77
0.61
0.28
-0.10
-0.40
-0.58
-0.66
-0.73
-0.86
-1.11
-1.44
-1.82
-2.23
-2.69
-3.24
-3.83
-4.36
-4.61
-4.38
-3.58
-2.32
-0.85
0.49
1.44
1.91
1.97
1.82
1.59
1.36
1.09
0.75
0.37
0.06
-0.06
0.05
0.36
0.76
1.13
1.43
1.64
1.82
1.97
2.02
1.91
1.56
0.98
0.27
-0.40
-0.89
-1.13
-1.14
-1.02
-0.92
-0.92
-1.07
-1.37
-1.79
-2.24
-2.65
-2.91
-2.94
-2.67
-2.09
-1.29
-0.36
0.51
1.19
1.60
1.71
1.63
1.50
1.43
1.50
1.67
1.83
1.90
1.84
1.73
1.70
1.81
2.03
2.26
2.35
2.18
1.81
1.34
0.94
0.73
0.69
0.72
0.66
0.42
-0.01
-0.54
-0.98
-1.21
-1.16
-0.91
-0.64
-0.54
-0.73
-1.17
-1.69
-2.08
-2.16
-1.84
-1.21
-0.41
0.37
1.06
1.63
2.11
2.52
2.81
2.92
2.83
2.57
2.24
1.93
1.69
1.49
1.28
1.01
0.73
0.51
0.42
0.49
0.67
0.90
1.11
1.25
1.29
1.22
1.04
0.81
0.56
0.31
0.05
-0.24
-0.62
-1.07
-1.56
-2.01
-2.35
-2.54
-2.59
-2.48
-2.19
-1.71
-1.06
-0.32
0.40
0.95
1.29
1.38
1.31
1.14
0.90
0.60
0.28
-0.02
-0.16
-0.06
0.27
0.73
1.12
1.30
1.22
0.99
0.77
0.70
0.82
1.00
1.10
1.01
0.75
0.41
0.07
-0.26
-0.63
-1.11
-1.71
-2.35
-2.87
-3.14
-3.12
-2.88
-2.58
-2.37
-2.31
-2.35
-2.37
-2.25
-1.92
-1.38
-0.72
-0.02
0.62
1.14
1.49
1.65
1.59
1.31
0.87
0.37
-0.02
-0.20
-0.09
0.27
0.80
1.40
1.98
2.44
2.69
2.67
2.35
1.77
1.04
0.35
-0.14
-0.34
-0.29
-0.10
0.05
0.04
-0.19
-0.60
-1.11
-1.62
-2.06
-2.36
-2.53
-2.61
-2.62
-2.57
-2.42
-2.11
-1.56
-0.80
0.09
0.96
1.66
2.07
2.20
2.10
1.86
1.57
1.25
0.94
0.66
0.50
0.54
0.84
1.36
1.96
2.48
2.74
2.66
2.30
1.77
1.20
0.66
0.20
-0.18
-0.47
-0.63
-0.62
-0.49
-0.32
-0.24
-0.34
-0.62
-1.02
-1.43
-1.79
-2.10
-2.38
-2.62
-2.77
-2.71
-2.32
-1.58
-0.58
0.49
1.43
2.08
2.41
2.49
2.45
2.36
2.20
1.94
1.55
1.09
0.72
0.59
0.79
1.25
1.76
2.10
2.16
2.01
1.84
1.81
1.96
2.12
2.04
1.56
0.75
-0.12
-0.74
-0.92
-0.78
-0.61
-0.74
-1.33
-2.24
-3.16
-3.78
-3.95
-3.75
-3.39
-3.02
-2.69
-2.31
-1.79
-1.13
-0.46
0.05
0.30
0.35
0.37
0.53
0.89
1.33
1.63
1.63
1.30
0.79
0.34
0.14
0.19
0.40
0.61
0.71
0.69
0.64
0.59
0.54
0.46
0.32
0.17
0.07
0.06
0.10
0.10
-0.04
-0.36
-0.83
-1.36
-1.86
-2.26
-2.53
-2.68
-2.73
-2.71
-2.63
-2.50
-2.30
-1.99
-1.54
-0.96
-0.34
0.20
0.54
0.67
0.65
0.58
0.55
0.57
0.55
0.41
0.17
-0.06
-0.12
0.11
0.60
1.18
1.65
1.86
1.81
1.64
1.53
1.54
1.63
1.62
1.39
0.92
0.30
-0.30
-0.75
-1.03
-1.19
-1.34
-1.54
-1.83
-2.19
-2.57
-2.92
-3.16
-3.23
-3.10
-2.76
-2.24
-1.60
-0.92
-0.24
0.40
0.96
1.36
1.52
1.41
1.07
0.65
0.30
0.12
0.14
0.30
0.50
0.67
0.76
0.75
0.67
0.58
0.52
0.55
0.72
0.99
1.26
1.41
1.32
0.98
0.45
-0.11
-0.56
-0.81
-0.86
-0.76
-0.61
-0.49
-0.43
-0.49
-0.68
-1.01
-1.40
-1.75
-1.93
-1.82
-1.38
-0.66
0.18
1.01
1.66
2.04
2.13
1.93
1.51
0.96
0.38
-0.09
-0.36
-0.35
-0.06
0.45
1.06
1.60
1.90
1.89
1.62
1.20
0.82
0.58
0.45
0.37
0.22
-0.03
-0.34
-0.62
-0.81
-0.99
-1.23
-1.61
-2.11
-2.60
-2.92
-2.95
-2.69
-2.24
-1.70
-1.14
-0.54
0.09
0.72
1.24
1.51
1.48
1.17
0.74
0.34
0.09
0.01
0.06
0.17
0.29
0.40
0.51
0.61
0.70
0.76
0.76
0.71
0.59
0.40
0.19
-0.00
-0.16
-0.30
-0.49
-0.82
-1.29
-1.83
-2.31
-2.62
-2.74
-2.76
-2.83
-3.01
-3.27
-3.45
-3.36
-2.89
-2.08
-1.11
-0.21
0.44
0.78
0.87
0.81
0.71
0.58
0.41
0.15
-0.15
-0.43
-0.61
-0.61
-0.43
-0.10
0.28
0.64
0.91
1.05
1.02
0.84
0.56
0.24
-0.02
-0.21
-0.33
-0.44
-0.63
-0.97
-1.46
-2.04
-2.60
-2.99
-3.13
-2.97
-2.54
-1.91
-1.20
-0.50
0.08
0.48
0.66
0.63
0.47
0.28
0.17
0.22
0.43
0.70
0.92
1.01
0.98
0.91
0.88
0.98
1.18
1.42
1.61
1.68
1.61
1.43
1.21
0.97
0.69
0.35
-0.06
-0.49
-0.87
-1.12
-1.23
-1.28
-1.36
-1.51
-1.69
-1.76
-1.54
-0.99
-0.19
0.64
1.26
1.49
1.32
0.86
0.30
-0.19
-0.47
-0.46
-0.18
0.31
0.86
1.28
1.45
1.35
1.07
0.80
0.67
0.75
0.97
1.19
1.30
1.24
1.00
0.66
0.29
-0.01
-0.18
-0.18
-0.06
0.02
-0.09
-0.50
-1.14
-1.82
-2.26
-2.28
-1.83
-1.04
-0.14
0.68
1.28
1.63
1.74
1.65
1.42
1.16
0.97
0.94
1.11
1.41
1.72
1.93
1.98
1.87
1.66
1.40
1.17
0.99
0.84
0.70
0.52
0.26
-0.07
-0.40
-0.67
-0.83
-0.93
-1.03
-1.22
-1.50
-1.81
-2.03
-2.10
-2.04
-1.92
-1.80
-1.62
-1.28
-0.69
0.15
1.06
1.80
2.16
2.08
1.68
1.18
0.78
0.58
0.57
0.69
0.84
0.98
1.09
1.13
1.07
0.89
0.64
0.38
0.24
0.27
0.47
0.73
0.94
0.96
0.76
0.41
0.01
-0.31
-0.49
-0.50
-0.40
-0.26
-0.17
-0.20
-0.37
-0.68
-1.04
-1.32
-1.40
-1.20
-0.72
-0.06
0.68
1.41
2.07
2.63
3.06
3.30
3.27
2.93
2.31
1.52
0.71
0.03
-0.41
-0.56
-0.42
-0.06
0.42
0.91
1.31
1.56
1.64
1.56
1.34
0.99
0.52
-0.05
-0.63
-1.12
-1.40
-1.40
-1.16
-0.80
-0.49
-0.35
-0.43
-0.70
-1.05
-1.39
-1.66
-1.80
-1.78
-1.55
-1.08
-0.41
0.34
1.02
1.47
1.63
1.55
1.32
1.05
0.78
0.51
0.22
-0.03
-0.16
-0.10
0.16
0.52
0.82
0.94
0.85
0.59
0.27
-0.03
-0.29
-0.48
-0.62
-0.69
-0.69
-0.63
-0.58
-0.62
-0.76
-0.99
-1.22
-1.39
-1.47
-1.53
-1.65
-1.90
-2.27
-2.67
-2.96
-2.97
-2.63
-1.97
-1.15
-0.33
0.30
0.66
0.80
0.80
0.79
0.80
0.78
0.65
0.37
0.00
-0.31
-0.44
-0.33
-0.04
0.26
0.44
0.43
0.29
0.11
-0.02
-0.08
-0.11
-0.15
-0.23
-0.32
-0.39
-0.39
-0.35
-0.32
-0.35
-0.48
-0.72
-1.04
-1.39
-1.73
-2.05
-2.35
-2.65
-2.92
-3.04
-2.89
-2.39
-1.58
-0.63
0.23
0.78
0.95
0.84
0.63
0.54
0.67
1.02
1.47
1.86
2.03
1.93
1.59
1.15
0.73
0.43
0.25
0.14
0.03
-0.13
-0.35
-0.63
-0.93
-1.23
-1.50
-1.67
-1.70
-1.56
-1.29
-0.96
-0.66
-0.41
-0.22
-0.12
-0.13
-0.32
-0.70
-1.19
-1.64
-1.86
-1.74
-1.28
-0.63
0.05
0.65
1.10
1.38
1.52
1.50
1.34
1.09
0.82
0.63
0.56
0.61
0.73
0.87
1.01
1.18
1.44
1.78
2.12
2.32
2.25
1.86
1.23
0.59
0.15
0.01
0.14
0.34
0.43
0.30
0.02
-0.27
-0.49
-0.63
-0.76
-0.98
-1.27
-1.57
-1.79
-1.89
-1.93
-2.01
-2.16
-2.28
-2.24
-1.90
-1.27
-0.48
0.27
0.85
1.23
1.45
1.61
1.70
1.67
1.47
1.10
0.65
0.26
0.03
0.02
0.15
0.32
0.46
0.55
0.63
0.75
0.94
1.15
1.27
1.22
0.96
0.57
0.17
-0.09
-0.16
-0.08
0.02
-0.00
-0.21
-0.58
-1.01
-1.39
-1.64
-1.70
-1.58
-1.33
-1.00
-0.65
-0.35
-0.12
0.05
0.19
0.34
0.55
0.82
1.12
1.42
1.61
1.64
1.45
1.07
0.59
0.14
-0.17
-0.26
-0.14
0.13
0.44
0.68
0.73
0.55
0.13
-0.42
-0.95
-1.34
-1.54
-1.58
-1.58
-1.64
-1.80
-2.05
-2.32
-2.54
-2.64
-2.60
-2.39
-2.00
-1.45
-0.81
-0.19
0.30
0.58
0.64
0.53
0.35
0.20
0.15
0.18
0.28
0.40
0.52
0.63
0.70
0.71
0.65
0.53
0.42
0.39
0.50
0.71
0.95
1.09
1.05
0.82
0.48
0.15
-0.10
-0.24
-0.34
-0.50
-0.81
-1.29
-1.87
-2.44
-2.85
-3.01
-2.89
-2.49
-1.88
-1.16
-0.40
0.31
0.90
1.35
1.62
1.75
1.76
1.69
1.60
1.51
1.45
1.43
1.45
1.47
1.49
1.49
1.46
1.41
1.36
1.31
1.26
1.17
1.02
0.77
0.43
0.04
-0.32
-0.60
-0.77
-0.83
-0.80
-0.71
-0.58
-0.46
-0.43
-0.58
-0.92
-1.37
-1.76
-1.92
-1.76
-1.34
-0.79
-0.27
0.14
0.46
0.76
1.09
1.44
1.77
2.00
2.08
1.98
1.76
1.49
1.31
1.30
1.46
1.69
1.85
1.80
1.54
1.17
0.84
0.67
0.65
0.65
0.54
0.29
-0.03
-0.28
-0.32
-0.14
0.14
0.35
0.32
0.03
-0.46
-0.99
-1.41
-1.60
-1.55
-1.32
-0.94
-0.47
0.05
0.55
0.96
1.23
1.36
1.36
1.26
1.07
0.78
0.36
-0.13
-0.58
-0.86
-0.88
-0.67
-0.36
-0.08
0.04
0.01
-0.14
-0.31
-0.48
-0.61
-0.69
-0.71
-0.63
-0.45
-0.23
-0.04
0.02
-0.11
-0.41
-0.84
-1.29
-1.66
-1.83
-1.78
-1.52
-1.11
-0.61
-0.08
0.48
1.01
1.48
1.81
1.92
1.77
1.39
0.89
0.41
0.09
-0.01
0.10
0.37
0.69
0.99
1.19
1.26
1.23
1.16
1.08
1.00
0.85
0.57
0.15
-0.34
-0.77
-1.03
-1.07
-1.00
-0.98
-1.16
-1.58
-2.17
-2.75
-3.13
-3.18
-2.86
-2.19
-1.31
-0.37
0.45
1.05
1.36
1.45
1.40
1.30
1.22
1.17
1.15
1.16
1.18
1.20
1.18
1.09
0.94
0.74
0.54
0.38
0.29
0.28
0.31
0.36
0.42
0.47
0.48
0.42
0.28
0.04
-0.30
-0.73
-1.23
-1.79
-2.37
-2.91
-3.36
-3.65
-3.75
-3.64
-3.33
-2.86
-2.25
-1.57
-0.88
-0.22
0.37
0.87
1.25
1.49
1.61
1.63
1.61
1.62
1.68
1.76
1.81
1.77
1.62
1.39
1.15
0.95
0.83
0.77
0.75
0.74
0.74
0.69
0.57
0.35
0.08
-0.16
-0.29
-0.31
-0.28
-0.32
-0.53
-0.92
-1.39
-1.79
-2.01
-2.07
-2.04
-2.02
-2.08
-2.19
-2.26
-2.21
-1.97
-1.55
-0.97
-0.34
0.28
0.80
1.21
1.48
1.64
1.69
1.65
1.53
1.39
1.25
1.17
1.16
1.21
1.26
1.28
1.25
1.18
1.12
1.08
1.06
1.00
0.88
0.68
0.44
0.20
0.01
-0.10
-0.15
-0.13
-0.08
-0.03
-0.02
-0.06
-0.14
-0.24
-0.37
-0.57
-0.87
-1.26
-1.68
-1.98
-2.02
-1.73
-1.15
-0.43
0.20
0.63
0.80
0.81
0.79
0.81
0.91
1.05
1.20
1.37
1.54
1.70
1.80
1.75
1.51
1.11
0.67
0.34
0.22
0.32
0.55
0.76
0.83
0.72
0.50
0.30
0.23
0.30
0.43
0.49
0.39
0.11
-0.25
-0.57
-0.75
-0.82
-0.84
-0.92
-1.10
-1.34
-1.56
-1.70
-1.73
-1.68
-1.58
-1.46
-1.27
-0.96
-0.50
0.12
0.83
1.49
1.98
2.17
2.05
1.66
1.14
0.66
0.39
0.41
0.73
1.25
1.80
2.19
2.31
2.13
1.77
1.42
1.23
1.28
1.49
1.70
1.72
1.47
0.97
0.33
-0.32
-0.86
-1.24
-1.43
-1.44
-1.29
-1.01
-0.68
-0.41
-0.30
-0.41
-0.71
-1.12
-1.50
-1.73
-1.74
-1.50
-1.02
-0.37
0.34
1.02
1.54
1.83
1.88
1.75
1.52
1.31
1.16
1.08
1.03
0.93
0.75
0.54
0.37
0.32
0.43
0.64
0.82
0.88
0.72
0.38
-0.07
-0.52
-0.88
-1.13
-1.25
-1.30
-1.32
-1.38
-1.52
-1.76
-2.08
-2.38
-2.57
-2.55
-2.30
-1.90
-1.46
-1.13
-0.98
-0.98
-1.00
-0.84
-0.40
0.31
1.14
1.85
2.24
2.21
1.80
1.19
0.55
0.04
-0.25
-0.31
-0.19
0.05
0.37
0.72
1.08
1.37
1.51
1.40
1.00
0.37
-0.37
-1.01
-1.39
-1.43
-1.21
-0.88
-0.64
-0.61
-0.80
-1.15
-1.52
-1.83
-2.07
-2.26
-2.45
-2.64
-2.75
-2.67
-2.29
-1.60
-0.67
0.33
1.17
1.72
1.91
1.77
1.42
1.00
0.66
0.48
0.47
0.53
0.57
0.50
0.33
0.14
0.03
0.06
0.21
0.38
0.45
0.33
0.07
-0.19
-0.31
-0.20
0.14
0.56
0.88
0.93
0.64
0.03
-0.76
-1.56
-2.22
-2.62
-2.69
-2.44
-1.93
-1.24
-0.52
0.08
0.42
0.45
0.20
-0.21
-0.58
-0.75
-0.63
-0.24
0.29
0.79
1.15
1.31
1.29
1.14
0.92
0.65
0.36
0.06
-0.20
-0.39
-0.49
-0.48
-0.39
-0.25
-0.11
-0.02
-0.01
-0.10
-0.26
-0.46
-0.65
-0.78
-0.84
-0.87
-0.94
-1.12
-1.43
-1.81
-2.14
-2.26
-2.09
-1.63
-0.98
-0.28
0.35
0.86
1.22
1.46
1.59
1.61
1.54
1.40
1.23
1.04
0.85
0.67
0.50
0.36
0.29
0.30
0.37
0.43
0.48
0.52
0.57
0.65
0.68
0.63
0.45
0.18
-0.12
-0.37
-0.54
-0.69
-0.90
-1.20
-1.57
-1.91
-2.16
-2.28
-2.33
-2.39
-2.50
-2.58
-2.51
-2.16
-1.46
-0.52
0.49
1.36
1.96
2.25
2.31
2.22
2.04
1.75
1.33
0.81
0.29
-0.05
-0.10
0.17
0.62
1.05
1.25
1.13
0.77
0.32
-0.04
-0.21
-0.21
-0.14
-0.13
-0.25
-0.49
-0.79
-1.07
-1.31
-1.49
-1.64
-1.75
-1.80
-1.74
-1.53
-1.14
-0.59
0.04
0.64
1.10
1.35
1.36
1.20
1.00
0.88
0.91
1.07
1.26
1.40
1.45
1.41
1.32
1.22
1.08
0.90
0.69
0.50
0.44
0.56
0.85
1.16
1.30
1.10
0.48
-0.45
-1.46
-2.27
-2.66
-2.58
-2.16
-1.66
-1.32
-1.25
-1.42
-1.69
-1.90
-1.94
-1.80
-1.48
-1.04
-0.47
0.19
0.91
1.58
2.07
2.27
2.13
1.67
0.98
0.24
-0.41
-0.85
-1.03
-0.99
-0.79
-0.52
-0.21
0.13
0.47
0.79
1.04
1.18
1.18
1.08
0.97
0.90
0.87
0.81
0.62
0.25
-0.29
-0.90
-1.45
-1.83
-2.00
-1.99
-1.91
-1.83
-1.79
-1.77
-1.69
-1.48
-1.08
-0.50
0.17
0.84
1.40
1.76
1.90
1.83
1.58
1.23
0.82
0.43
0.10
-0.13
-0.22
-0.19
-0.05
0.15
0.35
0.48
0.52
0.47
0.38
0.33
0.36
0.48
0.64
0.76
0.77
0.61
0.25
-0.25
-0.83
-1.40
-1.88
-2.20
-2.36
-2.33
-2.13
-1.74
-1.21
-0.62
-0.08
0.31
0.52
0.61
0.67
0.80
1.01
1.23
1.38
1.39
1.28
1.08
0.84
0.59
0.34
0.12
-0.00
0.07
0.38
0.84
1.28
1.53
1.43
0.99
0.37
-0.23
-0.62
-0.72
-0.61
-0.45
-0.35
-0.40
-0.52
-0.61
-0.61
-0.54
-0.53
-0.68
-1.02
-1.40
-1.60
-1.39
-0.71
0.33
1.47
2.42
2.98
3.09
2.85
2.38
1.80
1.19
0.62
0.17
-0.07
-0.02
0.30
0.77
1.16
1.34
1.27
1.06
0.90
0.89
0.97
1.04
0.92
0.59
0.11
-0.36
-0.72
-0.96
-1.17
-1.45
-1.82
-2.21
-2.51
-2.64
-2.59
-2.46
-2.31
-2.17
-1.99
-1.66
-1.12
-0.39
0.38
1.02
1.40
1.51
1.47
1.39
1.35
1.35
1.28
1.08
0.76
0.43
0.21
0.20
0.37
0.63
0.85
0.98
1.02
1.02
1.03
1.01
0.94
0.77
0.52
0.22
-0.05
-0.26
-0.40
-0.51
-0.64
-0.81
-1.01
-1.23
-1.46
-1.69
-1.92
-2.13
-2.29
-2.33
-2.20
-1.83
-1.25
-0.55
0.14
0.66
0.92
0.93
0.80
0.69
0.68
0.81
1.01
1.18
1.27
1.28
1.24
1.19
1.14
1.07
0.97
0.83
0.69
0.57
0.50
0.51
0.60
0.74
0.87
0.87
0.64
0.16
-0.52
-1.24
-1.82
-2.16
-2.26
-2.18
-2.05
-1.92
-1.80
-1.70
-1.60
-1.51
-1.43
-1.28
-0.99
-0.47
0.30
1.20
2.04
2.60
2.76
2.57
2.16
1.75
1.51
1.47
1.57
1.69
1.73
1.66
1.55
1.48
1.51
1.60
1.70
1.71
1.61
1.41
1.17
0.91
0.63
0.33
-0.02
-0.37
-0.67
-0.88
-1.02
-1.12
-1.24
-1.42
-1.64
-1.88
-2.12
-2.35
-2.53
-2.61
-2.51
-2.18
-1.61
-0.83
0.06
0.96
1.74
2.31
2.57
2.46
1.97
1.20
0.32
-0.46
-0.93
-0.99
-0.70
-0.23
0.21
0.50
0.65
0.74
0.89
1.11
1.37
1.56
1.62
1.56
1.47
1.42
1.40
1.29
0.99
0.44
-0.28
-1.00
-1.52
-1.76
-1.75
-1.62
-1.54
-1.59
-1.78
-2.02
-2.16
-2.08
-1.73
-1.12
-0.31
0.60
1.50
2.23
2.68
2.76
2.52
2.07
1.58
1.20
1.00
0.98
1.09
1.23
1.35
1.37
1.28
1.09
0.86
0.67
0.60
0.69
0.86
1.00
0.96
0.69
0.20
-0.42
-1.07
-1.64
-2.09
-2.36
-2.44
-2.32
-2.08
-1.89
-1.92
-2.29
-2.94
-3.61
-3.97
-3.76
-2.93
-1.65
-0.22
1.04
1.97
2.53
2.82
2.96
3.00
2.98
2.87
2.66
2.32
1.85
1.30
0.74
0.30
0.08
0.15
0.45
0.84
1.14
1.22
1.02
0.62
0.14
-0.27
-0.55
-0.73
-0.87
-1.03
-1.19
-1.34
-1.45
-1.55
-1.72
-1.99
-2.36
-2.73
-2.95
-2.92
-2.64
-2.16
-1.58
-0.93
-0.20
0.64
1.55
2.40
3.03
3.34
3.28
2.93
2.38
1.74
1.11
0.57
0.19
0.04
0.14
0.43
0.79
1.13
1.36
1.47
1.47
1.40
1.23
0.93
0.48
-0.10
-0.72
-1.27
-1.64
-1.79
-1.75
-1.67
-1.67
-1.81
-2.09
-2.38
-2.57
-2.60
-2.51
-2.36
-2.17
-1.88
-1.35
-0.50
0.64
1.86
2.89
3.50
3.60
3.30
2.77
2.21
1.71
1.30
1.00
0.80
0.71
0.74
0.84
0.97
1.09
1.19
1.28
1.35
1.38
1.34
1.18
0.94
0.64
0.35
0.10
-0.10
-0.25
-0.40
-0.55
-0.72
-0.88
-1.02
-1.17
-1.35
-1.61
-1.97
-2.38
-2.72
-2.83
-2.60
-2.04
-1.27
-0.45
0.28
0.84
1.23
1.46
1.50
1.31
0.94
0.48
0.11
-0.05
0.06
0.34
0.64
0.83
0.87
0.79
0.67
0.61
0.63
0.74
0.93
1.18
1.42
1.55
1.43
0.98
0.22
-0.73
-1.64
-2.32
-2.64
-2.64
-2.45
-2.25
-2.18
-2.25
-2.32
-2.25
-1.88
-1.18
-0.25
0.75
1.63
2.31
2.72
2.89
2.83
2.57
2.16
1.66
1.15
0.74
0.52
0.51
0.71
1.04
1.43
1.78
2.03
2.14
2.09
1.89
1.54
1.03
0.39
-0.30
-0.92
-1.33
-1.46
-1.39
-1.25
-1.20
-1.33
-1.62
-2.00
-2.38
-2.77
-3.16
-3.57
-3.90
-4.01
-3.72
-2.96
-1.80
-0.44
0.87
1.89
2.52
2.72
2.57
2.19
1.68
1.11
0.53
-0.02
-0.46
-0.68
-0.63
-0.31
0.18
0.67
1.03
1.22
1.27
1.29
1.33
1.36
1.30
1.06
0.60
0.00
-0.61
-1.14
-1.55
-1.87
-2.15
-2.43
-2.66
-2.81
-2.82
-2.68
-2.40
-1.99
-1.44
-0.79
-0.10
0.55
1.04
1.33
1.43
1.42
1.41
1.42
1.44
1.38
1.18
0.83
0.45
0.19
0.18
0.47
0.94
1.37
1.54
1.35
0.88
0.37
0.06
0.09
0.35
0.58
0.50
-0.00
-0.81
-1.65
-2.21
-2.37
-2.21
-1.94
-1.79
-1.88
-2.16
-2.50
-2.77
-2.89
-2.84
-2.62
-2.22
-1.63
-0.84
0.06
0.92
1.60
2.01
2.14
2.09
1.97
1.86
1.76
1.66
1.56
1.51
1.56
1.73
1.94
2.12
2.17
2.11
1.98
1.87
1.79
1.70
1.55
1.29
0.96
0.61
0.32
0.09
-0.09
-0.25
-0.40
-0.51
-0.58
-0.60
-0.64
-0.79
-1.10
-1.60
-2.21
-2.78
-3.15
-3.20
-2.91
-2.34
-1.62
-0.86
-0.18
0.41
0.90
1.33
1.69
1.94
2.06
2.04
1.93
1.79
1.67
1.55
1.39
1.18
0.92
0.72
0.71
0.95
1.43
1.99
2.39
2.45
2.11
1.46
0.70
0.01
-0.51
-0.89
-1.21
-1.49
-1.71
-1.80
-1.74
-1.58
-1.43
-1.46
-1.79
-2.39
-3.13
-3.79
-4.16
-4.05
-3.43
-2.42
-1.25
-0.19
0.57
0.98
1.14
1.24
1.39
1.61
1.78
1.74
1.45
1.00
0.56
0.32
0.34
0.55
0.77
0.86
0.79
0.62
0.48
0.44
0.52
0.64
0.72
0.70
0.57
0.40
0.24
0.12
0.03
-0.08
-0.27
-0.59
-1.08
-1.72
-2.43
-3.13
-3.69
-4.01
-4.05
-3.81
-3.36
-2.75
-2.05
-1.30
-0.52
0.21
0.84
1.27
1.48
1.48
1.37
1.27
1.25
1.32
1.39
1.36
1.19
0.93
0.70
0.64
0.83
1.25
1.79
2.26
2.50
2.36
1.85
1.08
0.27
-0.36
-0.64
-0.56
-0.28
0.00
0.14
0.07
-0.15
-0.41
-0.67
-0.91
-1.19
-1.51
-1.87
-2.21
-2.45
-2.56
-2.53
-2.37
-2.09
-1.70
-1.24
-0.74
-0.25
0.24
0.75
1.29
1.86
2.41
2.85
3.11
3.17
3.03
2.74
2.37
1.97
1.58
1.23
0.94
0.72
0.59
0.54
0.55
0.54
0.43
0.19
-0.13
-0.45
-0.65
-0.70
-0.62
-0.52
-0.48
-0.51
-0.60
-0.67
-0.70
-0.73
-0.82
-1.03
-1.38
-1.85
-2.38
-2.88
-3.21
-3.25
-2.93
-2.30
-1.50
-0.74
-0.17
0.18
0.43
0.71
1.09
1.55
1.96
2.21
2.25
2.08
1.77
1.37
0.94
0.59
0.39
0.42
0.68
1.07
1.45
1.74
1.89
1.97
2.05
2.13
2.15
2.01
1.66
1.13
0.54
-0.01
-0.42
-0.67
-0.80
-0.87
-0.92
-0.96
-1.02
-1.13
-1.30
-1.56
-1.90
-2.24
-2.44
-2.37
-1.94
-1.22
-0.38
0.36
0.85
1.09
1.21
1.37
1.64
1.93
2.05
1.86
1.34
0.61
-0.08
-0.53
-0.63
-0.37
0.12
0.69
1.19
1.50
1.58
1.45
1.24
1.03
0.89
0.77
0.58
0.28
-0.09
-0.42
-0.61
-0.66
-0.70
-0.87
-1.28
-1.88
-2.51
-2.99
-3.22
-3.22
-3.07
-2.85
-2.60
-2.29
-1.92
-1.52
-1.15
-0.87
-0.69
-0.53
-0.34
-0.05
0.30
0.62
0.86
0.99
1.06
1.14
1.27
1.42
1.55
1.62
1.61
1.55
1.48
1.41
1.30
1.08
0.72
0.22
-0.33
-0.79
-1.06
-1.08
-0.87
-0.55
-0.22
-0.02
-0.01
-0.20
-0.54
-0.96
-1.39
-1.79
-2.12
-2.35
-2.43
-2.34
-2.09
-1.71
-1.24
-0.77
-0.32
0.10
0.52
0.98
1.44
1.84
2.08
2.08
1.83
1.40
0.92
0.53
0.37
0.47
0.80
1.23
1.58
1.72
1.58
1.20
0.72
0.29
0.01
-0.11
-0.15
-0.23
-0.41
-0.69
-1.00
-1.29
-1.52
-1.69
-1.83
-1.93
-1.98
-1.98
-1.97
-2.02
-2.17
-2.43
-2.69
-2.81
-2.67
-2.21
-1.46
-0.54
0.41
1.27
1.93
2.37
2.55
2.50
2.29
2.00
1.74
1.55
1.45
1.42
1.43
1.50
1.64
1.81
1.98
2.05
1.94
1.58
0.98
0.21
-0.65
-1.45
-2.06
-2.37
-2.34
-2.04
-1.61
-1.23
-1.07
-1.18
-1.52
-1.99
-2.47
-2.87
-3.10
-3.10
-2.80
-2.19
-1.34
-0.39
0.48
1.16
1.62
1.93
2.18
2.42
2.61
2.68
2.56
2.23
1.75
1.21
0.69
0.31
0.11
0.12
0.35
0.78
1.32
1.85
2.22
2.27
1.93
1.21
0.23
-0.79
-1.62
-2.09
-2.13
-1.79
-1.25
-0.71
-0.37
-0.31
-0.53
-0.92
-1.34
-1.65
-1.76
-1.64
-1.30
-0.82
-0.30
0.13
0.36
0.35
0.13
-0.19
-0.43
-0.45
-0.17
0.36
1.00
1.59
2.03
2.28
2.33
2.21
1.95
1.58
1.13
0.67
0.25
-0.09
-0.35
-0.56
-0.75
-0.92
-1.04
-1.10
-1.09
-1.05
-1.03
-1.08
-1.22
-1.46
-1.78
-2.15
-2.51
-2.78
-2.86
-2.62
-2.06
-1.22
-0.23
0.73
1.50
2.00
2.22
2.18
1.94
1.54
1.04
0.55
0.16
-0.01
0.07
0.36
0.76
1.09
1.24
1.16
0.92
0.65
0.50
0.54
0.73
0.97
1.09
0.98
0.60
0.02
-0.64
-1.21
-1.59
-1.78
-1.87
-2.01
-2.31
-2.82
-3.42
-3.96
-4.26
-4.21
-3.79
-3.04
-2.05
-0.93
0.16
1.06
1.62
1.77
1.58
1.19
0.83
0.61
0.59
0.67
0.80
0.93
1.11
1.38
1.74
2.11
2.38
2.46
2.38
2.21
2.07
2.03
2.02
1.91
1.58
0.97
0.21
-0.51
-0.97
-1.07
-0.88
-0.63
-0.61
-1.02
-1.85
-2.92
-3.88
-4.44
-4.43
-3.86
-2.91
-1.81
-0.77
0.07
0.64
0.96
1.08
1.08
1.07
1.16
1.36
1.62
1.82
1.84
1.61
1.22
0.82
0.59
0.66
1.00
1.45
1.84
2.03
1.98
1.75
1.44
1.15
0.92
0.74
0.62
0.52
0.46
0.41
0.32
0.10
-0.33
-1.00
-1.86
-2.75
-3.48
-3.87
-3.84
-3.39
-2.62
-1.67
-0.70
0.16
0.78
1.09
1.07
0.77
0.32
-0.11
-0.43
-0.58
-0.60
-0.57
-0.53
-0.51
-0.45
-0.26
0.14
0.73
1.41
2.00
2.30
2.20
1.66
0.81
-0.18
-1.12
-1.84
-2.22
-2.23
-1.85
-1.17
-0.37
0.36
0.81
0.88
0.63
0.18
-0.27
-0.56
-0.60
-0.35
0.22
1.06
2.06
3.05
3.82
4.23
4.16
3.64
2.76
1.67
0.54
-0.48
-1.25
-1.66
-1.62
-1.15
-0.32
0.71
1.75
2.60
3.15
3.34
3.22
2.89
2.48
2.07
1.66
1.17
0.51
-0.39
-1.46
-2.58
-3.57
-4.36
-5.00
-5.58
-6.18
-6.75
-7.11
-7.03
-6.41
-5.31
-3.99
-2.75
-1.80
-1.18
-0.79
-0.45
-0.03
0.49
1.02
1.46
1.70
1.73
1.62
1.47
1.41
1.50
1.73
2.03
2.32
2.54
2.66
2.66
2.55
2.31
1.95
1.47
0.96
0.52
0.23
0.10
0.00
-0.23
-0.78
-1.64
-2.68
-3.63
-4.20
-4.24
-3.75
-2.90
-1.88
-0.83
0.19
1.16
2.06
2.78
3.22
3.31
3.08
2.67
2.22
1.84
1.56
1.35
1.22
1.14
1.16
1.28
1.49
1.71
1.85
1.85
1.72
1.54
1.40
1.37
1.44
1.55
1.59
1.50
1.26
0.94
0.59
0.29
0.03
-0.23
-0.54
-0.89
-1.22
-1.46
-1.55
-1.44
-1.10
-0.52
0.27
1.27
2.35
3.38
4.20
4.70
4.87
4.81
4.66
4.57
4.57
4.63
4.63
4.46
4.05
3.48
2.85
2.33
2.00
1.84
1.74
1.57
1.27
0.88
0.49
0.17
-0.12
-0.48
-1.07
-1.95
-3.00
-4.03
-4.81
-5.25
-5.37
-5.34
-5.29
-5.27
-5.24
-5.09
-4.75
-4.19
-3.47
-2.65
-1.80
-0.96
-0.14
0.63
1.29
1.77
1.96
1.82
1.40
0.81
0.25
-0.09
-0.11
0.16
0.56
0.89
0.97
0.77
0.38
-0.04
-0.36
-0.55
-0.64
-0.70
-0.80
-0.94
-1.12
-1.36
-1.71
-2.24
-2.96
-3.78
-4.55
-5.04
-5.14
-4.83
-4.19
-3.37
-2.48
-1.60
-0.75
0.07
0.85
1.55
2.16
2.62
2.93
3.04
2.95
2.65
2.22
1.73
1.30
1.03
0.95
1.04
1.23
1.45
1.61
1.69
1.64
1.43
1.10
0.67
0.24
-0.12
-0.39
-0.64
-0.94
-1.37
-1.91
-2.43
-2.79
-2.91
-2.85
-2.77
-2.86
-3.23
-3.81
-4.41
-4.81
-4.86
-4.52
-3.86
-2.99
-2.06
-1.18
-0.43
0.16
0.66
1.13
1.63
2.12
2.50
2.65
2.49
2.09
1.58
1.17
1.03
1.20
1.66
2.23
2.74
3.01
2.97
2.70
2.36
2.15
2.18
2.41
2.66
2.75
2.57
2.17
1.66
1.17
0.77
0.47
0.23
0.05
-0.09
-0.18
-0.26
-0.37
-0.50
-0.57
-0.43
0.01
0.74
1.59
2.35
2.82
2.96
2.87
2.75
2.75
2.89
3.09
3.17
3.04
2.69
2.20
1.71
1.31
1.02
0.83
0.69
0.59
0.54
0.53
0.55
0.57
0.53
0.40
0.18
-0.12
-0.48
-0.86
-1.26
-1.69
-2.13
-2.55
-2.94
-3.31
-3.67
-4.09
-4.55
-5.02
-5.38
-5.52
-5.33
-4.80
-3.99
-3.02
-1.98
-0.99
-0.14
0.47
0.80
0.85
0.67
0.36
0.01
-0.27
-0.44
-0.45
-0.29
-0.00
0.31
0.49
0.43
0.12
-0.33
-0.67
-0.72
-0.41
0.11
0.58
0.76
0.58
0.13
-0.43
-0.92
-1.32
-1.67
-2.06
-2.49
-2.91
-3.22
-3.35
-3.33
-3.27
-3.25
-3.31
-3.38
-3.32
-2.99
-2.34
-1.44
-0.44
0.50
1.23
1.74
2.05
2.23
2.35
2.39
2.32
2.08
1.64
1.04
0.42
-0.05
-0.27
-0.21
0.01
0.23
0.28
0.13
-0.12
-0.33
-0.35
-0.20
0.01
0.11
0.00
-0.29
-0.65
-0.97
-1.23
-1.54
-2.01
-2.72
-3.59
-4.42
-4.95
-4.98
-4.44
-3.42
-2.17
-0.94
0.04
0.66
0.94
1.05
1.19
1.49
1.95
2.43
2.73
2.74
2.44
1.98
1.56
1.33
1.34
1.52
1.74
1.92
2.04
2.14
2.26
2.39
2.48
2.48
2.37
2.18
1.95
1.69
1.42
1.09
0.70
0.28
-0.12
-0.44
-0.67
-0.81
-0.85
-0.76
-0.52
-0.10
0.48
1.14
1.80
2.37
2.84
3.18
3.39
3.48
3.44
3.29
3.04
2.72
2.33
1.90
1.46
1.04
0.71
0.49
0.37
0.29
0.21
0.10
-0.02
-0.15
-0.26
-0.38
-0.56
-0.80
-1.13
-1.52
-1.96
-2.42
-2.86
-3.26
-3.60
-3.88
-4.09
-4.22
-4.25
-4.09
-3.68
-2.99
-2.12
-1.17
-0.26
0.52
1.15
1.61
1.89
1.94
1.73
1.29
0.69
0.07
-0.42
-0.68
-0.66
-0.39
0.03
0.48
0.84
1.03
1.06
0.99
0.88
0.73
0.53
0.21
-0.26
-0.84
-1.45
-1.97
-2.35
-2.57
-2.69
-2.77
-2.84
-2.89
-2.84
-2.64
-2.24
-1.66
-0.97
-0.26
0.40
0.94
1.32
1.49
1.44
1.17
0.76
0.29
-0.13
-0.44
-0.62
-0.69
-0.72
-0.70
-0.63
-0.48
-0.25
-0.01
0.14
0.14
-0.01
-0.24
-0.46
-0.61
-0.70
-0.80
-1.02
-1.41
-1.98
-2.66
-3.34
-3.88
-4.19
-4.19
-3.84
-3.19
-2.35
-1.47
-0.67
-0.00
0.53
0.99
1.39
1.71
1.85
1.76
1.43
0.98
0.58
0.41
0.55
0.97
1.54
2.10
2.49
2.64
2.54
2.28
1.98
1.75
1.67
1.74
1.91
2.07
2.16
2.11
1.93
1.64
1.24
0.72
0.11
-0.52
-0.99
-1.13
-0.80
0.01
1.17
2.47
3.70
4.69
5.33
5.61
5.56
5.30
4.94
4.59
4.26
3.90
3.42
2.81
2.15
1.62
1.39
1.50
1.85
2.23
2.41
2.23
1.68
0.88
0.01
-0.76
-1.32
-1.67
-1.91
-2.18
-2.57
-3.11
-3.71
-4.22
-4.51
-4.53
-4.30
-3.86
-3.24
-2.43
-1.43
-0.33
0.73
1.54
1.95
1.93
1.61
1.18
0.85
0.70
0.72
0.81
0.87
0.87
0.81
0.69
0.53
0.34
0.13
-0.08
-0.23
-0.27
-0.20
-0.08
-0.04
-0.16
-0.52
-1.07
-1.72
-2.34
-2.86
-3.23
-3.46
-3.57
-3.55
-3.38
-3.06
-2.61
-2.05
-1.44
-0.80
-0.14
0.53
1.17
1.66
1.91
1.87
1.60
1.22
0.92
0.77
0.81
0.95
1.12
1.26
1.38
1.47
1.51
1.45
1.24
0.89
0.48
0.11
-0.12
-0.18
-0.10
0.00
0.02
-0.14
-0.50
-0.99
-1.51
-2.01
-2.43
-2.80
-3.15
-3.45
-3.63
-3.59
-3.27
-2.68
-1.92
-1.13
-0.43
0.19
0.79
1.39
1.97
2.37
2.46
2.17
1.62
0.99
0.50
0.28
0.29
0.40
0.47
0.45
0.39
0.43
0.62
0.96
1.30
1.52
1.52
1.32
1.01
0.68
0.38
0.11
-0.18
-0.47
-0.71
-0.84
-0.86
-0.84
-0.87
-1.03
-1.30
-1.62
-1.89
-2.01
-1.95
-1.69
-1.26
-0.67
0.01
0.73
1.41
2.01
2.51
2.92
3.27
3.55
3.75
3.85
3.88
3.84
3.76
3.69
3.65
3.66
3.73
3.86
4.01
4.15
4.22
4.22
4.16
4.05
3.86
3.53
3.02
2.36
1.69
1.17
0.93
0.97
1.16
1.30
1.23
0.88
0.32
-0.34
-0.98
-1.51
-1.93
-2.23
-2.41
-2.44
-2.30
-1.96
-1.46
-0.85
-0.23
0.31
0.67
0.80
0.70
0.43
0.07
-0.26
-0.50
-0.64
-0.69
-0.71
-0.75
-0.87
-1.08
-1.36
-1.66
-1.92
-2.07
-2.05
-1.85
-1.50
-1.08
-0.67
-0.40
-0.33
-0.45
-0.73
-1.08
-1.46
-1.84
-2.24
-2.65
-3.05
-3.37
-3.52
-3.48
-3.31
-3.11
-3.00
-2.99
-2.97
-2.77
-2.26
-1.42
-0.40
0.53
1.16
1.34
1.10
0.63
0.15
-0.15
-0.21
-0.03
0.29
0.64
0.93
1.10
1.10
0.96
0.71
0.43
0.20
0.05
-0.03
-0.14
-0.36
-0.75
-1.30
-1.88
-2.35
-2.64
-2.74
-2.75
-2.77
-2.92
-3.22
-3.63
-4.08
-4.51
-4.88
-5.15
-5.33
-5.40
-5.34
-5.11
-4.69
-4.08
-3.33
-2.50
-1.66
-0.85
-0.11
0.54
1.06
1.42
1.60
1.63
1.63
1.71
1.95
2.32
2.76
3.18
3.50
3.68
3.69
3.53
3.24
2.88
2.55
2.33
2.20
2.06
1.76
1.21
0.46
-0.27
-0.71
-0.72
-0.31
0.30
0.85
1.12
1.07
0.76
0.35
0.01
-0.13
0.00
0.43
1.08
1.82
2.51
3.04
3.35
3.46
3.43
3.29
3.05
2.70
2.30
1.98
1.84
1.95
2.22
2.47
2.51
2.24
1.75
1.21
0.82
0.65
0.65
0.66
0.50
0.13
-0.38
-0.84
-1.10
-1.11
-0.93
-0.74
-0.71
-0.96
-1.44
-2.03
-2.56
-2.90
-3.07
-3.11
-3.09
-3.01
-2.83
-2.49
-1.97
-1.33
-0.68
-0.12
0.36
0.76
1.13
1.45
1.63
1.61
1.37
1.02
0.72
0.58
0.62
0.73
0.81
0.79
0.70
0.62
0.59
0.61
0.61
0.53
0.35
0.11
-0.11
-0.28
-0.41
-0.54
-0.72
-0.94
-1.17
-1.39
-1.59
-1.80
-2.05
-2.35
-2.71
-3.13
-3.60
-4.10
-4.56
-4.87
-4.87
-4.48
-3.68
-2.60
-1.44
-0.45
0.19
0.42
0.34
0.10
-0.10
-0.14
0.02
0.29
0.56
0.71
0.69
0.56
0.42
0.42
0.58
0.82
1.01
1.00
0.79
0.46
0.17
0.03
0.05
0.14
0.18
0.08
-0.14
-0.40
-0.59
-0.67
-0.64
-0.59
-0.57
-0.59
-0.60
-0.52
-0.28
0.14
0.73
1.44
2.21
2.98
3.68
4.26
4.67
4.90
4.95
4.84
4.63
4.37
4.10
3.89
3.80
3.90
4.21
4.64
5.04
5.22
5.08
4.62
4.00
3.42
3.05
2.94
3.02
3.14
3.16
3.01
2.69
2.26
1.76
1.22
0.65
0.07
-0.43
-0.78
-0.95
-1.00
-1.04
-1.21
-1.54
-1.96
-2.27
-2.31
-2.01
-1.44
-0.80
-0.28
0.01
0.05
-0.09
-0.34
-0.65
-0.95
-1.22
-1.40
-1.47
-1.43
-1.37
-1.33
-1.35
-1.38
-1.32
-1.11
-0.75
-0.34
-0.02
0.11
0.02
-0.26
-0.64
-1.02
-1.37
-1.66
-1.90
-2.10
-2.27
-2.46
-2.69
-2.96
-3.23
-3.42
-3.41
-3.12
-2.55
-1.76
-0.92
-0.18
0.39
0.81
1.14
1.47
1.78
1.96
1.91
1.56
1.03
0.49
0.18
0.18
0.46
0.83
1.08
1.11
0.96
0.79
0.74
0.87
1.09
1.24
1.16
0.78
0.16
-0.55
-1.14
-1.46
-1.46
-1.23
-0.91
-0.71
-0.76
-1.11
-1.72
-2.47
-3.17
-3.68
-3.88
-3.74
-3.31
-2.70
-2.08
-1.62
-1.41
-1.43
-1.54
-1.57
-1.42
-1.08
-0.69
-0.38
-0.24
-0.25
-0.32
-0.38
-0.41
-0.46
-0.60
-0.84
-1.10
-1.25
-1.21
-0.96
-0.61
-0.30
-0.18
-0.27
-0.49
-0.72
-0.84
-0.82
-0.73
-0.68
-0.76
-0.98
-1.26
-1.49
-1.59
-1.58
-1.52
-1.51
-1.57
-1.63
-1.57
-1.28
-0.78
-0.18
0.39
0.83
1.12
1.38
1.69
2.10
2.53
2.87
3.05
3.07
3.00
2.91
2.83
2.72
2.54
2.31
2.15
2.18
2.49
3.01
3.57
3.93
3.92
3.55
2.94
2.32
1.91
1.80
1.99
2.34
2.66
2.80
2.65
2.23
1.65
1.05
0.60
0.39
0.40
0.52
0.62
0.62
0.57
0.56
0.71
1.01
1.33
1.52
1.44
1.14
0.76
0.49
0.44
0.58
0.77
0.85
0.74
0.45
0.07
-0.34
-0.73
-1.05
-1.30
-1.46
-1.53
-1.59
-1.71
-1.97
-2.32
-2.63
-2.76
-2.64
-2.37
-2.13
-2.12
-2.41
-2.91
-3.44
-3.83
-4.04
-4.13
-4.16
-4.18
-4.10
-3.80
-3.21
-2.39
-1.52
-0.84
-0.46
-0.36
-0.39
-0.38
-0.29
-0.17
-0.16
-0.35
-0.70
-1.03
-1.19
-1.10
-0.82
-0.53
-0.37
-0.37
-0.43
-0.44
-0.33
-0.12
0.09
0.18
0.09
-0.19
-0.64
-1.24
-1.94
-2.64
-3.22
-3.55
-3.55
-3.22
-2.65
-1.98
-1.32
-0.75
-0.31
-0.02
0.10
0.06
-0.09
-0.28
-0.40
-0.36
-0.13
0.30
0.87
1.48
2.02
2.35
2.35
2.00
1.39
0.70
0.11
-0.23
-0.29
-0.17
-0.02
0.06
0.05
0.00
-0.04
-0.08
-0.17
-0.40
-0.77
-1.20
-1.57
-1.79
-1.84
-1.78
-1.69
-1.55
-1.33
-0.97
-0.46
0.12
0.65
1.03
1.23
1.30
1.34
1.39
1.47
1.50
1.43
1.23
0.92
0.58
0.33
0.24
0.37
0.65
0.97
1.20
1.25
1.10
0.82
0.50
0.19
-0.10
-0.39
-0.75
-1.21
-1.80
-2.48
-3.15
-3.70
-3.99
-3.91
-3.42
-2.60
-1.62
-0.69
0.02
0.46
0.70
0.84
0.98
1.10
1.14
1.02
0.75
0.41
0.14
0.04
0.10
0.26
0.41
0.48
0.44
0.30
0.09
-0.18
-0.48
-0.78
-1.02
-1.20
-1.32
-1.48
-1.77
-2.23
-2.83
-3.45
-3.97
-4.24
-4.26
-4.04
-3.67
-3.19
-2.62
-1.95
-1.18
-0.35
0.44
1.07
1.47
1.59
1.46
1.13
0.66
0.10
-0.48
-0.98
-1.29
-1.28
-0.96
-0.40
0.18
0.59
0.71
0.53
0.20
-0.13
-0.33
-0.41
-0.45
-0.53
-0.72
-0.99
-1.24
-1.41
-1.49
-1.55
-1.64
-1.76
-1.83
-1.70
-1.29
-0.60
0.22
0.98
1.55
1.93
2.23
2.57
2.99
3.40
3.63
3.58
3.23
2.75
2.33
2.17
2.36
2.85
3.56
4.31
4.98
5.45
5.65
5.58
5.27
4.83
4.37
3.95
3.59
3.22
2.79
2.24
1.58
0.86
0.16
-0.45
-0.87
-1.03
-0.86
-0.34
0.47
1.46
2.45
3.27
3.81
4.06
4.04
3.85
3.59
3.34
3.14
3.01
2.90
2.78
2.60
2.38
2.17
2.03
1.99
2.03
2.04
1.91
1.57
1.01
0.36
-0.27
-0.76
-1.08
-1.29
-1.49
-1.72
-2.04
-2.43
-2.84
-3.23
-3.58
-3.83
-3.89
-3.66
-3.08
-2.19
-1.09
0.00
0.89
1.46
1.67
1.59
1.33
1.02
0.80
0.74
0.84
1.00
1.11
1.05
0.84
0.62
0.55
0.67
0.91
1.07
0.98
0.62
0.10
-0.40
-0.73
-0.90
-1.00
-1.14
-1.35
-1.61
-1.85
-2.05
-2.24
-2.46
-2.71
-2.92
-2.98
-2.80
-2.34
-1.64
-0.79
0.12
0.99
1.72
2.26
2.60
2.75
2.77
2.73
2.67
2.58
2.45
2.28
2.12
2.04
2.08
2.23
2.42
2.53
2.45
2.18
1.72
1.16
0.55
-0.04
-0.57
-0.99
-1.30
-1.51
-1.68
-1.88
-2.14
-2.45
-2.77
-3.09
-3.40
-3.71
-3.99
-4.17
-4.12
-3.77
-3.12
-2.28
-1.45
-0.77
-0.30
0.03
0.34
0.72
1.16
1.61
1.98
2.25
2.44
2.60
2.75
2.88
2.91
2.81
2.59
2.32
2.11
2.02
2.06
2.17
2.25
2.24
2.10
1.87
1.61
1.40
1.29
1.26
1.31
1.41
1.53
1.61
1.60
1.42
1.02
0.42
-0.26
-0.83
-1.13
-1.01
-0.44
0.51
1.68
2.84
3.76
4.25
4.25
3.85
3.26
2.71
2.39
2.33
2.48
2.70
2.91
3.05
3.10
3.06
2.91
2.62
2.22
1.81
1.47
1.28
1.24
1.31
1.37
1.37
1.27
1.06
0.73
0.28
-0.34
-1.15
-2.09
-3.07
-3.93
-4.57
-4.96
-5.16
-5.28
-5.39
-5.47
-5.41
-5.10
-4.43
-3.46
-2.32
-1.25
-0.45
-0.03
0.02
-0.16
-0.40
-0.58
-0.64
-0.62
-0.63
-0.69
-0.81
-0.91
-0.94
-0.91
-0.90
-0.98
-1.16
-1.38
-1.50
-1.44
-1.15
-0.72
-0.26
0.10
0.27
0.21
-0.08
-0.53
-1.07
-1.56
-1.90
-1.99
-1.86
-1.62
-1.45
-1.50
-1.81
-2.29
-2.71
-2.81
-2.46
-1.67
-0.68
0.22
0.80
1.01
0.97
0.90
0.96
1.16
1.40
1.50
1.38
1.03
0.59
0.21
0.02
0.06
0.29
0.64
1.02
1.36
1.60
1.71
1.65
1.41
1.00
0.49
0.02
-0.30
-0.40
-0.28
-0.05
0.12
0.13
-0.08
-0.46
-0.93
-1.46
-2.02
-2.57
-3.05
-3.32
-3.26
-2.83
-2.13
-1.38
-0.78
-0.44
-0.27
-0.10
0.22
0.70
1.20
1.51
1.49
1.18
0.77
0.48
0.43
0.59
0.79
0.87
0.79
0.62
0.51
0.51
0.60
0.67
0.62
0.44
0.21
0.04
-0.00
0.01
-0.03
-0.25
-0.68
-1.22
-1.71
-2.00
-2.02
-1.80
-1.47
-1.17
-0.98
-0.94
-0.98
-0.99
-0.88
-0.60
-0.15
0.44
1.12
1.87
2.62
3.29
3.78
3.99
3.92
3.66
3.36
3.18
3.15
3.22
3.26
3.22
3.11
3.03
3.05
3.13
3.18
3.10
2.87
2.58
2.38
2.32
2.36
2.34
2.14
1.70
1.11
0.50
-0.04
-0.46
-0.81
-1.11
-1.35
-1.51
-1.57
-1.59
-1.67
-1.89
-2.26
-2.69
-3.04
-3.18
-3.02
-2.54
-1.80
-0.90
0.06
0.96
1.66
2.09
2.23
2.11
1.85
1.57
1.37
1.27
1.21
1.10
0.90
0.57
0.15
-0.28
-0.67
-0.95
-1.11
-1.15
-1.08
-0.93
-0.78
-0.73
-0.88
-1.28
-1.89
-2.59
-3.21
-3.63
-3.81
-3.75
-3.54
-3.27
-3.00
-2.79
-2.66
-2.60
-2.55
-2.43
-2.18
-1.77
-1.24
-0.69
-0.21
0.10
0.21
0.16
-0.00
-0.19
-0.35
-0.42
-0.39
-0.26
-0.03
0.28
0.60
0.88
1.03
1.04
0.95
0.85
0.83
0.92
1.07
1.21
1.23
1.12
0.88
0.54
0.09
-0.48
-1.18
-1.97
-2.71
-3.24
-3.46
-3.35
-3.02
-2.61
-2.24
-1.94
-1.69
-1.40
-1.01
-0.53
-0.02
0.42
0.68
0.72
0.56
0.28
0.00
-0.19
-0.28
-0.32
-0.41
-0.60
-0.89
-1.20
-1.45
-1.60
-1.68
-1.75
-1.89
-2.09
-2.32
-2.46
-2.45
-2.30
-2.09
-1.96
-2.02
-2.30
-2.71
-3.09
-3.28
-3.22
-3.00
-2.77
-2.70
-2.81
-2.95
-2.90
-2.47
-1.66
-0.65
0.30
1.01
1.47
1.81
2.16
2.60
3.03
3.31
3.31
3.07
2.70
2.39
2.25
2.27
2.36
2.41
2.37
2.30
2.26
2.32
2.46
2.60
2.60
2.37
1.89
1.26
0.63
0.17
-0.01
0.10
0.42
0.79
1.04
1.06
0.82
0.45
0.11
-0.00
0.19
0.67
1.33
2.01
2.59
3.02
3.30
3.46
3.50
3.43
3.25
2.96
2.64
2.33
2.14
2.09
2.21
2.43
2.66
2.78
2.68
2.32
1.76
1.12
0.54
0.15
-0.04
-0.10
-0.14
-0.21
-0.32
-0.46
-0.60
-0.80
-1.14
-1.65
-2.27
-2.84
-3.16
-3.15
-2.85
-2.40
-1.98
-1.65
-1.37
-1.07
-0.68
-0.25
0.10
0.24
0.09
-0.32
-0.89
-1.48
-1.93
-2.12
-1.98
-1.57
-1.02
-0.53
-0.27
-0.32
-0.62
-1.08
-1.53
-1.88
-2.08
-2.13
-2.08
-1.96
-1.81
-1.67
-1.59
-1.61
-1.73
-1.96
-2.26
-2.57
-2.77
-2.70
-2.26
-1.42
-0.34
0.72
1.50
1.85
1.84
1.65
1.55
1.64
1.89
2.12
2.12
1.81
1.28
0.74
0.40
0.36
0.57
0.86
1.06
1.05
0.85
0.51
0.15
-0.19
-0.46
-0.70
-0.92
-1.17
-1.47
-1.85
-2.33
-2.91
-3.52
-4.05
-4.39
-4.47
-4.30
-3.96
-3.58
-3.24
-2.91
-2.52
-1.98
-1.26
-0.45
0.25
0.66
0.69
0.40
-0.00
-0.28
-0.28
0.04
0.54
1.01
1.28
1.27
0.99
0.58
0.18
-0.11
-0.27
-0.33
-0.35
-0.35
-0.35
-0.33
-0.32
-0.37
-0.56
-0.97
-1.57
-2.28
-2.96
-3.48
-3.78
-3.87
-3.80
-3.58
-3.23
-2.69
-1.95
-1.07
-0.14
0.65
1.20
1.44
1.41
1.21
0.94
0.66
0.38
0.11
-0.15
-0.34
-0.37
-0.15
0.35
1.02
1.66
2.08
2.15
1.91
1.54
1.28
1.31
1.69
2.31
2.97
3.47
3.67
3.55
3.18
2.66
2.12
1.66
1.35
1.18
1.13
1.13
1.13
1.14
1.18
1.31
1.51
1.78
2.08
2.39
2.72
3.12
3.59
4.09
4.53
4.79
4.77
4.45
3.86
3.13
2.40
1.80
1.43
1.30
1.38
1.63
1.97
2.34
2.68
2.91
2.93
2.65
2.03
1.11
0.07
-0.86
-1.48
-1.72
-1.68
-1.56
-1.62
-1.98
-2.60
-3.25
-3.63
-3.52
