1565786198.00
64.000000
-0.00
-0.00
-0.00
-0.00
-0.00
-0.00
-0.00
-0.00
-0.00
-0.00
0.00
0.01
0.01
-0.00
-0.03
-0.05
-0.05
0.00
0.13
0.36
0.66
1.01
1.37
1.72
2.06
2.40
2.79
3.24
3.80
4.42
5.06
5.66
6.20
6.68
7.15
7.68
8.31
9.14
10.09
11.04
11.88
12.56
13.14
13.76
14.65
15.96
17.91
20.32
22.90
25.38
27.58
29.57
31.68
34.32
37.81
42.54
48.15
54.10
59.83
64.97
69.58
74.14
79.34
85.71
93.76
103.00
112.62
121.73
129.77
136.75
143.30
150.75
157.77
166.64
177.95
191.79
206.97
220.57
228.25
225.36
208.53
176.87
132.76
80.05
23.07
-34.95
-92.44
-149.16
-205.23
-260.37
-313.73
-363.86
-409.80
-450.86
-486.43
-515.63
-537.08
-549.03
-549.73
-538.08
-513.86
-478.26
-433.40
-381.91
-326.41
-269.16
-211.87
-155.82
-102.04
-51.37
-4.81
36.77
72.72
102.77
127.04
146.07
160.54
171.17
178.59
183.20
185.27
185.05
182.79
178.86
173.66
167.61
161.04
154.20
147.25
140.25
133.23
126.25
119.37
112.66
106.19
100.02
94.17
88.67
83.52
78.72
74.30
70.25
66.59
63.34
60.49
58.04
55.98
54.29
52.91
51.78
50.78
49.78
48.61
47.09
45.04
42.31
38.78
34.42
29.25
23.34
16.87
10.07
3.19
-3.47
-9.63
-15.06
-19.59
-23.08
-25.50
-26.87
-27.26
-26.80
-25.64
-23.93
-21.83
-19.47
-16.94
-14.33
-11.68
-9.04
-6.44
-3.88
-1.38
1.07
3.52
5.97
8.48
11.08
13.76
16.51
19.34
22.27
25.29
28.42
31.69
35.11
38.75
42.51
46.33
50.20
54.13
58.14
62.27
66.59
71.17
76.12
81.31
86.65
92.09
97.59
103.12
108.65
114.18
119.71
125.29
130.63
135.52
139.75
143.11
145.33
146.08
144.89
141.09
136.02
130.18
123.89
117.41
110.89
104.49
98.30
92.42
86.94
81.96
77.28
72.74
68.27
63.78
59.26
54.72
50.21
45.81
41.67
37.71
33.90
30.29
26.91
23.78
20.94
18.38
16.11
14.13
12.30
10.57
8.91
7.34
5.87
4.56
3.40
2.40
1.56
0.82
0.20
-0.28
-0.56
-0.59
-0.33
0.15
0.77
1.39
1.89
2.21
2.37
2.42
2.43
2.35
2.00
1.09
-0.70
-3.59
-7.61
-12.55
-18.03
-23.70
-29.40
-35.23
-41.61
-48.98
-57.64
-67.55
-78.22
-88.97
-99.14
-108.47
-117.26
-126.32
-136.60
-148.88
-163.31
-179.44
-196.37
-213.15
-229.24
-244.69
-260.20
-276.97
-296.47
-320.10
-348.63
-381.47
-416.05
-448.06
-472.35
-484.68
-483.23
-469.32
-446.83
-420.57
-394.44
-370.26
-347.76
-325.33
-301.17
-273.98
-243.29
-209.30
-172.73
-134.70
-96.66
-60.23
-26.84
2.67
28.18
50.41
70.57
89.83
108.94
127.98
146.51
163.74
178.72
190.16
196.41
195.63
186.42
168.77
144.60
117.74
92.79
73.73
62.60
59.25
61.82
67.70
74.43
79.94
82.62
81.18
75.05
64.75
52.30
40.80
33.52
32.73
38.57
48.94
60.15
68.20
70.24
65.46
55.27
42.58
30.85
22.85
20.00
22.08
27.47
33.77
38.60
40.36
38.65
34.20
28.40
22.63
17.73
13.82
10.56
7.59
4.93
2.94
2.20
3.03
5.38
8.64
11.84
13.88
13.80
11.14
6.22
0.25
-4.90
-7.25
-5.49
0.55
9.88
20.63
30.79
38.64
43.09
43.68
40.62
34.86
28.16
22.91
21.35
24.84
32.96
43.54
53.26
59.04
59.28
54.46
46.92
39.84
35.92
36.52
41.23
48.43
56.13
62.88
68.21
72.58
76.95
82.26
88.91
96.42
103.44
107.82
107.11
99.14
82.83
58.89
29.88
-0.30
-27.52
-48.61
-62.16
-68.63
-69.81
-67.94
-65.10
-62.87
-62.36
-64.19
-68.36
-74.09
-79.81
-83.49
-83.28
-78.27
-68.75
-56.07
-41.98
-27.92
-14.83
-3.28
6.11
12.60
15.52
14.86
11.59
7.46
4.14
2.41
1.88
1.50
0.39
-1.59
-3.78
-5.36
-6.05
-6.29
-6.86
-8.19
-9.87
-10.78
-9.88
-6.80
-2.19
2.59
6.19
7.92
7.92
6.79
5.02
2.69
-0.61
-5.30
-11.53
-18.86
-26.37
-33.00
-37.91
-40.71
-41.45
-40.77
-39.67
-39.40
-40.84
-44.18
-48.53
-52.14
-53.15
-50.31
-43.61
-34.11
-23.33
-12.44
-2.12
7.23
15.02
20.22
21.74
19.27
13.81
7.83
4.40
6.01
13.38
24.94
37.09
45.22
45.11
34.44
13.79
-13.19
-40.51
-61.46
-70.50
-65.14
-46.68
-19.82
8.99
33.62
50.00
56.92
55.71
49.24
40.69
32.84
27.64
26.11
28.22
32.82
37.63
39.77
36.72
27.47
13.16
-3.12
-17.48
-26.63
-28.97
-24.81
-15.88
-4.48
7.21
17.47
25.07
29.26
29.95
27.83
24.26
20.86
18.78
18.24
18.47
18.19
16.41
12.98
8.69
4.79
2.29
1.48
1.83
2.45
2.62
2.17
1.48
1.05
1.14
1.48
1.51
0.79
-0.56
-1.89
-2.34
-1.30
1.20
4.58
7.91
10.24
10.78
8.98
4.60
-1.99
-9.60
-16.17
-19.41
-17.72
-11.11
-1.41
8.45
15.59
18.46
17.34
13.82
9.84
6.75
4.90
4.06
3.90
4.40
5.78
8.07
10.68
12.51
12.28
9.26
3.74
-2.94
-8.78
-11.86
-11.03
-6.33
1.10
9.52
17.18
22.85
26.15
27.46
27.68
27.88
28.84
30.96
34.02
37.26
39.67
40.41
39.27
36.93
34.68
33.76
34.55
36.02
36.09
32.57
24.43
12.59
-0.30
-10.92
-16.76
-17.26
-13.92
-9.52
-6.69
-6.77
-9.39
-13.01
-16.00
-17.60
-18.26
-19.17
-21.37
-24.95
-29.05
-32.31
-33.67
-32.85
-30.34
-26.90
-22.92
-18.29
-12.76
-6.57
-0.72
3.16
3.61
0.16
-6.29
-13.71
-19.82
-23.02
-22.95
-20.46
-17.02
-14.00
-12.15
-11.57
-11.99
-13.15
-15.03
-17.74
-21.30
-25.52
-29.99
-34.09
-37.09
-38.27
-37.09
-33.35
-27.51
-20.84
-15.20
-12.45
-13.73
-18.89
-26.40
-34.01
-39.54
-41.70
-40.40
-36.57
-31.70
-27.31
-24.61
-24.21
-25.96
-28.88
-31.31
-31.25
-27.00
-17.88
-4.63
10.67
25.23
36.54
43.19
45.36
44.58
42.97
42.19
42.74
43.84
43.97
41.69
36.51
29.07
21.00
14.13
9.83
8.46
9.30
10.83
11.43
9.87
5.85
-0.00
-6.31
-11.59
-14.74
-15.36
-13.76
-10.73
-7.26
-4.39
-3.16
-4.42
-8.76
-16.26
-26.15
-36.90
-46.40
-52.61
-54.19
-51.14
-44.87
-37.90
-32.98
-32.20
-36.34
-44.64
-55.00
-64.64
-70.87
-71.59
-65.55
-52.36
-32.47
-6.88
22.97
55.21
87.49
117.19
141.74
159.35
169.62
173.53
172.81
168.94
162.39
152.77
139.61
123.45
105.97
89.23
74.07
58.98
40.39
14.46
-20.19
-60.47
-98.96
-126.36
-135.11
-122.82
-93.55
-56.27
-21.29
3.87
16.80
20.26
19.79
20.41
24.29
30.29
35.27
36.18
31.69
22.49
10.50
-2.24
-14.31
-24.82
-32.95
-37.63
-37.70
-32.45
-22.24
-8.64
6.01
19.39
30.04
37.65
42.72
46.12
48.59
50.62
52.58
54.89
57.99
62.16
67.21
72.43
76.76
79.11
78.70
75.26
69.05
60.76
51.41
42.15
34.17
28.52
25.80
25.86
27.75
30.04
31.48
31.77
31.87
33.50
37.99
45.06
52.46
56.57
53.85
42.42
22.79
-2.43
-29.70
-56.03
-79.90
-101.53
-122.58
-145.51
-172.64
-204.87
-240.71
-275.74
-303.44
-317.10
-312.12
-287.57
-246.05
-192.26
-131.33
-68.12
-7.48
45.17
84.17
105.32
108.25
97.74
82.68
72.87
75.03
90.19
113.80
138.32
156.45
163.51
158.08
140.99
114.13
79.90
41.30
2.36
-32.14
-57.77
-72.06
-75.76
-72.86
-69.16
-69.85
-77.43
-90.59
-105.01
-115.34
-117.76
-111.65
-99.63
-85.93
-74.03
-64.79
-56.06
-44.02
-25.50
-0.08
29.17
56.73
77.04
87.07
87.66
82.85
77.63
75.28
75.89
76.84
74.67
67.51
56.25
44.05
34.32
28.75
26.39
24.49
20.25
12.35
1.39
-10.92
-22.76
-32.95
-40.83
-45.86
-47.30
-44.63
-38.24
-29.80
-21.93
-17.15
-16.63
-19.73
-24.38
-28.12
-29.24
-27.33
-23.09
-17.75
-12.44
-7.84
-4.30
-1.87
-0.37
0.68
2.15
5.17
10.67
18.71
28.10
36.59
41.57
41.20
35.43
26.31
17.47
12.76
14.70
23.30
36.09
49.11
58.67
62.78
61.85
58.11
54.26
52.08
51.75
52.06
51.46
49.10
45.51
42.41
41.78
44.69
50.60
57.28
61.42
59.79
50.44
33.46
11.22
-12.32
-32.81
-47.03
-54.00
-55.23
-53.83
-52.95
-54.27
-57.46
-60.59
-61.51
-58.96
-53.10
-44.96
-35.52
-24.93
-12.55
2.31
19.35
36.82
51.73
60.88
62.19
55.88
44.82
34.03
28.96
33.29
46.88
64.92
79.00
80.23
63.05
28.27
-16.45
-59.22
-88.65
-98.49
-90.00
-70.97
-51.77
-40.58
-40.35
-48.40
-58.84
-65.98
-66.94
-62.29
-54.75
-47.17
-40.92
-35.73
-30.51
-24.59
-18.34
-13.02
-9.95
-9.63
-11.43
-14.11
-16.64
-18.70
-20.44
-21.61
-20.95
-16.38
-6.15
9.53
27.53
42.39
48.67
43.77
29.72
12.66
-0.11
-3.54
2.59
13.23
20.22
15.90
-3.56
-36.38
-75.73
-112.70
-139.30
-151.74
-152.07
-147.41
-146.84
-157.20
-179.85
-210.26
-241.30
-266.40
-282.88
-292.80
-301.04
-312.14
-327.92
-346.80
-365.36
-381.23
-392.90
-399.13
-397.61
-384.31
-354.05
-302.23
-226.26
-121.29
9.27
154.79
299.64
428.07
529.56
601.57
647.93
674.49
684.77
676.98
646.66
590.59
510.83
416.09
319.73
235.11
170.94
128.83
103.53
87.31
73.79
60.05
46.28
33.88
23.72
15.39
8.04
0.61
-6.97
-14.04
-19.73
-24.21
-29.05
-36.14
-46.08
-56.55
-62.50
-57.99
-39.11
-6.30
35.36
77.80
112.84
134.40
139.45
127.70
101.12
63.65
20.93
-20.26
-53.57
-74.66
-82.37
-79.10
-69.23
-57.56
-47.67
-41.67
-40.00
-42.40
-48.02
-55.39
-62.26
-65.53
-62.36
-50.66
-30.55
-4.64
22.15
44.42
58.73
64.31
63.34
59.69
56.98
55.91
55.36
52.00
41.47
22.71
-1.47
-25.04
-41.64
-47.62
-44.00
-35.93
-29.61
-28.76
-32.34
-35.75
-33.86
-24.93
-12.51
-3.05
-2.72
-12.75
-27.99
-39.06
-37.89
-21.84
4.39
30.86
47.55
48.86
35.87
14.00
-7.98
-24.06
-32.50
-34.69
-33.48
-30.15
-24.33
-14.67
-0.16
19.13
41.43
64.27
85.79
105.11
122.48
138.00
150.37
156.35
151.66
132.88
99.92
57.07
11.72
-27.69
-54.65
-66.33
-63.64
-50.00
-29.92
-7.73
12.93
28.54
36.21
34.21
22.60
3.78
-17.98
-37.88
-52.25
-57.28
-52.52
-40.37
-25.00
-10.73
-0.80
3.26
1.51
-4.75
-13.35
-22.03
-28.31
-30.16
-26.66
-18.47
-7.67
3.07
11.68
17.49
21.04
23.79
27.23
31.97
37.38
41.59
42.14
36.89
24.83
6.28
-16.99
-42.25
-66.55
-87.18
-101.91
-108.92
-107.11
-96.32
-77.99
-55.14
-31.95
-12.68
-0.58
2.57
-3.44
-17.78
-38.88
-64.36
-90.96
-114.54
-130.97
-137.38
-133.25
-120.79
-103.93
-86.90
-72.49
-61.47
-52.98
-45.76
-39.38
-34.74
-33.61
-37.71
-47.65
-62.53
-80.28
-98.41
-114.91
-128.79
-139.93
-148.68
-155.34
-159.72
-161.12
-158.74
-152.15
-141.72
-128.59
-114.24
-99.98
-86.43
-73.47
-60.65
-47.61
-34.56
-22.28
-11.83
-4.23
-0.13
0.38
-2.15
-6.62
-11.40
-14.53
-14.19
-9.16
0.63
14.12
29.34
44.20
57.22
68.09
77.86
88.82
104.24
127.66
161.65
206.35
258.08
309.28
349.76
369.76
363.07
330.00
277.61
217.99
164.76
129.10
117.28
129.97
163.53
211.93
268.36
325.72
376.69
414.09
432.02
427.70
402.88
364.00
320.39
281.16
252.40
235.77
229.11
228.35
229.50
229.86
228.05
223.48
215.70
204.32
189.10
170.38
148.80
125.44
101.28
77.08
53.39
30.64
9.40
-9.62
-25.83
-39.24
-50.77
-62.31
-76.29
-94.96
-119.53
-149.73
-183.99
-220.07
-255.90
-290.24
-322.74
-353.64
-383.44
-412.79
-442.34
-472.55
-502.85
-530.70
-551.56
-559.77
-550.60
-522.35
-477.08
-419.29
-353.50
-281.97
-204.96
-122.97
-39.75
36.22
93.28
120.76
113.53
74.84
15.85
-47.93
-101.36
-133.45
-139.18
-119.17
-78.39
-24.35
34.08
87.96
129.48
152.99
155.44
136.13
96.40
39.72
-27.94
-97.77
-159.17
-201.77
-218.32
-206.99
-172.13
-123.00
-71.46
-29.64
-7.72
-12.18
-44.01
-97.54
-161.22
-220.62
-262.97
-281.45
-276.88
-256.06
-227.68
-198.51
-171.82
-148.16
-127.32
-109.69
-96.04
-86.30
-78.60
-69.52
-55.26
-33.46
-4.08
30.81
67.90
104.27
138.40
170.60
202.74
237.42
276.71
320.87
367.48
411.51
446.23
465.14
463.81
441.21
399.88
344.99
282.88
219.63
160.46
109.73
71.10
47.24
38.96
44.25
57.98
72.78
81.05
77.54
61.06
34.76
4.57
-23.28
-44.69
-58.64
-66.66
-71.21
-74.11
-75.90
-76.23
-74.86
-72.28
-69.70
-68.40
-68.86
-70.45
-71.70
-71.07
-67.59
-61.12
-52.08
-41.11
-28.92
-16.43
-5.02
3.54
7.46
5.77
-1.15
-11.41
-22.18
-30.76
-35.53
-36.36
-34.32
-31.04
-28.07
-26.74
-28.13
-33.09
-41.76
-53.22
-65.39
-75.53
-81.30
-81.62
-76.73
-67.36
-53.48
-33.62
-5.65
31.53
76.14
122.80
163.69
191.08
200.01
190.03
165.34
133.33
102.38
79.60
69.26
72.22
86.11
106.19
126.60
141.63
146.90
140.31
122.19
95.13
63.27
31.36
3.81
-16.17
-27.15
-29.75
-26.43
-20.87
-17.14
-18.48
-26.45
-40.38
-57.63
-74.46
-86.99
-92.21
-88.61
-76.53
-58.11
-37.00
-17.74
-4.62
-0.54
-5.87
-18.28
-33.41
-46.50
-54.08
-55.09
-50.69
-43.09
-34.28
-25.11
-15.61
-5.88
3.05
9.24
10.70
6.87
-0.46
-7.59
-10.36
-6.12
5.08
20.46
35.74
46.75
50.93
47.88
39.06
27.19
15.35
6.28
1.75
2.19
6.56
12.56
17.35
18.48
14.86
7.28
-1.57
-7.84
-7.82
0.64
17.01
38.06
58.88
74.57
82.03
80.76
72.65
60.79
48.22
37.05
28.36
22.64
20.05
20.37
22.60
24.91
24.94
20.78
11.89
-0.35
-13.08
-23.09
-28.31
-28.75
-26.50
-24.82
-26.63
-33.33
-44.19
-56.70
-67.63
-74.21
-75.02
-70.29
-61.65
-51.44
-41.94
-34.71
-30.16
-27.51
-25.11
-21.02
-13.99
-4.03
7.32
17.40
23.45
23.75
18.32
8.86
-2.17
-12.67
-21.76
-29.82
-37.92
-46.77
-56.00
-64.05
-68.82
-68.64
-63.01
-52.79
-39.87
-26.49
-14.60
-5.60
-0.26
1.15
-1.28
-6.98
-14.98
-23.84
-32.00
-38.18
-41.80
-43.24
-43.50
-43.85
-45.30
-48.28
-52.46
-56.82
-59.90
-60.18
-56.55
-48.56
-36.66
-22.05
-6.26
9.30
23.64
36.21
46.64
54.47
59.21
60.51
58.58
54.28
48.93
43.81
39.64
36.39
33.54
30.57
27.41
24.48
22.32
21.03
19.94
17.93
13.91
7.57
-0.29
-8.16
-14.37
-17.98
-19.28
-19.56
-20.68
-24.45
-31.90
-42.69
-55.03
-65.91
-71.97
-70.68
-61.35
-45.49
-26.37
-7.59
8.04
19.24
26.00
28.88
28.26
24.22
17.08
8.04
-0.56
-5.79
-5.23
2.00
14.65
29.66
43.07
51.30
52.26
46.06
34.84
22.09
11.61
6.35
7.60
14.71
25.32
36.16
43.89
46.13
41.90
31.79
17.66
2.37
-10.83
-18.87
-19.61
-12.71
0.01
14.66
26.45
31.43
28.04
17.96
5.31
-5.18
-10.29
-9.56
-5.24
-0.81
0.78
-1.54
-6.75
-12.48
-16.23
-16.44
-13.06
-7.36
-1.27
3.48
6.02
6.55
6.13
5.92
6.74
8.67
11.17
13.51
15.15
15.88
15.81
15.20
14.47
14.48
16.35
21.24
29.72
41.11
53.27
63.29
68.48
67.47
60.63
49.74
37.10
24.65
13.49
4.06
-3.50
-9.05
-12.36
-13.42
-12.61
-10.72
-8.78
-7.79
-8.30
-10.10
-12.24
-13.25
-11.75
-7.06
0.35
8.86
16.15
20.09
19.54
14.59
6.42
-3.30
-12.91
-20.97
-26.11
-27.10
-23.18
-14.49
-2.58
9.78
19.36
23.73
22.24
16.23
8.34
1.13
-4.03
-7.50
-10.89
-15.97
-23.63
-33.34
-43.46
-51.99
-57.56
-59.96
-59.97
-58.85
-57.76
-57.26
-57.43
-58.03
-58.90
-60.02
-61.36
-62.64
-63.16
-61.99
-58.50
-52.81
-46.01
-39.81
-35.85
-34.91
-36.40
-38.50
-38.80
-35.30
-27.10
-14.86
-0.42
13.85
25.89
34.40
39.00
40.01
38.16
34.25
29.20
24.19
20.58
19.59
21.83
26.77
32.76
37.24
37.70
32.52
21.67
6.79
-9.32
-23.51
-33.32
-37.55
-36.63
-32.34
-27.16
-23.62
-23.48
-27.38
-34.63
-43.48
-51.42
-55.75
-54.10
-45.07
-28.82
-7.16
16.67
38.74
55.49
64.78
66.42
62.01
54.10
45.09
36.55
28.94
22.20
16.32
11.93
10.01
11.33
15.79
22.06
27.90
31.05
30.03
24.92
17.16
9.04
2.75
-0.30
0.10
3.07
7.05
10.35
11.71
10.37
6.17
-0.70
-9.62
-19.30
-27.51
-31.28
-27.72
-15.28
5.06
29.64
53.00
69.94
77.36
75.45
66.99
55.99
45.71
37.62
31.50
26.24
20.94
15.48
10.30
5.96
2.58
-0.24
-3.10
-6.24
-9.18
-10.89
-10.21
-6.61
-0.49
6.67
12.95
16.77
17.51
15.80
13.15
11.25
11.28
13.67
18.29
25.06
34.28
46.59
62.33
80.73
99.63
115.89
126.74
130.95
129.39
124.50
118.79
113.43
107.67
99.45
86.81
69.26
48.19
26.10
5.46
-12.42
-27.48
-40.45
-52.06
-62.52
-71.56
-78.95
-84.71
-89.15
-92.60
-95.01
-96.01
-95.10
-92.04
-87.20
-81.63
-76.75
-74.05
-74.67
-78.92
-85.91
-93.56
-99.00
-99.38
-92.92
-79.55
-60.89
-39.60
-18.41
0.56
15.94
26.84
32.43
31.94
25.20
13.25
-1.37
-15.11
-24.62
-28.13
-26.09
-20.90
-15.69
-12.94
-13.74
-17.81
-24.19
-31.86
-39.97
-47.57
-53.35
-55.74
-53.42
-46.32
-35.99
-25.41
-18.05
-16.62
-22.08
-33.29
-47.25
-59.80
-67.00
-65.98
-55.82
-37.72
-14.51
10.27
33.38
52.53
66.46
74.55
76.52
72.22
62.01
47.13
29.88
13.18
-0.31
-9.03
-13.07
-13.84
-13.45
-13.96
-16.62
-21.76
-28.76
-36.47
-43.49
-48.47
-50.42
-49.07
-45.01
-39.48
-34.09
-30.32
-29.09
-30.55
-33.99
-37.82
-39.78
-37.46
-29.02
-14.17
5.44
26.36
44.57
56.86
62.17
61.72
58.14
54.02
50.50
47.04
42.30
35.43
27.16
19.58
15.11
14.92
18.05
21.81
23.15
20.44
14.32
7.32
2.40
1.25
3.56
7.48
10.94
12.96
14.10
15.63
18.37
21.73
23.74
22.21
16.28
7.37
-0.85
-3.96
1.33
15.57
36.10
58.08
76.20
86.65
88.14
82.05
71.38
59.58
49.32
42.12
38.31
37.35
38.13
39.07
38.35
34.34
26.14
14.02
-0.51
-15.16
-27.52
-35.89
-39.81
-40.04
-38.16
-35.82
-34.11
-33.28
-32.86
-32.16
-30.87
-29.41
-28.83
-30.19
-33.75
-38.53
-42.44
-43.03
-38.51
-28.47
-13.90
3.21
20.73
36.96
50.88
62.13
70.60
76.05
77.96
75.70
68.83
57.57
43.03
27.22
12.65
1.69
-4.09
-4.37
-0.09
6.83
14.18
19.93
22.75
22.28
19.08
14.45
10.12
7.90
9.09
14.17
22.45
32.07
40.56
45.56
45.84
42.04
36.89
34.41
38.63
51.77
72.89
97.52
118.77
129.74
126.20
108.56
81.83
53.81
31.81
19.99
18.10
22.30
27.22
28.23
22.78
10.56
-6.95
-27.24
-47.21
-63.57
-73.53
-75.61
-70.29
-60.16
-49.22
-41.64
-40.44
-46.72
-59.38
-75.48
-91.18
-102.72
-107.52
-104.75
-95.62
-82.85
-69.93
-60.12
-55.68
-57.49
-65.13
-76.99
-90.75
-103.79
-113.67
-118.58
-117.69
-111.37
-101.01
-88.88
-77.79
-70.51
-69.32
-75.17
-87.36
-103.56
-120.33
-134.15
-142.21
-142.97
-136.29
-123.04
-104.70
-83.10
-60.27
-38.23
-18.78
-3.13
8.45
16.61
22.69
28.05
33.43
38.72
42.89
44.50
42.38
36.31
27.34
17.87
11.13
10.19
16.89
30.96
49.90
69.64
85.80
95.28
97.05
92.17
82.97
71.86
60.66
50.35
41.55
34.79
30.64
29.29
30.14
31.74
32.30
30.50
26.12
20.08
13.68
7.68
1.65
-5.91
-16.61
-31.09
-48.33
-65.85
-80.47
-89.66
-92.41
-89.45
-82.76
-74.54
-66.39
-58.48
-49.59
-37.65
-20.90
0.85
25.62
49.48
68.01
77.99
78.83
72.61
63.08
53.96
47.58
44.42
43.67
44.26
45.54
47.36
49.60
51.61
52.08
49.33
42.11
30.22
14.84
-1.74
-16.94
-28.74
-36.37
-40.42
-42.58
-44.87
-49.11
-56.45
-67.41
-81.86
-99.17
-117.96
-135.91
-149.68
-155.45
-149.90
-131.39
-101.05
-63.02
-23.75
9.53
30.88
37.36
29.81
12.49
-8.27
-26.12
-36.18
-36.10
-26.15
-8.46
13.91
37.81
60.47
79.62
93.43
100.81
101.63
96.94
88.73
79.44
71.37
66.08
64.28
65.83
70.02
75.71
81.60
86.37
88.99
89.17
87.46
84.98
82.84
81.36
79.85
76.90
71.38
63.19
53.66
44.93
38.93
36.36
36.48
37.58
37.97
36.76
33.86
29.34
22.72
12.79
-1.77
-21.04
-42.88
-62.93
-75.92
-77.78
-67.39
-47.18
-22.07
2.55
22.68
36.78
45.26
49.29
49.78
47.00
41.26
33.76
26.96
23.89
26.98
36.74
51.51
68.06
82.93
93.75
99.83
101.97
101.49
99.36
95.54
89.14
78.88
63.93
44.67
22.78
0.96
-17.99
-32.14
-41.12
-46.08
-49.13
-52.42
-57.36
-64.23
-72.36
-80.52
-87.38
-91.83
-93.28
-91.79
-88.39
-84.96
-83.99
-87.67
-97.02
-111.09
-126.94
-140.41
-147.47
-145.38
-133.41
-112.65
-85.49
-54.99
-24.39
3.11
24.51
37.51
40.98
35.61
23.94
9.74
-3.13
-11.80
-15.16
-13.93
-9.95
-5.26
-1.25
1.75
4.40
7.73
12.53
18.62
24.70
28.76
28.68
23.21
12.79
-0.22
-12.11
-18.89
-17.84
-8.59
6.61
23.55
37.36
43.99
41.38
29.82
11.70
-9.39
-29.68
-46.31
-58.15
-66.07
-72.52
-80.40
-91.57
-105.63
-119.59
-129.01
-129.60
-119.18
-98.40
-70.31
-38.87
-7.18
23.78
55.44
90.60
131.49
177.77
225.47
267.64
296.48
306.08
294.40
263.68
218.96
166.16
110.68
57.44
11.50
-21.63
-37.11
-32.90
-11.71
18.86
48.59
68.31
73.32
64.66
47.85
30.17
17.65
13.32
17.04
26.47
38.40
49.76
58.02
61.43
58.93
50.32
36.31
18.41
-1.43
-21.41
-40.36
-57.61
-72.78
-85.46
-95.40
-102.84
-108.92
-115.52
-124.48
-136.49
-150.22
-162.29
-168.28
-164.33
-148.77
-122.90
-90.76
-58.04
-30.46
-12.26
-5.19
-8.22
-18.07
-30.25
-40.47
-45.66
-44.67
-38.26
-28.57
-18.43
-10.39
-6.12
-6.01
-9.27
-14.24
-19.05
-22.23
-23.29
-22.82
-22.30
-23.58
-28.11
-36.14
-46.14
-54.70
-57.06
-48.28
-25.14
12.50
60.97
113.60
162.59
201.34
226.12
236.59
234.97
224.48
208.06
187.55
164.08
138.56
112.28
86.77
63.41
42.89
25.00
9.02
-5.42
-17.85
-26.86
-30.76
-28.63
-21.32
-11.53
-3.09
0.40
-3.02
-12.98
-26.71
-40.17
-49.47
-52.25
-48.44
-40.29
-31.40
-25.39
-24.76
-30.06
-40.17
-52.77
-65.46
-76.22
-83.77
-87.36
-86.63
-81.55
-72.47
-60.27
-46.43
-32.95
-22.14
-16.22
-16.66
-23.73
-36.19
-51.45
-66.36
-78.20
-85.59
-88.91
-89.75
-90.00
-90.89
-92.54
-93.98
-93.94
-91.46
-86.17
-78.33
-68.38
-56.86
-44.41
-31.91
-20.63
-11.96
-6.85
-5.12
-5.08
-3.96
1.16
11.99
28.18
47.23
65.30
78.73
85.24
84.65
78.70
70.24
62.12
56.17
52.84
51.19
49.60
46.60
41.57
34.98
28.15
22.57
19.28
18.44
19.46
21.28
22.73
22.71
20.29
15.01
7.17
-1.89
-9.88
-14.31
-13.54
-7.76
0.86
8.81
12.72
10.98
4.80
-1.89
-3.80
3.75
22.74
51.34
84.18
114.10
134.64
142.16
136.81
121.77
101.54
79.92
59.00
39.20
20.35
2.56
-13.46
-26.67
-36.52
-43.09
-46.91
-48.47
-47.94
-45.33
-41.14
-36.61
-33.45
-33.00
-35.43
-39.68
-44.20
-48.15
-52.23
-58.28
-68.10
-81.90
-97.46
-110.43
-115.80
-109.87
-91.78
-63.94
-31.37
-0.04
24.97
40.72
46.95
45.57
39.51
31.61
23.78
17.00
11.88
9.17
9.79
14.38
22.52
32.41
41.26
46.40
46.46
42.01
35.15
28.55
24.09
22.33
22.63
23.93
25.43
26.94
28.80
31.37
34.74
38.55
42.23
45.45
48.42
51.95
57.01
64.04
72.37
80.12
84.63
83.50
75.62
61.92
45.06
28.64
16.03
9.16
8.12
11.13
15.31
17.50
15.07
6.62
-7.69
-26.24
-46.29
-64.60
-78.17
-84.87
-83.94
-76.22
-64.03
-50.76
-40.08
-34.88
-36.40
-43.72
-54.04
-63.68
-69.43
-69.92
-65.96
-60.03
-55.05
-52.75
-52.99
-53.92
-53.00
-48.43
-39.86
-28.47
-16.38
-5.85
1.13
3.12
-0.76
-10.69
-25.77
-43.72
-61.14
-74.22
-80.01
-77.40
-67.53
-53.38
-38.67
-26.53
-18.61
-14.67
-13.04
-11.39
-7.88
-1.92
5.60
12.77
17.54
18.61
15.89
10.26
3.01
-4.86
-12.69
-19.89
-25.42
-27.62
-24.82
-16.12
-2.12
14.94
31.97
45.97
55.00
58.28
55.98
48.60
36.80
21.40
3.89
-13.46
-27.86
-36.81
-39.21
-35.93
-29.78
-24.47
-23.24
-27.71
-37.30
-49.74
-62.12
-72.18
-78.98
-83.08
-86.13
-90.42
-98.16
-110.60
-127.35
-145.89
-161.88
-170.54
-168.30
-154.21
-130.34
-100.79
-69.87
-40.41
-12.85
14.75
45.74
83.34
129.05
181.38
235.36
283.43
317.15
329.53
317.10
280.98
226.68
163.15
101.07
50.96
21.49
18.12
42.19
90.50
155.54
226.63
291.84
340.43
365.42
365.14
343.52
308.67
269.98
234.94
207.05
185.42
166.26
145.19
119.12
87.02
49.78
9.31
-32.33
-73.46
-113.10
-150.99
-187.30
-222.57
-257.77
-294.33
-333.78
-376.75
-421.71
-464.20
-497.44
-514.30
-509.96
-483.89
-440.05
-385.28
-326.82
-270.24
-218.62
-173.06
-133.73
-100.32
-71.90
-46.36
-20.21
10.88
50.49
99.44
154.48
208.29
251.33
275.14
275.66
255.07
221.37
185.50
157.23
141.71
138.17
140.99
142.76
137.66
123.74
103.37
81.50
62.82
48.96
37.15
21.22
-5.24
-45.14
-95.28
-146.75
-188.08
-209.69
-207.30
-182.82
-142.54
-94.24
-44.88
0.37
37.75
64.74
80.28
85.40
83.36
78.24
72.93
67.68
60.32
48.35
31.81
14.61
3.44
4.43
19.38
43.79
68.14
81.59
76.40
50.96
10.14
-37.06
-80.89
-114.22
-133.78
-139.40
-132.09
-112.56
-80.87
-37.22
16.80
77.92
140.77
199.16
247.91
284.45
309.37
325.71
337.24
346.77
355.44
361.31
360.38
348.70
324.79
290.55
250.62
210.19
173.07
141.25
113.70
87.80
61.37
34.34
8.80
-12.07
-25.77
-37.15
-48.28
-58.89
-67.24
-72.31
-74.06
-72.69
-67.57
-58.66
-46.37
-31.37
-16.14
-4.20
1.02
-1.43
-10.36
-22.77
-35.38
-45.79
-52.84
-58.21
-66.04
-82.09
-111.52
-156.66
-215.16
-279.26
-337.00
-374.90
-383.04
-358.98
-309.46
-248.80
-194.96
-164.38
-167.23
-204.60
-268.12
-343.03
-412.37
-461.94
-483.72
-477.19
-448.00
-404.92
-356.30
-307.64
-261.44
-217.77
-175.64
-133.61
-90.24
-44.58
3.31
51.59
96.86
135.41
165.07
186.42
202.32
216.38
230.79
245.12
256.54
261.73
258.50
246.66
227.39
202.68
175.09
147.79
124.58
109.21
104.74
112.46
131.09
156.82
184.55
209.96
230.59
245.82
255.84
261.37
263.01
260.58
252.82
237.98
215.36
185.53
149.33
106.43
55.79
-3.06
-68.70
-136.90
-200.73
-251.73
-281.85
-285.25
-266.13
-238.12
-215.24
-204.26
-201.41
-199.70
-192.67
-176.49
-151.03
-119.36
-85.17
-51.19
-18.94
10.65
36.62
58.83
78.01
96.03
115.10
137.41
163.71
191.45
214.00
222.20
208.40
170.39
113.35
48.76
-8.73
-45.74
-53.93
-31.70
16.38
81.70
153.70
221.26
274.14
304.85
310.02
290.79
251.82
199.73
142.54
89.05
48.36
28.13
32.16
57.64
94.43
127.87
143.98
134.84
101.06
50.20
-7.29
-62.01
-107.79
-141.58
-162.31
-170.39
-168.13
-160.23
-153.17
-153.12
-163.44
-183.15
-207.19
-228.34
-239.83
-237.83
-222.72
-198.86
-173.13
-152.51
-141.71
-141.57
-148.81
-157.51
-161.36
-155.92
-139.78
-114.77
-84.90
-55.11
-29.94
-12.60
-4.49
-4.94
-11.51
-20.54
-28.08
-31.00
-27.73
-18.71
-6.08
7.01
17.34
22.43
21.22
14.21
3.19
-9.30
-20.63
-28.76
-32.67
-32.41
-28.96
-23.65
-17.78
-12.21
-7.28
-3.06
0.40
2.74
3.33
1.52
-2.91
-9.14
-15.16
-18.04
-14.88
-3.95
14.35
37.42
61.11
81.22
94.51
99.60
96.87
87.88
74.80
60.25
47.19
38.78
37.82
45.80
61.95
82.95
103.61
118.35
123.07
116.51
100.61
79.65
58.57
41.42
30.32
25.32
24.92
26.83
28.52
27.62
22.14
10.85
-6.09
-26.64
-46.83
-61.66
-66.74
-60.03
-42.93
-19.97
2.83
20.11
28.82
28.82
22.10
11.48
-0.52
-12.22
-22.44
-30.13
-34.25
-34.31
-30.77
-25.24
-19.93
-16.60
-15.83
-16.79
-17.86
-17.67
-15.83
-13.09
-10.75
-9.77
-10.16
-11.14
-11.71
-11.50
-11.01
-11.38
-13.59
-17.69
-22.35
-25.27
-23.93
-16.55
-2.92
15.32
35.17
53.15
66.48
74.01
76.30
74.96
71.79
67.71
62.83
57.03
50.83
45.77
43.71
45.77
51.40
58.35
63.68
65.28
62.88
57.94
52.63
48.45
45.37
41.96
36.45
27.88
16.65
4.31
-7.40
-17.40
-25.67
-33.03
-40.33
-47.88
-55.06
-60.61
-63.17
-62.12
-57.75
-51.32
-44.50
-38.71
-34.63
-32.22
-31.22
-31.78
-34.78
-41.41
-52.29
-66.33
-80.46
-90.50
-92.82
-85.94
-71.34
-52.90
-35.29
-22.26
-15.59
-15.01
-19.00
-25.67
-33.46
-41.19
-47.96
-52.90
-55.21
-54.41
-50.74
-45.47
-40.64
-38.47
-40.37
-46.17
-53.77
-59.81
-60.81
-54.64
-41.25
-22.58
-1.82
17.77
33.57
43.75
47.07
42.75
30.77
12.37
-9.53
-30.73
-46.60
-53.60
-50.41
-38.40
-21.15
-3.28
10.91
18.58
18.92
13.17
4.01
-5.28
-11.73
-13.54
-10.46
-3.73
4.33
10.97
13.76
11.20
3.32
-8.11
-19.73
-27.56
-28.39
-21.03
-6.93
10.45
27.12
40.12
48.62
53.64
56.81
59.09
59.99
58.07
52.09
42.25
30.53
20.00
13.54
12.57
16.54
23.40
30.43
35.26
36.42
33.47
26.75
17.08
5.67
-5.81
-15.26
-20.62
-20.32
-14.10
-3.38
8.93
19.38
25.13
25.32
21.29
16.12
13.24
14.88
21.17
30.20
39.05
45.18
47.47
46.30
42.86
38.34
33.22
27.28
20.29
12.54
5.06
-0.72
-3.69
-3.56
-0.99
2.74
6.47
9.69
12.64
16.03
20.31
25.27
29.82
32.39
31.46
26.09
16.27
2.81
-12.88
-29.02
-43.53
-54.15
-58.74
-55.89
-45.52
-29.29
-10.41
7.27
20.56
27.86
29.57
27.52
23.96
20.50
17.68
15.31
13.12
11.34
10.65
11.62
14.11
16.89
18.29
17.06
13.17
8.06
3.96
2.74
5.02
10.01
16.04
21.49
25.44
27.79
28.92
29.15
28.45
26.89
25.04
24.33
26.83
34.31
47.16
63.79
80.79
94.13
100.74
99.54
91.71
79.66
65.88
51.93
38.35
25.30
13.34
3.76
-2.04
-3.50
-1.66
0.85
0.71
-4.53
-15.33
-29.85
-44.78
-56.83
-64.06
-66.35
-65.12
-62.33
-59.64
-57.92
-57.56
-58.74
-61.70
-66.37
-71.91
-76.53
-77.77
-73.44
-62.64
-46.39
-27.32
-8.75
6.37
16.31
20.51
19.11
12.50
1.14
-14.02
-31.06
-47.11
-59.02
-64.51
-63.35
-57.54
-50.77
-46.90
-48.35
-55.32
-65.84
-76.78
-85.07
-88.76
-87.37
-81.80
-73.79
-65.46
-58.79
-55.13
-54.89
-57.18
-59.94
-60.47
-56.40
-46.67
-32.00
-14.64
2.57
17.29
28.33
35.56
39.33
39.84
37.04
31.10
22.95
14.65
8.80
7.53
11.53
19.53
28.78
36.11
39.09
36.89
30.29
21.25
12.00
4.44
-0.36
-2.17
-1.53
0.54
2.79
4.01
3.19
-0.18
-5.73
-11.98
-16.54
-16.76
-10.94
0.79
16.30
32.21
45.29
53.63
57.05
56.54
53.24
47.69
39.93
30.35
20.61
13.52
11.96
17.32
28.10
40.29
48.78
49.54
41.34
26.01
7.48
-9.93
-23.03
-30.42
-32.27
-29.82
-24.82
-19.22
-15.04
-13.97
-16.83
-22.88
-29.68
-33.72
-31.66
-21.83
-5.13
15.14
34.39
48.40
54.66
52.91
44.84
33.19
20.84
10.30
3.41
1.24
3.87
10.06
17.51
23.35
25.18
22.14
15.16
6.61
-0.73
-4.88
-5.34
-3.09
0.11
2.38
2.43
-0.43
-6.11
-13.90
-22.47
-29.93
-34.00
-32.64
-24.94
-11.66
4.65
20.50
32.72
39.72
42.09
41.99
41.88
43.24
45.91
48.46
49.28
47.52
43.52
38.42
33.42
29.22
25.99
23.75
22.85
24.14
28.55
36.23
45.99
55.36
61.43
62.01
56.47
45.79
32.30
18.54
6.01
-5.35
-16.80
-29.40
-42.85
-55.12
-63.21
-64.35
-57.67
-45.30
-31.89
-22.57
-20.70
-27.08
-40.61
-59.54
-82.03
-106.14
-129.33
-148.19
-158.95
-158.81
-147.86
-129.26
-110.89
-101.99
-107.35
-124.86
-148.17
-171.22
-190.54
-205.48
-217.15
-226.35
-232.77
-235.59
-234.40
-229.90
-223.68
-217.22
-211.22
-207.03
-204.86
-203.87
-202.64
-199.80
-194.56
-186.66
-175.64
-160.95
-142.00
-118.11
-88.77
-53.94
-14.44
27.83
69.96
109.06
142.41
167.64
183.25
188.67
184.22
170.91
150.17
123.66
93.98
63.83
35.66
11.69
-6.18
-16.43
-18.05
-10.90
4.18
27.50
58.37
94.97
134.59
174.41
212.14
246.10
274.82
296.56
313.61
327.54
338.52
345.43
347.24
344.22
337.88
329.98
321.35
318.73
326.72
346.31
374.94
408.66
444.75
482.61
523.28
567.73
624.76
698.35
784.28
870.35
941.55
986.58
1001.55
989.79
911.82
753.43
526.76
268.86
22.54
-183.13
-337.87
-444.83
-509.07
-548.59
-569.13
-573.53
-564.96
-548.24
-528.93
-511.77
-499.51
-494.71
-501.11
-515.09
-534.04
-556.86
-582.70
-608.36
-626.80
-629.53
-610.02
-568.02
-505.64
-432.29
-361.83
-307.03
-274.70
-263.40
-266.09
-273.13
-276.87
-270.79
-253.01
-225.03
-189.22
-147.57
-101.57
-53.94
-7.76
33.63
68.93
97.91
118.53
128.90
128.61
125.70
123.65
123.62
123.34
123.04
124.64
131.34
147.55
176.42
217.60
265.31
310.79
344.70
360.57
356.63
336.34
307.13
275.86
245.85
215.73
182.71
145.28
104.77
64.77
26.62
-5.49
-27.88
-39.47
-42.26
-38.87
-30.90
-19.05
-3.82
13.62
31.98
49.20
62.91
72.12
77.34
80.37
82.98
86.35
90.44
94.45
96.61
94.93
87.96
75.02
59.25
43.10
28.40
15.87
5.39
-4.04
-13.68
-24.27
-35.79
-47.66
-59.61
-71.54
-83.71
-96.79
-111.96
-131.10
-156.68
-191.04
-234.48
-284.05
-332.62
-370.49
-389.24
-385.53
-363.08
-331.13
-300.65
-279.93
-272.75
-278.53
-294.59
-317.92
-345.33
-372.56
-393.73
-402.59
-395.07
-371.58
-336.99
-298.25
-261.08
-227.90
-197.92
-169.02
-139.82
-110.52
-82.10
-54.89
-27.89
0.48
30.87
61.91
90.40
113.00
128.17
137.42
145.02
156.21
175.20
203.82
241.00
283.18
324.91
359.86
382.29
388.85
380.36
362.32
343.59
333.05
335.70
349.99
368.13
379.40
374.99
351.76
312.91
265.54
216.62
169.73
124.28
77.36
26.49
-28.19
-83.22
-133.39
-174.17
-203.84
-224.38
-240.81
-258.92
-282.85
-313.07
-345.73
-374.12
-391.17
-392.27
-376.92
-348.38
-311.77
-271.60
-230.45
-189.14
-148.10
-108.76
-73.74
-45.91
-26.66
-14.85
-6.99
1.31
13.35
30.05
49.94
70.23
88.54
104.29
119.17
136.69
161.09
195.76
241.63
295.97
352.18
401.08
433.59
443.76
431.07
400.37
359.62
316.51
275.68
237.91
201.51
164.77
127.60
91.78
59.63
32.23
8.44
-14.79
-41.46
-75.26
-118.53
-171.19
-230.09
-289.00
-339.82
-374.82
-389.38
-383.72
-362.72
-333.52
-302.72
-273.90
-247.11
-220.17
-190.60
-157.14
-120.11
-81.13
-42.73
-8.32
17.96
31.95
31.21
16.78
-6.26
-29.58
-44.15
-42.95
-22.99
14.13
62.99
115.84
164.25
200.77
220.55
222.72
211.10
193.63
180.40
180.68
199.81
237.55
287.96
341.44
388.09
420.90
437.66
440.66
434.45
423.01
407.91
388.25
362.50
330.65
295.35
261.02
231.34
207.33
186.75
165.57
140.43
110.79
79.40
50.93
29.68
17.12
11.29
7.71
1.34
-11.53
-32.09
-58.86
-88.29
-115.61
-136.39
-147.08
-145.97
-134.15
-115.99
-98.51
-89.12
-92.67
-108.93
-133.52
-157.97
-172.67
-170.59
-150.37
-117.19
-80.38
-49.22
-29.30
-23.78
-30.98
-45.92
-63.20
-80.06
-97.21
-116.61
-138.35
-159.38
-179.54
-198.90
-218.14
-238.14
-260.33
-286.28
-315.77
-346.04
-373.02
-399.80
-431.09
-470.28
-516.54
-565.93
-613.59
-655.03
-686.87
-671.20
-587.53
-442.57
-269.63
-105.46
29.13
130.60
204.91
260.02
302.19
327.57
332.98
316.96
282.72
236.21
183.38
129.68
80.41
46.01
30.60
33.07
47.22
65.29
80.48
88.72
89.96
87.28
84.93
81.93
75.42
63.02
45.72
27.22
11.54
1.49
-2.45
-0.98
2.07
2.78
-0.84
-7.90
-15.43
-22.12
-27.00
-30.38
-31.95
-32.59
-33.12
-33.70
-33.45
-30.80
-24.42
-13.82
-0.06
17.21
37.76
60.95
85.60
110.59
135.22
158.99
181.34
201.23
220.88
242.94
269.83
302.96
342.64
388.87
441.80
501.87
549.13
567.41
548.02
493.19
411.90
313.49
206.39
99.40
2.02
-77.42
-131.90
-160.21
-166.83
-159.56
-146.15
-131.21
-116.36
-102.36
-90.08
-79.06
-68.92
-59.24
-49.75
-41.06
-33.53
-27.73
-25.21
-27.32
-34.24
-45.37
-59.37
-72.61
-83.21
-89.57
-90.60
-89.75
-87.13
-82.87
-77.24
-70.27
-61.83
-52.00
-40.53
-27.39
-13.97
-1.54
8.12
13.38
13.17
6.89
-6.08
-26.79
-50.87
-77.06
-104.58
-133.36
-163.48
-195.15
-228.62
-264.14
-300.87
-336.38
-367.18
-388.31
-395.74
-387.89
-366.38
-335.27
-299.37
-262.31
-225.69
-190.36
-156.57
-125.21
-97.42
-73.75
-53.16
-32.78
-8.99
20.80
56.17
93.98
129.40
157.65
175.83
183.29
181.04
171.08
155.92
138.33
121.55
108.40
100.13
95.10
88.94
76.40
54.19
23.50
-9.77
-37.01
-50.52
-46.69
-27.14
2.85
36.73
69.34
98.21
123.44
146.74
170.63
197.87
230.91
271.17
317.82
366.94
411.70
444.11
457.79
450.48
424.90
387.50
345.68
305.21
268.95
237.28
209.51
185.13
164.14
146.57
131.99
119.42
107.83
96.95
87.42
80.50
77.04
77.14
80.03
84.15
87.31
87.41
83.00
73.59
59.72
42.20
22.05
0.44
-21.61
-43.22
-63.80
-82.60
-98.95
-111.98
-121.97
-129.14
-133.23
-133.55
-129.57
-121.41
-109.49
-94.92
-78.82
-65.13
-56.71
-53.71
-53.72
-53.95
-53.02
-50.50
-48.14
-47.75
-56.87
-80.41
-117.15
-160.29
-202.05
-237.53
-264.14
-284.00
-299.91
-324.07
-364.78
-420.89
-482.64
-539.05
-583.77
-613.97
-633.90
-648.36
-674.15
-723.45
-797.36
-886.86
-980.79
-1071.39
-1151.07
-1216.97
-1185.48
-1013.55
-725.29
-399.41
-110.48
107.15
238.99
318.83
370.81
409.37
429.14
424.48
400.02
368.30
342.75
331.07
336.66
354.02
377.01
391.18
387.07
365.25
335.11
307.68
289.74
284.63
288.58
296.86
299.36
288.86
264.37
230.48
193.41
157.88
127.28
101.02
77.81
54.27
28.34
0.79
-25.29
-46.14
-57.58
-56.56
-43.15
-20.09
9.41
42.25
76.26
109.82
142.12
175.74
213.00
254.22
296.09
338.93
384.51
434.59
487.95
540.00
587.67
625.59
647.43
645.10
620.82
582.88
541.56
503.56
471.49
450.60
442.82
446.13
450.73
453.51
453.98
453.10
450.16
409.68
317.71
187.18
81.03
11.08
-26.32
-47.66
-60.52
-70.80
-81.97
-89.32
-88.35
-78.35
-67.95
-60.85
-59.04
-62.94
-74.80
-95.45
-119.03
-139.59
-154.57
-169.63
-187.39
-209.72
-237.21
-272.85
-317.53
-366.48
-414.04
-456.43
-494.96
-528.71
-556.17
-576.26
-594.32
-616.39
-645.07
-679.43
-715.08
-745.93
-762.78
-757.59
-727.05
-679.38
-625.47
-573.15
-525.61
-482.36
-442.40
-404.90
-370.44
-312.11
-223.08
-115.93
-13.55
66.97
121.62
154.50
171.55
177.34
174.94
162.17
138.15
107.77
78.12
55.47
42.46
38.31
40.26
45.15
47.16
43.90
37.85
31.55
28.15
28.93
33.35
39.90
47.06
51.76
52.97
52.30
52.68
57.07
66.77
81.33
99.16
118.29
135.90
150.37
161.70
170.72
178.52
185.31
190.36
192.42
190.39
183.50
172.29
158.64
145.15
134.38
127.88
125.92
127.91
132.93
140.43
150.60
164.26
182.55
206.89
238.84
279.78
329.88
386.87
445.06
495.92
530.31
541.65
528.63
495.80
451.78
405.90
365.04
332.08
306.37
285.55
267.29
250.09
233.17
215.93
197.67
177.75
155.95
132.45
107.55
81.48
54.07
24.88
-6.37
-39.64
-74.24
-109.25
-143.91
-177.99
-212.17
-248.20
-288.59
-335.71
-390.24
-449.59
-507.23
-553.75
-579.54
-578.08
-548.41
-495.55
-428.87
-359.02
-294.73
-240.89
-198.20
-164.29
-135.37
-107.79
-79.07
-48.04
-14.60
20.89
58.40
98.60
142.66
190.90
241.75
291.20
333.57
363.55
378.30
378.61
368.22
352.04
333.65
314.17
292.71
268.04
240.42
212.16
186.70
166.71
152.63
142.48
133.06
121.66
107.36
91.10
75.15
61.79
52.31
46.68
43.75
41.93
40.00
37.54
35.01
33.53
34.17
37.53
43.34
50.56
57.73
63.36
66.45
66.66
64.37
60.40
55.61
50.52
44.97
38.16
28.81
15.71
-1.86
-23.83
-49.17
-76.15
-102.81
-127.61
-150.16
-171.88
-196.07
-226.91
-267.44
-317.08
-370.23
-417.05
-446.45
-449.76
-423.77
-371.47
-300.80
-222.52
-148.11
-88.06
-50.20
-37.74
-47.88
-71.98
-98.22
-115.98
-120.09
-112.61
-100.97
-93.86
-97.24
-112.94
-139.41
-173.77
-213.12
-254.32
-292.92
-322.70
-336.77
-329.74
-300.05
-250.97
-189.67
-124.92
-64.69
-14.06
25.23
54.07
75.09
91.63
107.42
126.17
150.77
182.00
217.36
250.98
275.04
282.82
271.55
243.72
205.97
166.22
130.53
100.96
76.39
54.42
32.95
10.39
-14.90
-44.79
-80.65
-121.59
-163.45
-198.53
-217.83
-214.36
-186.20
-137.03
-74.29
-6.52
59.16
117.13
164.28
199.68
223.50
236.09
237.68
228.96
211.01
185.71
152.96
114.48
74.59
38.65
10.36
-9.77
-23.09
-32.56
-40.46
-53.73
-76.07
-105.65
-136.75
-164.46
-187.27
-205.31
-221.28
-237.18
-263.09
-304.15
-356.73
-410.92
-458.04
-494.84
-520.94
-540.49
-557.47
-587.44
-640.70
-715.95
-801.91
-885.22
-955.78
-1005.26
-1032.35
-963.40
-773.04
-500.85
-224.84
-2.98
149.93
234.20
281.49
310.34
329.90
332.76
315.10
285.41
257.93
244.25
247.94
268.12
297.59
330.30
353.32
359.60
351.56
337.96
326.39
318.85
314.38
307.67
294.80
268.23
224.89
168.37
106.85
48.29
-2.55
-42.84
-72.88
-92.96
-105.95
-113.63
-115.66
-110.52
-97.53
-77.99
-54.09
-29.18
-5.90
13.11
26.48
34.50
38.56
40.24
40.64
40.61
40.38
40.17
40.14
40.36
40.83
41.41
41.92
42.13
41.87
40.95
39.29
36.83
33.60
29.66
25.17
20.32
15.32
10.40
5.83
1.81
-1.47
-3.88
-5.36
-5.90
-5.59
-4.55
-3.00
-1.15
0.76
2.49
3.88
4.79
5.19
5.10
4.63
3.88
3.03
2.22
1.59
1.24
1.23
1.54
2.14
2.97
3.92
4.88
5.75
6.45
6.90
7.06
6.90
6.44
5.73
4.83
3.84
2.90
2.15
1.70
1.70
2.23
3.38
5.14
7.47
10.27
13.38
16.60
19.71
22.50
24.79
26.42
27.32
27.47
26.95
25.86
24.36
22.61
20.82
19.14
17.72
16.65
16.03
15.90
16.25
17.08
18.36
20.04
22.02
24.23
26.58
28.96
31.25
33.36
35.22
36.80
38.08
39.09
39.91
40.57
41.16
41.67
42.14
42.55
42.89
43.09
43.13
42.97
42.58
41.96
41.17
40.28
39.43
38.74
38.34
38.35
38.79
39.58
40.52
41.30
41.54
40.82
38.79
35.25
30.14
23.55
15.70
6.88
-2.54
-12.16
-21.47
-29.86
-36.60
-40.95
-42.24
-40.03
-34.19
-24.90
-12.56
2.27
19.10
37.52
57.18
77.82
99.04
120.29
140.87
160.12
177.50
192.83
206.39
218.77
230.99
244.27
259.89
278.89
301.57
326.97
352.88
376.31
394.60
406.42
412.05
412.72
409.39
401.91
388.97
369.28
342.86
311.85
279.96
250.99
227.43
209.82
197.17
187.88
180.45
173.50
165.49
154.96
141.18
125.16
109.92
99.49
96.94
102.57
113.18
123.15
126.89
121.28
107.17
88.89
72.15
61.24
56.91
55.91
52.28
40.07
15.73
-20.51
-64.78
-110.91
-152.09
-182.39
-197.63
-196.06
-178.63
-149.21
-114.02
-80.15
-53.54
-37.12
-30.15
-29.05
-29.46
-28.19
-24.29
-18.88
-13.90
-10.96
-10.69
-12.77
-16.46
-21.04
-25.87
-30.27
-33.36
-34.18
-32.09
-27.29
-20.90
-14.67
-10.27
-8.64
-9.76
-12.81
-16.68
-20.35
-23.09
-24.50
-24.63
-23.96
-23.30
-23.53
-25.05
-27.46
-29.63
-30.20
-28.29
-23.97
-18.30
-12.73
-8.45
-5.96
-5.10
-5.41
-6.46
-7.99
-9.79
-11.65
-13.39
-14.92
-16.36
-17.82
-19.19
-19.96
-19.54
-17.51
-14.15
-10.53
-8.00
-7.62
-9.54
-12.96
-16.53
-19.07
-20.17
-20.24
-20.13
-20.57
-21.76
-23.32
-24.74
-25.79
-26.75
-28.18
-30.47
-33.60
-37.04
-40.09
-42.13
-42.88
-42.38
-40.78
-38.31
-35.19
-31.78
-28.58
-26.08
-24.64
-24.23
-24.44
-24.68
-23.99
-21.67
-17.73
-12.77
-7.67
-3.17
0.32
3.22
6.30
10.62
16.51
23.14
28.98
32.82
34.71
36.18
39.67
46.88
58.66
73.13
86.17
93.19
91.15
79.85
61.23
39.03
16.86
0.85
-4.59
2.29
20.61
47.65
79.95
112.37
141.20
162.86
181.73
202.02
225.51
250.83
275.17
296.88
313.59
327.41
340.06
363.18
404.21
462.88
531.16
597.78
654.38
693.96
719.68
736.48
762.74
810.69
881.44
965.46
1049.31
1124.12
1183.37
1232.83
1186.20
996.20
668.53
263.56
-141.93
-495.11
-744.90
-917.69
-1039.01
-1126.69
-1178.07
-1190.69
-1172.12
-1134.04
-1090.31
-1050.48
-1022.57
-1002.32
-984.14
-953.69
-902.20
-829.43
-743.05
-654.73
-574.49
-512.09
-467.52
-437.99
-413.18
-383.86
-344.12
-292.15
-229.53
-158.78
-85.11
-11.10
58.55
118.56
160.83
177.09
162.31
116.95
47.87
-35.04
-120.91
-194.70
-243.29
-262.24
-256.26
-234.12
-203.85
-170.77
-138.60
-109.51
-84.89
-66.20
-54.06
-47.54
-43.90
-40.36
-35.13
-27.94
-19.64
-11.33
-4.53
-0.33
1.35
1.94
3.25
6.55
12.26
19.89
28.72
37.56
45.23
50.67
54.18
56.11
56.50
55.21
51.71
45.71
37.04
26.58
14.90
3.08
-7.79
-16.90
-23.71
-28.37
-31.25
-32.86
-33.68
-34.16
-34.32
-34.00
-34.17
-33.69
-31.97
-28.67
-23.65
-16.85
-8.60
0.77
10.79
21.00
30.94
40.06
48.05
54.87
60.68
65.74
70.48
75.36
80.89
87.22
94.31
102.11
110.52
119.45
128.70
138.18
147.78
157.54
167.03
175.84
183.71
190.33
195.39
198.42
198.67
194.87
189.45
183.14
176.31
169.21
162.01
154.83
147.75
140.83
134.16
127.86
121.49
114.74
107.37
99.19
90.07
79.99
69.00
57.35
45.43
33.31
21.28
9.69
-1.04
-10.58
-18.58
-24.84
-29.20
-31.56
-32.19
-31.30
-29.08
-25.73
-21.41
-16.27
-10.47
-4.17
2.47
9.12
15.48
21.26
26.20
30.08
32.79
34.32
34.77
34.35
33.28
31.83
30.20
28.52
26.79
24.90
22.59
19.53
15.39
9.83
2.62
-6.32
-16.99
-29.21
-42.72
-57.17
-72.15
-87.15
-101.58
-114.75
-125.92
-134.36
-139.40
-140.52
-137.41
-130.06
-118.69
-103.79
-86.11
-66.57
-46.26
-26.35
-8.03
7.63
19.82
28.12
32.55
33.57
31.94
28.53
24.08
19.06
13.62
7.73
1.32
-5.49
-12.34
-18.70
-24.16
-28.67
-32.69
-37.10
-42.86
-50.61
-60.33
-71.21
-82.05
-91.73
-99.79
-106.72
-113.78
-122.38
-133.45
-146.85
-161.35
-175.29
-187.30
-196.99
-205.18
-213.55
-223.91
-237.72
-255.88
-278.50
-304.60
-331.45
-354.35
-367.31
-364.83
-344.21
-307.00
-259.06
-208.28
-161.68
-123.06
-92.44
-67.46
-45.62
-25.99
-9.42
2.79
10.72
16.80
25.31
40.67
65.22
97.96
134.54
168.86
195.44
210.34
213.11
206.28
193.61
178.03
160.92
142.67
123.81
105.91
90.48
79.56
74.83
76.95
84.74
95.64
106.58
115.00
119.41
117.30
107.96
92.81
74.50
55.05
35.02
13.95
-8.81
-33.48
-65.51
-106.99
-154.78
-202.39
-244.73
-280.33
-310.61
-338.02
-364.47
-403.32
-461.59
-536.15
-616.27
-691.72
-756.41
-807.02
-841.29
-858.55
-880.55
-922.90
-986.52
-1058.76
-1125.03
-1176.37
-1209.91
-1227.23
-1232.72
-1256.74
-1315.55
-1400.92
-1485.87
-1545.35
-1569.21
-1561.51
-1533.84
-1338.89
-927.69
-368.90
197.23
664.03
998.60
1215.92
1346.03
1417.38
1451.94
1436.61
1370.74
1268.43
1156.08
1056.11
978.31
922.51
884.52
859.62
824.61
766.09
687.26
604.40
533.15
480.88
448.05
431.99
429.18
423.80
406.48
378.27
348.98
328.59
322.15
330.55
353.08
388.99
431.83
477.45
524.34
571.74
615.72
648.99
664.41
658.94
634.99
596.96
551.48
505.02
462.37
425.42
393.88
366.62
342.66
320.89
299.72
277.18
251.24
221.01
187.01
150.68
113.94
77.76
41.29
1.81
-44.30
-99.39
-162.23
-226.72
-282.78
-318.90
-325.95
-300.22
-245.06
-169.98
-88.38
-14.12
41.53
71.94
75.83
56.69
21.59
-20.33
-59.63
-88.64
-102.86
-102.19
-90.89
-76.36
-67.21
-70.54
-89.49
-121.99
-161.28
-197.86
-222.46
-228.48
-213.50
-179.75
-133.17
-82.11
-35.56
-1.66
13.65
7.79
-18.47
-60.44
-110.26
-158.10
-194.27
-211.77
-208.27
-186.71
-153.86
-118.07
-85.93
-60.63
-41.92
-27.66
-16.20
-7.76
-4.47
-8.92
-22.42
-43.84
-69.99
-96.86
-120.91
-139.90
-152.24
-156.37
-150.00
-130.83
-98.10
-54.64
-7.37
34.68
63.74
77.22
78.82
76.42
77.25
83.36
90.44
90.65
78.35
54.17
25.38
1.55
-11.72
-16.58
-21.85
-37.37
-67.45
-107.40
-145.32
-167.94
-166.95
-142.29
-100.64
-50.88
0.58
51.51
102.17
151.43
194.10
221.20
223.83
198.32
149.28
89.28
34.15
-3.02
-16.34
-8.41
12.21
35.26
52.50
59.42
55.11
40.83
19.05
-6.75
-31.71
-49.73
-54.47
-41.25
-8.98
38.60
93.27
144.15
180.51
195.05
186.12
158.37
121.11
85.24
59.70
48.75
51.25
61.82
73.12
78.48
73.65
57.46
31.73
0.79
-29.45
-52.61
-63.51
-60.02
-44.13
-21.56
0.11
14.26
17.65
11.09
-1.61
-15.81
-27.95
-36.25
-40.39
-40.49
-36.60
-28.73
-17.47
-4.27
8.71
19.41
26.46
29.38
28.04
22.08
10.64
-7.19
-31.22
-59.42
-87.94
-111.99
-127.65
-133.21
-129.74
-120.26
-108.32
-96.54
-85.87
-76.13
-66.97
-58.73
-52.55
-49.60
-49.90
-51.83
-52.42
-48.94
-40.50
-28.95
-18.39
-13.02
-14.89
-22.46
-31.23
-35.81
-32.64
-21.38
-4.92
12.33
26.69
36.31
41.26
42.52
40.98
36.87
30.02
20.41
8.77
-3.58
-14.96
-24.08
-30.51
-34.41
-36.56
-37.80
-38.68
-39.91
-42.44
-47.77
-57.31
-71.32
-88.01
-103.34
-111.97
-109.42
-94.19
-69.03
-40.40
-15.96
-1.91
-0.47
-8.94
-20.80
-28.33
-25.32
-9.52
16.75
47.80
76.90
98.90
111.73
116.32
114.96
109.74
101.66
90.77
77.34
62.78
49.62
40.39
36.18
35.97
37.09
36.94
34.60
31.32
29.43
30.53
33.81
36.09
33.56
23.94
8.16
-9.82
-24.91
-33.71
-36.16
-35.82
-38.08
-47.29
-64.10
-84.87
-102.68
-110.28
-102.77
-79.36
-43.65
-2.19
38.01
71.67
96.62
113.67
124.94
132.97
139.59
145.43
150.21
153.48
155.27
156.20
156.88
156.27
153.10
146.90
138.58
130.25
124.67
123.99
128.61
136.49
141.51
137.86
122.62
96.24
61.56
22.80
-15.28
-48.57
-74.90
-97.41
-119.24
-140.54
-158.39
-169.16
-170.93
-164.98
-156.19
-152.37
-165.38
-201.64
-257.61
-321.10
-377.18
-414.23
-427.23
-418.39
-370.55
-285.54
-184.73
-95.18
-30.76
10.31
35.46
50.37
57.69
58.48
50.58
35.13
17.25
3.02
-4.29
-6.04
-6.02
-7.59
-12.34
-22.42
-36.81
-51.34
-62.05
-64.81
-58.98
-45.97
-27.48
-4.97
19.39
44.63
71.19
98.10
124.27
147.60
165.85
177.82
183.10
181.98
175.62
165.60
153.87
142.01
130.33
118.37
108.66
99.49
89.88
79.09
66.17
50.51
32.31
12.04
-9.27
-29.94
-47.47
-59.50
-65.13
-65.47
-62.62
-58.59
-55.00
-52.72
-51.58
-49.55
-44.90
-37.29
-28.19
-19.48
-11.64
-2.87
5.71
16.33
34.21
62.89
102.90
151.39
204.26
258.65
313.72
370.26
411.67
426.24
411.89
378.16
338.81
303.32
274.25
248.42
219.69
182.82
145.97
109.59
73.48
37.77
2.53
-32.10
-66.24
-100.86
-136.75
-172.76
-206.04
-237.56
-270.09
-306.61
-348.63
-396.27
-448.60
-502.77
-552.07
-567.60
-530.40
-441.76
-324.11
-206.85
-111.91
-48.43
-13.66
0.97
9.36
18.10
29.49
44.54
65.35
94.89
135.41
185.34
234.57
270.02
280.33
264.33
231.04
193.90
164.03
146.21
139.87
139.43
140.61
139.68
135.51
128.95
120.89
112.02
102.94
95.54
90.42
87.63
85.01
80.08
70.25
51.84
21.68
-21.33
-68.02
-107.75
-132.47
-141.96
-140.19
-131.45
-120.43
-110.36
-101.38
-99.66
-102.26
-105.74
-109.62
-114.17
-119.29
-127.98
-144.62
-172.68
-204.57
-237.61
-270.54
-305.31
-344.38
-371.53
-378.55
-368.16
-348.84
-326.83
-319.73
-319.10
-313.76
-296.89
-266.44
-217.17
-154.60
-85.05
-11.60
69.60
157.20
243.26
317.98
376.29
416.03
436.32
439.98
432.15
417.60
400.87
391.24
386.31
385.17
387.63
391.84
395.99
397.40
392.19
377.36
351.86
316.69
271.69
224.67
183.07
151.21
128.34
109.82
90.60
67.81
39.17
7.01
-23.52
-49.40
-70.26
-88.30
-106.18
-125.53
-146.62
-173.26
-206.94
-245.71
-286.40
-325.77
-361.27
-390.64
-412.10
-425.25
-436.59
-451.81
-472.17
-494.80
-514.21
-524.57
-520.93
-500.76
-437.12
-327.50
-194.51
-71.19
20.66
77.76
107.74
120.73
124.98
125.40
120.14
108.37
92.79
76.88
65.65
61.80
66.35
79.52
101.45
128.79
160.03
195.26
233.15
269.80
297.98
309.74
300.28
270.72
226.10
175.85
130.30
96.47
75.86
65.30
60.35
58.35
58.87
61.46
65.08
67.58
66.92
60.26
46.04
24.24
-3.72
-35.09
-66.47
-93.61
-111.00
-115.54
-108.24
-93.83
-78.90
-68.88
-66.09
-69.16
-74.81
-79.92
-83.47
-86.14
-88.78
-91.78
-93.00
-90.08
-81.37
-67.35
-49.95
-32.24
-17.17
-6.21
0.81
5.38
9.11
13.50
18.75
24.67
30.28
34.39
36.23
35.76
33.82
31.36
29.88
30.23
33.76
40.84
50.59
61.13
70.73
79.05
83.20
83.79
82.88
84.50
91.76
105.65
124.84
146.80
168.92
189.11
206.60
211.49
198.22
167.25
124.88
78.98
35.21
-3.94
-37.92
-66.24
-88.87
-104.63
-113.30
-116.32
-116.50
-116.69
-118.98
-123.90
-130.26
-136.42
-139.80
-138.95
-134.06
-127.40
-120.05
-112.36
-103.28
-90.70
-72.64
-47.20
-13.72
26.44
70.29
113.86
151.67
177.33
185.14
172.34
141.53
100.18
58.16
24.27
3.18
-5.75
-6.60
-4.07
-1.05
2.15
6.49
12.34
18.96
24.66
27.78
27.78
25.34
21.82
18.56
16.22
14.03
10.85
5.64
-2.05
-11.75
-22.20
-31.80
-39.11
-43.34
-44.50
-43.18
-40.37
-37.19
-34.50
-32.89
-32.66
-33.81
-36.20
-39.65
-43.87
-48.65
-53.80
-59.11
-64.58
-70.67
-78.20
-87.95
-99.85
-112.37
-122.26
-125.30
-117.71
-98.09
-68.70
-35.23
-5.20
14.70
20.95
14.17
-2.05
-21.96
-39.56
-50.53
-52.83
-46.18
-31.22
-8.77
20.10
53.66
89.53
124.92
157.74
187.33
214.19
238.54
258.85
271.30
270.83
253.75
219.95
173.78
122.62
74.10
33.23
1.24
-23.53
-43.40
-59.19
-69.76
-73.41
-69.77
-61.19
-52.30
-47.88
-50.50
-59.03
-69.01
-74.77
-72.28
-60.71
-42.60
-22.34
-4.03
9.93
19.11
24.33
26.38
25.39
21.15
13.82
4.65
-4.12
-9.96
-11.28
-8.01
-1.48
6.44
14.42
22.24
30.39
39.41
49.11
58.33
65.40
68.91
68.48
65.17
61.25
59.54
62.50
71.34
85.23
101.40
115.54
123.14
120.63
106.43
80.94
46.19
5.34
-37.92
-79.39
-114.84
-140.77
-155.43
-159.85
-157.65
-153.73
-152.35
-155.37
-161.63
-167.73
-169.67
-164.56
-151.57
-131.87
-107.97
-82.90
-59.72
-41.32
-30.20
-28.00
-34.69
-48.23
-64.72
-79.44
-88.33
-89.49
-83.47
-72.93
-61.29
-51.17
-43.80
-38.80
-34.94
-30.88
-25.57
-18.36
-9.00
2.37
15.02
27.65
38.68
46.82
51.53
53.33
53.44
53.06
52.70
51.97
49.80
45.28
38.34
29.97
21.83
15.53
11.85
10.47
10.20
9.53
7.35
3.27
-2.32
-8.60
-14.86
-20.87
-26.83
-33.06
-39.35
-44.85
-48.29
-48.86
-46.98
-44.23
-42.74
-43.77
-46.96
-50.42
-52.01
-50.80
-47.73
-44.88
-43.82
-44.00
-42.65
-36.14
-22.22
-1.59
22.02
43.56
58.97
66.68
67.91
65.43
61.75
57.93
53.40
46.86
37.58
26.25
14.84
5.73
0.59
-0.24
2.25
6.49
10.88
14.28
16.16
16.55
15.90
14.94
14.33
14.36
14.79
14.93
14.23
12.80
11.67
12.36
15.77
21.52
27.78
32.07
32.56
29.08
23.40
18.34
16.57
19.50
26.69
36.31
45.85
53.12
56.85
56.91
54.04
49.39
44.06
38.86
34.19
30.10
26.51
23.49
21.50
21.19
23.05
27.01
32.15
36.91
39.70
39.78
37.69
34.93
33.06
32.66
33.12
33.06
31.13
26.57
19.47
10.58
0.83
-9.00
-18.42
-26.79
-32.92
-35.46
-33.80
-28.68
-22.28
-17.20
-14.92
-14.87
-14.05
-8.22
5.90
27.13
49.74
64.84
65.85
52.60
30.26
5.53
-16.76
-35.06
-50.33
-63.90
-76.34
-86.68
-93.39
-95.83
-94.77
-92.16
-90.39
-91.40
-95.72
-102.71
-110.70
-117.74
-122.69
-125.38
-126.44
-126.78
-127.71
-128.71
-128.92
-127.31
-123.14
-116.53
-108.48
-100.60
-94.62
-92.02
-93.03
-97.41
-104.13
-111.95
-119.79
-127.20
-133.78
-139.21
-143.32
-145.33
-144.91
-141.78
-135.91
-127.55
-117.27
-105.10
-90.24
-75.89
-63.24
-53.05
-45.06
-38.89
-34.27
-31.88
-31.98
-34.57
-39.30
-45.13
-51.20
-55.18
-55.21
-50.37
-42.73
-33.49
-23.24
-11.77
1.29
15.88
34.82
59.92
91.11
122.46
150.34
173.00
191.08
205.47
216.99
231.78
254.63
287.30
322.00
354.26
382.19
407.41
431.29
454.88
486.21
531.06
590.46
652.21
707.70
751.38
782.51
800.65
768.00
665.85
496.33
330.48
194.61
95.73
16.37
-49.75
-105.53
-151.51
-178.50
-179.06
-151.11
-106.99
-56.52
-6.38
42.19
89.07
120.11
131.03
122.02
98.54
63.23
23.11
-16.26
-52.26
-88.43
-131.19
-180.28
-231.80
-278.98
-318.34
-345.51
-358.59
-358.49
-350.06
-338.97
-325.66
-308.44
-285.50
-259.00
-232.16
-208.66
-190.68
-178.85
-171.90
-165.81
-156.78
-143.02
-125.90
-108.11
-92.47
-80.67
-73.01
-68.51
-64.90
-60.12
-53.14
-44.26
-34.87
-26.51
-20.24
-16.27
-13.93
-11.90
-8.90
-4.15
2.41
10.19
18.38
26.27
33.34
39.28
43.84
46.74
47.42
45.18
39.33
29.49
15.75
-1.28
-20.31
-39.65
-57.44
-71.93
-82.02
-87.04
-86.93
-81.99
-72.97
-60.51
-45.26
-27.96
-9.56
8.17
23.34
33.88
38.16
35.34
25.92
11.66
-4.92
-21.19
-35.76
-48.00
-58.36
-67.53
-75.84
-82.60
-86.20
-84.21
-72.38
-51.83
-25.40
1.20
23.39
36.16
35.72
21.67
-1.50
-24.98
-39.23
-36.83
-16.26
17.00
51.88
74.57
73.26
43.38
-10.22
-75.93
-139.02
-187.17
-214.42
-216.03
-194.59
-158.87
-118.90
-81.84
-50.82
-24.50
0.57
24.04
43.10
58.34
66.11
58.64
33.17
-7.71
-56.03
-100.85
-131.79
-142.27
-132.46
-108.97
-80.52
-53.79
-32.05
-15.17
-1.22
11.67
24.91
38.91
53.47
69.32
88.64
113.41
144.59
181.61
222.20
262.99
299.53
326.88
341.38
342.00
330.11
308.61
280.42
247.31
209.97
168.86
125.17
81.53
41.44
7.80
-18.04
-36.24
-47.73
-53.64
-55.23
-54.50
-54.21
-57.42
-66.05
-79.67
-94.92
-106.90
-111.56
-108.19
-100.55
-95.78
-101.77
-123.71
-161.58
-209.60
-258.16
-297.13
-319.43
-323.19
-311.61
-291.11
-268.49
-248.65
-233.44
-222.01
-211.91
-200.32
-184.83
-163.73
-136.26
-103.00
-66.48
-31.42
-3.88
10.79
10.46
-2.29
-20.41
-35.06
-38.94
-28.92
-6.68
22.91
54.40
83.92
110.01
133.28
155.14
176.96
199.57
223.06
246.64
268.51
285.90
295.59
294.96
283.10
261.52
234.08
205.87
181.66
164.28
153.65
146.66
138.32
123.55
99.12
65.13
25.25
-14.24
-46.08
-64.16
-65.23
-49.61
-20.88
15.15
52.00
83.97
107.20
120.12
123.37
119.21
110.75
101.06
92.53
86.62
83.89
84.20
87.12
92.06
98.30
104.91
110.69
114.33
115.06
113.15
110.08
107.97
108.43
111.63
116.06
119.14
118.39
112.14
99.36
79.39
52.01
18.35
-18.12
-51.30
-74.11
-81.26
-71.83
-49.64
-21.44
6.29
29.89
49.02
65.25
79.88
92.84
102.85
108.44
108.76
103.54
92.41
74.69
49.72
17.75
-19.39
-58.48
-95.78
-128.35
-154.96
-176.66
-196.33
-217.69
-243.64
-274.44
-306.75
-334.22
-349.62
-347.74
-327.89
-294.68
-256.40
-222.10
-198.34
-187.45
-187.64
-194.69
-203.91
-211.58
-215.53
-214.87
-209.68
-200.64
-188.82
-175.55
-162.05
-149.42
-138.60
-130.78
-127.41
-129.96
-138.96
-153.05
-168.61
-180.40
-183.39
-174.52
-153.69
-123.38
-87.33
-48.82
-9.63
29.92
70.31
111.69
153.13
192.35
226.22
251.51
266.08
269.77
264.44
253.51
240.56
228.16
217.25
207.30
197.16
186.14
174.49
163.36
154.35
148.89
147.98
152.30
162.17
177.14
195.37
213.10
224.85
224.79
208.44
174.27
124.13
62.68
-3.84
-68.73
-125.62
-169.24
-196.18
-205.76
-200.32
-184.32
-162.45
-137.76
-111.05
-82.09
-51.76
-23.59
-3.25
4.21
-2.56
-19.50
-38.18
-49.17
-45.72
-25.61
9.20
54.49
105.41
157.06
203.90
239.37
256.85
252.08
225.60
183.76
137.14
96.98
71.20
62.15
67.00
80.32
97.12
114.32
130.35
143.57
151.14
149.45
135.93
111.00
78.56
44.86
15.60
-6.44
-22.43
-36.42
-53.09
-75.60
-104.59
-138.63
-175.19
-211.67
-245.40
-273.67
-293.46
-301.55
-294.90
-271.39
-230.83
-175.92
-112.73
-50.17
2.07
36.27
49.24
43.30
25.18
3.32
-15.06
-25.70
-27.26
-20.15
-5.34
15.92
41.57
68.10
90.70
104.47
106.26
96.05
77.04
54.74
34.98
22.08
17.68
20.87
29.29
40.39
52.33
64.05
74.59
82.55
86.09
83.71
75.31
62.91
50.18
41.09
38.03
40.68
46.10
50.37
50.34
44.99
35.46
24.06
12.99
3.61
-3.41
-7.60
-8.20
-4.40
3.83
14.91
25.61
31.88
30.46
20.46
3.92
-14.97
-31.69
-43.40
-49.90
-53.29
-56.35
-60.64
-65.57
-68.69
-66.95
-58.24
-42.40
-21.29
1.93
24.04
42.82
57.68
69.62
80.52
92.09
104.68
116.62
124.70
125.33
116.21
97.44
71.47
42.21
13.56
-11.68
-32.19
-47.99
-60.13
-70.00
-78.93
-87.70
-96.30
-104.14
-110.56
-115.14
-117.85
-118.66
-117.13
-112.51
-104.31
-93.03
-80.37
-68.56
-58.98
-51.09
-42.59
-30.87
-14.79
4.06
21.83
34.11
37.95
33.03
21.36
6.19
-9.36
-22.80
-32.40
-36.77
-35.02
-27.32
-15.60
-3.87
2.15
-3.56
-25.40
-63.98
-114.83
-168.38
-211.67
-231.95
-221.13
-179.31
-115.65
-45.71
13.84
50.99
61.76
49.98
24.31
-5.69
-32.18
-49.55
-53.83
-42.53
-15.71
22.44
63.00
94.24
105.56
91.97
56.48
9.11
-37.17
-71.24
-87.38
-86.18
-72.98
-54.67
-36.98
-22.80
-12.22
-3.79
3.72
10.14
13.69
12.24
5.10
-5.78
-16.12
-21.43
-19.44
-11.54
-1.89
5.14
7.75
7.64
8.58
13.66
22.99
33.62
41.61
44.63
43.32
40.26
37.55
34.78
29.02
16.90
-2.75
-27.40
-51.51
-69.02
-76.12
-72.57
-61.25
-46.49
-32.10
-20.55
-13.13
-10.74
-14.33
-24.53
-40.61
-59.58
-76.39
-85.32
-82.35
-67.25
-44.28
-20.98
-5.17
-1.53
-9.64
-24.25
-38.14
-45.81
-46.31
-43.27
-42.42
-47.95
-59.91
-74.21
-84.92
-87.69
-82.05
-71.49
-61.26
-55.53
-55.51
-59.46
-64.31
-67.57
-68.39
-67.57
-66.41
-65.67
-65.14
-64.03
-61.56
-57.59
-52.48
-46.54
-39.32
-29.25
-14.24
7.41
35.84
69.24
103.95
135.37
159.25
172.87
175.84
170.30
160.22
150.17
143.93
142.94
145.84
148.94
147.72
138.70
121.15
97.56
73.04
53.35
42.73
42.22
49.13
58.01
62.72
58.94
45.80
25.99
4.59
-12.98
-22.77
-23.32
-15.71
-2.79
12.06
25.99
37.41
46.09
52.75
58.26
62.86
65.87
66.13
62.88
56.60
49.26
43.51
41.38
43.25
47.71
52.30
54.85
54.04
49.38
40.66
27.72
10.75
-9.07
-28.91
-44.87
-53.24
-51.97
-41.59
-24.98
-6.38
9.98
20.54
22.99
16.26
0.70
-22.03
-49.25
-77.87
-104.68
-126.21
-138.50
-137.24
-119.19
-84.44
-38.19
9.37
46.09
62.65
56.75
34.20
6.15
-16.06
-25.76
-22.94
-12.63
-0.98
8.18
14.47
19.42
23.95
26.51
23.49
11.63
-9.19
-34.52
-56.49
-66.83
-60.70
-38.92
-8.00
22.48
43.73
51.18
45.82
33.15
20.25
12.56
11.99
17.06
24.65
32.40
39.75
47.24
54.90
61.13
63.08
58.60
47.96
34.30
22.23
15.36
14.31
16.70
19.01
18.93
16.43
13.08
10.16
7.42
3.29
-3.56
-12.80
-22.42
-30.05
-34.84
-38.05
-42.09
-48.45
-56.26
-62.43
-63.46
-58.05
-48.57
-40.54
-40.20
-51.51
-74.16
-103.46
-131.94
-152.02
-158.45
-149.62
-127.27
-95.25
-58.13
-20.06
15.51
45.98
69.74
86.35
96.60
102.09
104.48
104.76
103.19
99.87
95.48
91.53
90.01
92.48
99.44
110.34
124.16
139.97
157.14
174.74
191.03
203.58
210.18
210.15
204.87
197.11
189.33
182.02
173.15
159.25
137.32
106.60
69.20
29.29
-8.52
-41.05
-67.23
-88.10
-105.83
-122.88
-141.70
-164.76
-194.88
-234.78
-285.81
-346.20
-410.03
-467.83
-509.25
-526.69
-518.10
-487.49
-442.97
-393.36
-345.21
-301.55
-262.52
-226.93
-193.56
-161.50
-130.05
-98.59
-66.86
-35.60
-6.73
16.83
32.06
36.61
29.87
13.55
-8.24
-29.50
-43.79
-46.16
-35.13
-13.53
12.42
35.60
51.03
58.06
60.44
64.39
75.62
96.55
125.17
155.67
180.85
194.91
195.58
184.78
167.65
150.63
139.44
137.66
145.99
162.05
180.68
194.89
197.48
183.19
151.08
105.90
57.67
18.75
-0.76
2.44
22.85
47.68
61.72
53.41
19.41
-34.32
-94.94
-147.78
-180.95
-188.21
-168.98
-126.89
-67.96
0.17
68.29
126.09
163.71
174.67
158.60
122.42
78.95
43.10
26.97
35.98
67.54
112.42
158.13
192.83
208.49
202.55
177.82
140.85
99.59
61.46
31.91
14.07
8.57
13.41
23.85
32.91
33.05
19.03
-9.19
-45.21
-77.58
-93.59
-83.79
-45.36
16.71
91.22
163.74
219.87
247.98
241.64
201.45
135.81
59.32
-11.03
-61.36
-85.50
-86.64
-75.38
-65.13
-67.26
-87.95
-127.07
-178.94
-233.95
-280.62
-307.66
-306.32
-272.96
-211.19
-132.15
-52.22
11.76
48.02
53.84
36.77
12.02
-2.89
5.27
40.47
95.85
156.16
203.26
222.40
206.91
159.67
91.72
18.77
-43.07
-81.21
-89.47
-69.55
-30.58
13.16
46.38
57.81
44.10
11.24
-27.74
-57.54
-66.33
-49.92
-13.01
32.86
73.51
96.75
96.00
71.61
30.23
-17.53
-60.30
-89.11
-99.62
-92.73
-73.68
-49.89
-28.61
-14.90
-10.57
-14.09
-21.37
-27.04
-26.17
-15.79
3.99
29.47
54.15
70.55
72.54
57.64
28.26
-8.86
-44.81
-71.44
-83.96
-82.18
-69.99
-53.25
-37.06
-23.49
-10.57
6.88
34.78
76.28
129.53
187.10
237.86
270.90
280.35
268.65
246.23
227.17
222.43
235.19
259.69
284.38
297.56
292.58
270.07
236.48
200.22
166.84
138.57
115.36
96.62
82.15
72.37
67.59
67.27
69.62
69.38
62.15
46.55
24.40
-1.59
-29.20
-57.41
-86.44
-117.56
-157.36
-208.74
-267.09
-321.17
-359.53
-375.86
-371.44
-353.98
-334.10
-329.12
-347.87
-385.81
-428.83
-463.47
-483.63
-490.63
-489.63
-485.73
-492.53
-517.50
-558.17
-605.82
-653.99
-701.95
-752.42
-807.71
-799.22
-692.88
-507.68
-298.63
-109.01
48.00
176.51
282.29
366.19
425.92
449.96
436.34
398.11
357.17
330.85
323.82
330.09
340.01
346.84
341.19
320.94
291.71
262.29
237.78
218.16
201.37
187.20
177.50
170.32
164.31
159.62
157.75
158.67
160.82
162.79
164.82
168.88
174.98
182.91
192.12
200.88
205.20
199.99
181.64
150.68
112.38
74.25
44.12
27.32
24.90
33.55
47.52
61.34
71.55
76.49
75.24
67.52
53.70
35.33
15.18
-3.35
-17.52
-26.01
-28.79
-26.26
-18.19
-3.65
18.04
46.15
78.04
109.73
137.31
158.28
171.83
178.15
177.33
168.69
151.19
124.43
89.65
50.12
10.54
-24.45
-51.72
-70.58
-82.73
-91.01
-97.96
-104.88
-111.96
-119.25
-127.49
-138.24
-153.29
-173.69
-199.03
-227.93
-259.21
-292.69
-328.64
-366.27
-401.85
-428.49
-438.21
-425.10
-388.23
-332.55
-266.97
-200.65
-139.27
-83.49
-30.47
22.61
75.31
122.99
158.82
177.54
178.48
166.15
148.11
131.54
120.32
114.08
109.47
102.57
91.02
74.60
54.85
34.33
15.99
3.06
-0.94
7.31
29.89
66.58
113.81
164.77
210.91
244.15
259.18
254.81
233.63
199.88
156.99
106.33
48.19
-15.26
-77.52
-127.21
-151.33
-141.05
-97.22
-32.20
33.38
77.66
85.63
54.37
-6.24
-77.70
-139.54
-175.47
-177.44
-146.58
-92.05
-28.01
30.05
69.45
83.69
73.94
48.34
18.68
-3.94
-13.08
-8.41
5.23
20.70
31.72
34.78
29.49
17.36
0.42
-19.67
-42.06
-66.69
-94.49
-126.78
-164.61
-207.30
-251.43
-290.63
-317.04
-323.77
-307.35
-269.17
-215.18
-154.14
-95.46
-47.31
-15.64
-3.57
-10.71
-32.38
-59.82
-81.97
-88.97
-75.98
-45.61
-7.28
26.26
44.03
41.25
21.05
-7.13
-31.87
-44.18
-40.41
-22.36
4.90
35.71
65.52
91.07
109.82
119.71
119.77
111.37
98.58
86.93
80.69
80.36
82.33
81.29
74.14
62.89
54.33
56.26
72.43
99.10
125.72
139.58
131.94
102.31
58.73
14.15
-19.48
-35.34
-33.03
-16.53
9.56
42.96
84.22
134.74
193.52
254.72
307.88
340.92
344.73
317.43
266.22
205.36
151.15
115.85
103.05
106.90
115.54
117.20
106.03
84.64
62.26
49.38
52.00
68.28
89.43
103.94
102.98
84.39
52.93
17.58
-12.59
-31.72
-38.53
-35.50
-27.01
-17.56
-10.67
-8.74
-13.22
-24.69
-42.83
-66.22
-92.17
-117.01
-136.98
-149.37
-153.43
-150.51
-143.24
-134.27
-125.16
-115.78
-104.81
-90.59
-72.08
-49.53
-24.51
0.18
20.72
32.80
32.69
18.83
-6.76
-38.21
-67.45
-87.28
-94.47
-91.37
-84.81
-82.70
-89.90
-105.59
-123.61
-135.59
-135.12
-120.69
-96.09
-68.35
-44.51
-29.02
-22.69
-23.49
-28.14
-33.61
-37.91
-39.77
-38.14
-32.08
-21.39
-7.15
7.84
19.80
25.27
22.56
12.60
-1.22
-14.11
-21.35
-19.33
-6.05
18.54
52.34
90.71
127.01
154.05
166.63
163.93
150.49
134.70
125.27
127.27
139.67
156.04
167.72
168.11
155.57
133.49
108.01
85.06
68.39
59.21
56.92
59.77
64.69
67.17
62.19
46.51
21.12
-7.84
-31.30
-41.81
-37.79
-25.09
-14.53
-17.04
-38.78
-78.75
-129.58
-180.67
-221.57
-244.31
-244.67
-222.59
-182.26
-131.67
-81.31
-41.85
-21.75
-25.52
-53.33
-101.60
-163.76
-230.86
-292.35
-337.32
-356.78
-346.30
-307.72
-248.92
-181.40
-116.26
-60.63
-16.28
19.38
50.74
81.42
113.17
146.37
181.20
218.39
258.48
300.44
340.54
372.74
390.61
390.23
372.01
340.49
302.09
262.11
222.94
184.51
146.52
110.49
80.16
59.25
48.47
44.04
38.90
26.34
3.55
-27.09
-59.62
-87.92
-108.53
-121.30
-128.08
-130.29
-127.88
-120.21
-107.94
-94.20
-83.54
-79.25
-81.26
-86.38
-90.92
-93.99
-98.76
-110.47
-132.18
-161.03
-187.71
-200.33
-190.77
-159.68
-116.97
-77.29
-53.25
-50.10
-64.69
-88.94
-114.81
-137.82
-157.21
-173.68
-186.16
-190.21
-179.73
-150.12
-102.04
-42.99
14.50
57.04
75.31
67.29
38.37
-1.56
-42.23
-76.47
-100.99
-114.95
-117.26
-105.42
-76.66
-31.20
24.64
78.27
114.27
120.81
95.18
45.98
-9.78
-52.90
-68.87
-52.31
-7.70
52.93
114.08
160.67
181.25
170.49
130.77
72.06
9.70
-39.72
-63.52
-56.74
-23.45
25.02
74.40
112.14
131.13
130.93
116.64
96.04
76.37
62.01
53.84
50.31
49.02
48.03
46.17
42.59
35.94
24.31
5.87
-19.86
-50.79
-81.99
-106.48
-117.42
-111.04
-89.06
-58.85
-30.97
-14.65
-13.02
-21.29
-28.67
-23.63
0.19
40.79
88.75
131.82
160.26
170.49
165.23
150.99
134.52
120.22
109.69
102.84
99.45
99.58
103.34
109.27
113.95
112.79
101.73
79.42
47.98
12.03
-23.28
-53.93
-77.27
-91.51
-95.25
-88.19
-72.53
-54.27
-42.64
-46.96
-72.19
-115.48
-166.17
-209.36
-231.90
-227.25
-197.21
-149.73
-94.32
-38.08
16.00
67.77
117.03
161.06
194.65
211.77
208.72
186.63
151.48
112.27
77.90
54.20
42.61
40.45
42.93
45.80
47.23
48.15
51.23
58.80
71.17
86.08
99.71
108.66
111.46
109.18
104.33
99.51
96.25
94.89
95.30
97.63
102.51
110.49
121.09
132.35
140.90
143.21
136.89
121.90
100.60
77.08
55.81
40.42
32.97
33.64
40.88
51.83
63.02
71.13
73.44
68.14
54.40
32.50
4.30
-26.52
-54.63
-74.14
-80.51
-72.48
-53.13
-29.36
-9.71
-1.50
-8.25
-28.55
-56.71
-84.78
-105.27
-113.25
-107.73
-91.63
-70.49
-50.47
-36.27
-29.83
-30.16
-34.24
-38.51
-40.42
-39.22
-36.01
-32.86
-31.55
-32.47
-34.43
-35.44
-33.93
-29.88
-24.93
-21.78
-23.26
-31.72
-48.46
-73.06
-102.51
-130.73
-149.35
-150.17
-128.81
-87.54
-35.67
13.48
47.74
60.70
53.81
34.85
13.95
-0.66
-5.08
0.19
11.73
25.09
36.05
40.77
35.93
19.12
-10.02
-48.74
-90.87
-128.30
-153.60
-162.86
-157.21
-142.00
-124.16
-109.06
-98.55
-91.24
-84.62
-77.32
-70.23
-65.37
-63.59
-62.79
-58.12
-44.66
-21.07
7.98
32.59
41.57
28.03
-6.69
-52.97
-96.77
-125.30
-131.76
-116.99
-87.63
-52.61
-19.80
5.63
21.24
26.49
22.31
10.84
-4.57
-19.89
-31.25
-36.00
-33.39
-24.63
-12.50
-0.56
7.86
10.75
7.88
0.52
-9.74
-21.87
-35.54
-49.85
-61.99
-66.95
-59.26
-36.26
-0.99
37.36
66.12
74.09
56.05
14.93
-39.29
-93.31
-134.63
-154.81
-150.73
-124.44
-82.09
-32.38
15.14
51.82
71.48
71.65
54.06
24.36
-9.07
-37.28
-53.23
-53.79
-40.43
-18.41
5.37
24.69
35.83
38.20
33.88
26.20
18.19
11.58
6.83
4.16
4.56
10.17
23.57
45.99
75.52
106.46
130.47
139.32
128.12
97.83
55.68
13.48
-15.79
-22.12
-1.98
39.81
91.18
136.46
161.98
161.16
136.93
100.45
66.68
48.64
53.04
78.57
117.11
157.05
187.13
199.60
191.90
166.61
130.13
90.63
55.86
31.38
19.59
19.55
27.39
37.44
43.80
42.02
30.86
12.99
-5.69
-18.36
-20.33
-11.15
5.20
22.30
34.17
37.71
33.24
23.39
11.32
-0.72
-11.62
-21.01
-28.58
-34.17
-37.93
-40.60
-43.34
-47.11
-52.24
-58.26
-64.29
-69.51
-73.41
-75.81
-76.81
-76.75
-76.26
-76.13
-76.97
-78.55
-79.66
-78.86
-75.85
-72.48
-72.49
-79.49
-94.08
-112.26
-126.02
-126.86
-110.21
-78.65
-41.58
-11.57
1.26
-6.35
-29.61
-57.96
-79.76
-86.81
-77.08
-54.88
-28.64
-7.57
1.55
-3.77
-21.31
-45.41
-68.87
-85.12
-89.93
-82.14
-63.63
-38.44
-11.61
12.06
28.91
37.14
37.14
31.26
23.23
17.14
16.29
22.02
33.00
45.37
53.95
54.28
44.78
28.11
10.52
-0.73
-0.68
10.62
27.90
42.88
48.02
39.79
19.98
-5.40
-28.70
-43.63
-46.98
-38.97
-22.43
-1.85
17.37
29.65
30.27
17.04
-8.06
-38.48
-64.68
-77.36
-71.20
-47.31
-13.16
20.22
42.46
47.61
36.01
13.46
-11.32
-30.05
-37.33
-32.05
-17.15
1.65
17.97
27.06
27.23
20.31
10.87
4.56
6.18
17.96
38.58
63.23
84.93
96.91
95.34
81.13
59.90
39.76
27.96
28.14
39.58
58.41
79.50
98.21
110.78
114.17
106.13
85.71
53.71
12.47
-35.03
-86.02
-137.90
-187.21
-228.66
-255.37
-261.01
-242.55
-202.04
-145.97
-83.12
-22.23
29.29
65.45
82.09
78.12
57.82
31.35
12.43
12.69
35.66
73.71
110.39
127.60
113.72
69.29
6.72
-55.25
-99.46
-116.73
-108.14
-83.01
-54.33
-33.82
-28.36
-39.12
-62.34
-91.36
-118.81
-138.23
-145.30
-137.82
-115.41
-78.96
-30.43
26.96
88.15
145.87
191.70
217.95
220.39
200.03
163.43
120.84
83.08
58.73
52.19
63.27
87.96
119.67
150.72
173.96
184.36
180.19
163.49
139.38
114.48
94.88
84.06
81.85
84.41
85.33
77.67
56.48
20.79
-25.30
-73.40
-113.20
-135.61
-135.55
-113.35
-74.40
-27.24
18.81
55.88
79.04
86.74
80.60
64.68
44.37
25.33
12.13
7.17
10.30
19.24
30.65
41.08
47.50
47.34
38.55
20.05
-7.44
-40.77
-74.88
-104.74
-127.78
-145.24
-161.13
-179.12
-199.22
-216.57
-223.26
-212.29
-181.19
-133.02
-74.22
-11.12
52.44
114.96
174.72
227.12
264.44
278.28
264.06
224.29
168.76
111.15
63.62
32.25
15.77
7.84
1.46
-7.16
-17.29
-25.34
-27.71
-23.39
-14.52
-5.08
1.13
1.85
-3.27
-13.09
-25.32
-36.68
-43.47
-42.46
-32.54
-16.44
-0.97
4.88
-6.32
-36.40
-79.14
-121.51
-148.00
-147.11
-116.74
-65.62
-10.15
31.70
46.84
31.19
-9.89
-64.30
-117.34
-155.48
-169.05
-153.93
-112.57
-53.87
8.68
60.93
93.03
102.98
96.98
86.14
80.58
84.64
95.58
105.58
105.76
89.91
56.16
6.96
-51.82
-111.84
-162.86
-194.16
-197.32
-169.77
-116.97
-51.96
8.22
48.01
58.27
38.66
-2.88
-53.00
-96.56
-120.40
-116.46
-83.99
-30.11
31.66
85.08
116.17
117.20
89.17
41.00
-13.58
-60.22
-87.64
-90.39
-69.86
-33.80
5.60
35.18
44.82
30.80
-2.74
-45.05
-82.63
-103.97
-103.51
-83.24
-51.37
-18.89
4.64
14.36
11.17
0.78
-9.12
-12.03
-5.02
10.49
30.01
48.34
61.98
70.20
74.52
77.18
79.58
81.60
81.97
79.43
73.66
65.56
56.61
47.92
39.44
29.98
17.73
1.36
-18.96
-41.35
-62.69
-79.89
-91.21
-97.09
-99.55
-100.91
-102.17
-102.28
-98.77
-89.51
-74.45
-56.46
-40.47
-31.02
-29.81
-34.29
-38.64
-36.40
-23.37
0.72
32.77
68.64
105.90
144.84
187.09
232.89
278.72
317.06
338.97
337.80
311.90
264.86
203.58
135.76
68.66
8.99
-36.94
-63.88
-69.64
-57.20
-34.83
-13.88
-4.54
-11.86
-34.17
-64.19
-92.07
-108.56
-107.59
-87.67
-52.43
-10.30
27.49
50.22
51.75
33.48
4.15
-23.65
-38.77
-36.16
-18.53
5.69
26.56
37.00
35.20
24.19
9.55
-3.28
-11.11
-13.45
-12.05
-9.68
-8.95
-11.56
-18.08
-28.16
-40.78
-54.61
-68.07
-79.56
-87.65
-91.31
-90.11
-84.47
-75.76
-66.28
-58.94
-56.54
-60.92
-72.33
-89.29
-108.88
-127.54
-141.69
-148.47
-145.95
-133.38
-111.38
-82.21
-49.87
-19.48
4.01
17.40
20.64
16.84
11.18
8.90
13.44
25.49
43.21
63.25
82.06
96.91
106.24
109.67
107.79
101.95
94.04
86.08
79.82
76.33
75.89
77.97
81.34
84.24
84.82
81.76
74.76
64.48
51.94
37.75
21.90
4.64
-11.95
-22.92
-21.11
-0.13
41.76
98.80
158.13
203.70
222.30
208.76
168.07
113.37
60.90
24.39
10.88
19.65
43.78
73.43
99.02
113.43
112.78
96.47
67.28
30.99
-4.41
-30.60
-41.47
-35.33
-15.66
10.04
33.02
46.50
47.93
39.42
26.37
15.19
10.99
16.04
29.61
48.82
70.35
91.74
112.06
131.49
150.33
168.04
182.95
192.95
196.39
192.89
183.37
169.63
153.72
137.59
122.97
111.21
103.26
99.39
99.25
101.81
105.72
109.67
112.47
113.39
112.12
108.75
103.39
96.10
86.80
75.44
62.26
47.87
33.10
18.54
4.44
-9.55
-24.10
-39.76
-56.84
-75.41
-95.47
-116.84
-138.65
-158.95
-175.01
-184.47
-186.64
-183.13
-177.16
-172.08
-169.80
-170.31
-172.19
-174.10
-175.96
-179.33
-186.72
-200.09
-219.17
-240.26
-256.61
-260.47
-246.23
-213.30
-167.08
-117.40
-74.75
-46.52
-35.03
-38.06
-51.10
-69.30
-88.32
-104.21
-113.44
-113.67
-104.88
-90.09
-74.59
-64.22
-63.19
-72.74
-90.81
-112.56
-131.49
-141.07
-136.78
-117.90
-88.18
-54.54
-24.67
-4.41
3.53
-0.44
-13.72
-32.21
-51.04
-65.17
-70.82
-67.18
-57.60
-48.77
-48.02
-59.75
-82.75
-110.51
-133.91
-145.23
-141.51
-125.24
-102.44
-79.38
-59.98
-45.29
-34.95
-29.19
-29.70
-38.55
-55.46
-75.84
-91.56
-94.51
-81.21
-55.63
-28.00
-10.12
-9.68
-26.77
-54.69
-84.00
-107.35
-121.85
-128.61
-130.07
-127.80
-121.83
-111.65
-97.89
-82.84
-69.30
-58.38
-48.07
-33.95
-12.01
18.15
51.65
79.78
93.89
90.06
71.81
49.17
34.42
36.59
57.41
90.72
125.37
150.20
158.20
148.29
124.27
92.27
58.10
25.84
-2.31
-25.09
-41.17
-48.89
-46.97
-35.70
-17.54
3.10
21.24
33.54
39.98
44.53
53.69
73.49
106.03
147.27
187.64
215.08
219.70
197.56
152.11
92.26
28.85
-29.46
-78.69
-119.33
-154.73
-188.72
-224.35
-263.35
-306.10
-351.22
-395.10
-432.12
-455.96
-462.00
-449.28
-421.22
-384.27
-345.23
-308.95
-277.38
-250.37
-227.14
-207.50
-191.71
-179.53
-169.35
-158.10
-142.44
-120.23
-91.81
-59.91
-28.84
-2.62
16.60
29.24
38.00
46.60
58.38
75.16
96.77
120.98
143.93
160.72
166.58
158.56
137.07
106.66
74.87
49.74
36.69
36.67
46.32
60.27
74.27
87.02
100.23
116.75
138.30
163.97
190.16
211.97
225.17
228.05
222.21
212.37
204.87
205.48
217.11
238.44
264.37
287.94
303.16
307.44
302.27
292.09
281.90
274.96
271.52
269.19
264.10
252.49
232.14
203.53
169.96
136.76
109.52
91.69
82.67
77.62
69.36
51.94
23.89
-10.46
-42.59
-63.64
-68.80
-59.70
-43.94
-31.94
-32.65
-50.55
-84.39
-128.58
-175.48
-217.61
-248.97
-265.41
-264.66
-246.66
-213.94
-171.62
-126.80
-86.59
-56.20
-37.24
-27.35
-21.18
-12.05
5.82
35.46
75.80
121.37
163.02
190.01
193.32
169.23
121.73
62.64
8.69
-23.78
-24.72
5.54
55.73
107.73
143.51
151.94
132.43
93.85
49.81
13.23
-7.46
-9.03
7.46
37.81
75.16
110.07
131.97
132.03
106.89
61.05
5.97
-44.04
-77.58
-90.16
-85.05
-70.48
-55.37
-45.35
-41.42
-41.00
-40.15
-36.26
-29.19
-21.17
-15.61
-15.48
-21.90
-33.52
-46.71
-56.55
-58.09
-47.75
-24.36
10.26
51.21
91.19
122.08
136.97
132.35
109.46
74.37
36.28
4.69
-13.68
-17.03
-8.65
4.76
16.09
20.27
15.72
4.01
-11.39
-26.51
-37.83
-42.65
-39.48
-28.51
-12.23
4.53
15.67
16.03
3.90
-17.64
-41.52
-59.44
-65.21
-57.20
-38.60
-15.85
3.83
14.82
14.48
3.48
-14.66
-34.74
-51.37
-60.47
-60.50
-52.71
-40.56
-28.38
-19.80
-16.75
-18.97
-24.44
-30.27
-33.88
-34.16
-32.18
-30.88
-33.58
-42.14
-55.41
-69.36
-78.59
-78.93
-69.42
-52.73
-33.83
-17.54
-6.66
-0.97
1.92
5.04
10.57
19.16
30.24
42.89
56.73
71.88
88.29
104.74
118.53
126.17
124.83
113.69
94.19
69.59
43.82
20.89
4.91
0.06
9.88
35.46
73.38
115.12
148.77
162.64
149.35
108.26
45.49
-28.07
-99.74
-157.59
-192.23
-198.12
-174.59
-126.64
-64.45
-1.44
49.52
79.98
88.48
80.56
66.05
55.14
54.92
67.61
91.02
120.37
150.16
175.22
190.83
192.66
177.59
145.34
99.84
49.47
4.99
-24.04
-32.79
-22.86
-1.18
23.29
43.44
56.27
62.55
64.49
63.22
57.62
45.63
26.54
2.85
-20.04
-36.39
-43.30
-42.55
-39.81
-41.38
-50.31
-64.50
-77.69
-82.92
-76.31
-58.91
-35.82
-13.55
2.82
10.86
10.63
3.69
-7.83
-21.29
-33.63
-41.77
-43.59
-39.10
-30.69
-22.04
-16.27
-14.37
-15.01
-15.89
-15.42
-13.55
-11.45
-10.49
-11.56
-15.12
-21.77
-32.35
-47.09
-64.24
-79.20
-85.35
-76.76
-51.39
-13.18
28.65
62.79
80.27
77.63
57.54
26.81
-6.96
-37.96
-62.98
-80.42
-88.57
-84.75
-66.22
-32.61
11.84
58.03
94.43
111.60
106.46
84.00
55.37
33.03
25.30
33.04
49.75
65.15
70.13
60.76
39.56
13.53
-9.50
-24.54
-31.28
-33.51
-36.56
-44.27
-56.80
-70.44
-79.48
-79.03
-67.69
-48.53
-28.12
-13.78
-10.57
-19.10
-35.36
-52.46
-63.57
-64.70
-56.00
-41.34
-26.50
-16.96
-16.20
-24.98
-41.46
-62.01
-82.22
-97.90
-106.01
-105.24
-96.19
-81.06
-63.03
-45.23
-30.14
-19.07
-12.16
-8.73
-7.53
-7.18
-6.33
-3.96
0.53
7.16
15.43
24.43
32.95
39.83
44.15
45.44
43.75
39.47
33.01
24.58
14.20
2.00
-11.04
-22.75
-29.75
-28.59
-17.28
3.26
28.75
52.64
68.06
70.29
58.18
34.60
5.38
-22.52
-42.92
-51.92
-48.55
-34.70
-14.32
7.66
26.61
39.20
43.70
40.15
30.02
15.94
1.40
-9.73
-14.13
-10.21
0.94
15.35
27.30
31.39
24.98
9.78
-8.42
-21.86
-23.94
-11.99
11.57
40.16
65.59
81.06
83.49
74.31
58.69
43.55
35.29
37.89
51.98
74.85
101.47
126.06
143.57
150.99
147.80
135.85
118.59
100.27
84.93
75.56
73.26
76.65
81.90
83.58
76.41
57.36
27.35
-8.34
-41.33
-62.73
-66.20
-50.36
-19.49
17.86
51.82
74.63
83.33
80.48
72.73
67.76
70.79
82.14
97.21
108.62
109.69
97.27
72.80
41.29
8.92
-19.15
-39.99
-52.64
-57.36
-55.00
-47.16
-36.61
-27.39
-23.91
-29.27
-43.63
-63.71
-83.76
-97.58
-101.04
-93.44
-77.67
-58.88
-42.70
-33.30
-32.53
-39.72
-52.24
-66.37
-78.45
-85.90
-88.05
-86.07
-82.13
-78.02
-74.10
-69.14
-61.55
-50.77
-38.32
-27.35
-21.06
-20.73
-24.90
-29.99
-32.06
-28.70
-19.92
-7.85
4.16
12.89
15.97
12.22
1.69
-14.47
-34.36
-55.56
-75.64
-92.50
-104.80
-112.22
-115.82
-117.86
-120.89
-126.26
-132.66
-136.00
-130.94
-113.61
-84.19
-47.66
-12.14
14.20
26.16
23.13
8.53
-11.77
-31.44
-45.25
-50.15
-46.02
-35.77
-24.51
-17.58
-18.08
-25.28
-34.70
-40.31
-37.32
-24.24
-3.02
22.18
46.74
66.78
79.47
83.21
78.01
66.18
52.46
42.89
42.60
53.50
73.30
96.40
116.32
128.22
130.27
123.14
108.45
87.44
60.83
30.33
0.06
-23.39
-33.13
-25.73
-4.22
21.58
38.98
38.48
19.00
-10.95
-37.42
-48.14
-38.81
-14.74
12.73
32.88
41.37
41.69
42.14
50.21
68.13
91.61
112.64
124.01
123.00
112.20
97.33
83.52
72.47
62.02
47.84
26.48
-2.66
-37.43
-74.94
-113.89
-155.31
-201.05
-250.69
-299.42
-338.31
-357.32
-349.59
-315.04
-260.94
-199.55
-143.50
-101.14
-73.71
-55.75
-38.26
-13.23
22.33
64.97
106.35
137.16
151.26
148.09
132.41
111.64
92.34
78.19
69.64
65.16
62.77
60.99
58.94
56.19
52.69
48.96
46.31
46.39
50.30
57.65
66.30
72.98
74.86
71.06
63.20
54.95
50.44
52.29
60.38
71.82
82.05
86.38
81.46
65.77
39.99
6.94
-28.38
-59.30
-78.91
-82.38
-69.19
-44.16
-16.37
4.10
9.92
-0.63
-22.95
-48.13
-66.29
-70.29
-58.16
-33.50
-3.94
21.60
36.09
36.82
25.83
8.71
-7.93
-19.03
-22.51
-19.49
-13.33
-8.30
-7.76
-12.79
-21.45
-29.53
-32.51
-28.07
-17.74
-6.54
-0.73
-4.71
-18.80
-38.97
-58.38
-70.03
-69.25
-54.91
-29.80
0.25
27.64
45.03
47.79
36.05
15.33
-4.86
-14.50
-6.87
18.81
57.10
98.52
132.77
151.98
152.51
135.34
105.07
68.25
31.55
0.36
-21.89
-34.03
-37.00
-33.63
-28.14
-25.09
-28.07
-38.26
-53.63
-69.52
-80.59
-83.40
-78.37
-69.56
-62.48
-60.79
-64.05
-67.91
-66.50
-55.94
-36.58
-13.19
7.12
18.02
16.57
4.51
-12.48
-26.96
-32.81
-27.73
-14.38
0.61
9.57
7.09
-7.43
-29.72
-52.74
-69.78
-76.81
-73.22
-61.02
-43.25
-23.28
-4.55
9.19
14.39
8.98
-6.20
-26.99
-47.04
-60.17
-63.13
-57.40
-48.95
-45.99
-55.26
-78.64
-111.40
-143.35
-162.48
-159.81
-133.28
-88.96
-39.20
1.84
23.36
21.69
1.35
-26.95
-50.45
-58.97
-48.44
-22.04
11.35
40.80
57.74
58.91
47.05
28.94
12.20
2.37
1.37
7.90
18.95
31.23
42.02
49.44
52.30
50.23
43.87
34.94
25.95
19.38
16.68
17.66
20.42
22.16
20.51
14.83
6.84
0.05
-1.56
4.45
17.57
34.04
48.13
54.21
49.26
33.96
12.49
-9.25
-25.90
-34.33
-34.22
-27.59
-17.77
-8.33
-2.61
-3.27
-11.98
-28.75
-51.44
-75.69
-95.89
-106.65
-104.61
-89.25
-62.65
-28.29
10.40
51.20
93.22
136.15
179.15
219.67
253.10
273.35
274.59
253.58
211.96
157.11
100.72
55.22
29.48
25.52
38.01
56.85
71.61
75.80
68.84
54.97
40.20
29.09
23.15
21.36
21.88
23.70
26.96
32.07
38.67
45.01
48.35
46.34
38.26
25.74
12.32
2.20
-1.41
2.44
11.91
23.00
31.04
32.66
27.21
16.87
5.61
-2.79
-6.39
-5.63
-2.62
0.27
1.85
2.72
4.95
10.93
22.00
37.49
54.68
69.78
79.38
81.57
76.50
65.93
52.27
37.65
23.46
10.13
-2.85
-16.73
-33.23
-53.83
-78.85
-106.77
-134.15
-156.10
-167.79
-165.93
-150.19
-123.81
-93.10
-65.76
-48.46
-44.54
-52.78
-67.97
-82.93
-91.46
-90.59
-81.32
-67.81
-55.28
-47.75
-46.46
-49.51
-52.64
-51.02
-41.49
-24.24
-3.18
15.51
26.30
26.82
18.84
7.21
-2.77
-7.65
-6.69
-1.43
5.72
12.63
17.59
19.13
16.05
8.00
-3.53
-14.67
-20.14
-15.58
0.06
23.28
47.09
63.91
68.82
61.36
45.19
25.94
8.64
-3.72
-10.51
-12.68
-11.86
-9.93
-8.77
-9.92
-14.11
-20.72
-27.62
-32.05
-31.87
-26.89
-19.47
-13.57
-12.96
-19.31
-31.06
-43.66
-51.26
-48.91
-34.55
-10.02
19.57
47.92
70.10
84.04
90.86
93.63
95.62
99.39
106.66
119.01
138.07
164.73
197.47
231.25
257.88
268.47
257.07
223.37
172.99
114.91
57.33
4.20
-45.90
-98.05
-157.25
-224.54
-295.10
-358.98
-404.43
-422.13
-408.46
-366.67
-305.91
-238.18
-174.63
-122.72
-84.77
-58.45
-38.73
-20.18
1.03
26.12
54.10
82.78
109.95
134.15
154.86
171.82
184.71
193.19
197.25
197.62
195.67
192.66
189.11
184.66
178.47
170.25
160.75
151.56
144.17
139.05
135.23
131.07
125.13
116.66
105.38
90.62
70.94
44.94
12.81
-22.46
-55.35
-80.06
-93.43
-96.94
-96.11
-97.76
-106.40
-121.92
-140.03
-154.71
-161.28
-158.50
-148.61
-135.58
-122.95
-112.22
-102.67
-92.48
-80.16
-65.45
-49.47
-33.78
-19.51
-6.75
4.68
14.27
20.15
19.56
10.51
-6.39
-27.14
-45.61
-55.96
-55.42
-45.32
-30.36
-16.42
-8.13
-7.47
-13.51
-23.11
-31.87
-35.31
-30.08
-15.43
5.89
27.73
42.53
44.30
31.45
7.97
-17.94
-36.94
-42.14
-31.46
-7.65
23.31
54.79
81.61
100.87
111.78
115.05
112.40
106.42
100.21
96.70
97.73
103.21
111.10
118.53
123.55
126.21
128.25
131.52
135.87
138.23
133.54
117.17
87.29
46.00
-2.03
-51.96
-100.95
-148.68
-196.02
-243.29
-288.88
-329.68
-362.32
-384.59
-395.87
-396.47
-386.57
-365.54
-332.71
-288.82
-237.56
-185.63
-140.90
-109.52
-93.41
-89.45
-90.81
-89.67
-80.11
-60.02
-31.45
0.76
31.06
55.17
70.91
78.33
78.90
74.88
68.59
62.04
56.76
53.75
53.66
56.76
62.69
70.39
78.47
85.92
92.93
101.10
112.61
128.63
147.75
165.59
176.14
174.49
159.48
134.70
107.15
84.08
69.82
64.38
64.33
65.42
64.86
62.24
58.82
56.20
55.27
56.19
58.76
62.61
66.99
70.46
71.01
66.88
57.55
44.20
29.03
14.12
0.45
-12.04
-23.16
-31.43
-34.12
-28.91
-16.22
-0.35
11.75
13.73
3.48
-15.18
-33.86
-43.51
-38.75
-20.51
4.61
27.43
40.26
39.84
27.94
9.68
-9.10
-24.06
-33.18
-36.35
-34.18
-27.33
-16.48
-2.82
11.44
23.28
29.82
29.61
23.46
14.52
7.17
5.22
10.36
21.50
35.20
47.00
53.07
51.18
41.35
25.53
7.05
-10.16
-22.50
-27.82
-26.43
-21.34
-17.36
-19.09
-28.48
-43.44
-58.15
-65.64
-61.11
-44.60
-21.34
0.30
12.37
10.75
-3.33
-23.96
-43.27
-54.65
-55.01
-45.36
-29.72
-13.14
0.18
7.83
9.29
5.41
-2.16
-11.44
-20.29
-26.70
-29.01
-26.27
-18.51
-6.87
6.56
19.14
28.51
33.18
32.93
28.82
22.59
15.86
9.61
4.13
-0.52
-4.09
-6.11
-6.36
-5.53
-5.42
-8.06
-14.48
-23.54
-31.85
-35.15
-30.51
-18.21
-2.40
10.37
13.89
5.22
-13.67
-36.56
-55.54
-64.45
-61.37
-49.25
-34.09
-22.02
-16.53
-17.71
-23.10
-29.79
-36.02
-41.65
-47.32
-53.33
-59.13
-63.67
-66.15
-66.54
-65.57
-64.11
-62.66
-61.17
-59.38
-57.09
-54.17
-50.60
-46.48
-42.45
-39.86
-40.56
-46.17
-57.07
-71.95
-88.29
-103.30
-114.79
-121.22
-121.30
-113.61
-96.96
-71.50
-39.57
-5.83
23.91
44.77
54.67
54.86
49.24
42.51
38.63
39.72
46.12
56.78
69.96
83.55
95.31
103.20
105.59
101.71
91.90
77.78
62.06
47.77
37.44
32.23
31.70
34.11
37.59
41.21
45.92
54.31
69.31
92.10
120.78
150.46
174.98
189.49
192.28
185.16
172.19
157.46
143.42
129.98
115.36
97.69
76.72
54.75
36.26
26.06
27.05
38.38
54.91
68.89
73.03
63.72
42.70
16.25
-7.70
-23.18
-28.31
-25.45
-19.22
-13.81
-11.22
-10.93
-11.05
-10.12
-8.11
-6.50
-7.26
-11.35
-17.99
-24.69
-28.25
-26.17
-17.81
-4.73
9.92
22.48
30.36
32.90
31.46
28.99
28.63
32.39
40.27
50.05
58.24
61.62
58.80
50.84
41.07
33.75
32.39
38.43
50.66
65.61
78.91
86.74
87.14
80.61
69.92
59.23
52.80
53.67
62.51
77.44
94.32
108.15
114.58
110.99
96.83
73.06
40.93
1.19
-45.54
-97.47
-150.08
-195.73
-225.38
-232.01
-213.93
-176.42
-130.44
-88.73
-61.32
-52.30
-59.45
-76.38
-95.93
-112.88
-125.04
-132.52
-136.42
-137.70
-136.80
-133.67
-127.88
-118.68
-105.34
-87.71
-67.03
-46.45
-30.67
-24.45
-30.71
-48.94
-74.70
-100.86
-119.96
-126.90
-120.67
-104.55
-84.56
-67.07
-56.80
-55.65
-62.90
-76.09
-92.06
-107.49
-119.08
-123.75
-119.37
-105.78
-85.59
-63.76
-45.95
-36.20
-35.06
-39.47
-44.33
-44.95
-39.08
-27.55
-13.41
-0.41
8.26
10.46
5.15
-7.44
-25.21
-43.60
-55.93
-55.27
-37.55
-4.13
37.49
75.98
100.49
105.27
92.03
69.07
47.72
37.82
44.22
65.59
95.48
124.95
145.53
151.53
141.39
117.66
85.94
53.16
25.61
7.45
-0.07
1.60
9.14
18.41
25.45
27.30
22.61
11.89
-2.72
-18.25
-31.78
-41.24
-45.89
-46.30
-44.21
-42.05
-42.45
-47.32
-57.04
-69.82
-82.02
-89.37
-88.76
-79.70
-64.30
-46.19
-28.54
-12.95
0.40
11.16
17.83
17.87
9.00
-8.70
-31.93
-54.93
-72.02
-80.31
-81.02
-78.73
-78.70
-84.04
-94.14
-105.28
-113.12
-115.25
-112.69
-109.02
-108.39
-112.99
-122.05
-132.61
-141.52
-147.25
-150.42
-153.04
-156.92
-162.53
-168.91
-174.11
-175.97
-173.01
-164.59
-150.93
-133.14
-112.88
-91.99
-72.02
-53.65
-36.65
-20.07
-2.82
15.69
35.37
55.56
75.41
94.22
111.67
127.83
143.25
158.68
174.94
192.62
211.95
232.54
253.55
273.89
292.66
309.67
326.02
344.29
367.96
399.83
440.01
484.38
524.83
551.37
555.56
533.28
486.20
421.19
348.62
280.06
225.99
193.64
185.11
196.51
218.55
239.11
247.02
235.54
204.17
157.94
104.90
53.00
8.14
-26.67
-50.99
-66.14
-74.48
-78.95
-82.47
-87.43
-95.21
-105.78
-117.57
-127.91
-133.88
-133.55
-127.10
-116.82
-106.26
-98.55
-94.89
-94.21
-94.11
-92.32
-88.19
-83.05
-79.40
-79.80
-85.55
-95.92
-108.24
-118.46
-122.46
-117.53
-103.73
-84.31
-64.82
-51.04
-46.40
-50.52
-59.46
-67.80
-71.28
-68.66
-61.65
-53.25
-45.74
-39.46
-33.34
-26.51
-19.58
-14.78
-14.64
-20.28
-30.46
-41.87
-50.68
-54.12
-51.58
-44.44
-35.33
-27.02
-21.58
-20.22
-23.39
-30.91
-41.74
-53.48
-62.24
-63.34
-53.15
-31.20
-1.31
29.02
51.35
59.89
54.01
38.58
21.70
11.32
12.21
24.71
45.22
68.15
88.07
101.36
106.85
105.77
100.94
95.86
93.77
96.86
105.85
119.72
135.91
150.90
161.20
164.51
160.49
150.91
138.72
126.54
115.32
103.94
90.33
73.32
54.22
37.04
26.73
26.73
36.69
52.01
65.44
69.92
61.09
38.21
3.72
-37.93
-81.07
-119.18
-145.58
-155.05
-146.11
-122.73
-93.99
-71.19
-63.89
-76.38
-106.74
-148.28
-192.42
-231.14
-258.51
-270.84
-267.01
-248.74
-220.83
-190.29
-164.08
-146.32
-136.47
-129.51
-118.21
-96.41
-61.61
-15.80
35.55
85.46
127.11
154.98
165.34
157.07
132.49
97.61
61.11
31.72
15.33
13.02
21.51
35.53
50.59
64.53
77.00
87.78
95.02
95.14
84.26
60.48
25.66
-14.29
-50.93
-75.82
-83.43
-73.21
-50.20
-23.73
-4.41
-0.49
-14.82
-43.48
-76.86
-102.62
-109.69
-91.85
-49.97
8.01
69.11
118.80
145.23
142.82
114.15
69.33
22.88
-11.21
-24.16
-15.07
9.20
37.03
56.48
59.28
43.19
11.95
-26.91
-65.18
-96.86
-119.69
-134.89
-145.17
-152.47
-156.47
-155.08
-146.24
-130.16
-110.42
-92.90
-83.23
-84.12
-94.09
-108.33
-120.92
-127.01
-123.69
-109.69
-84.92
-50.53
-9.78
31.05
63.05
76.90
66.51
32.51
-16.34
-64.87
-96.65
-100.51
-75.33
-30.95
16.05
49.43
60.08
49.20
26.82
6.20
-1.93
6.68
29.72
60.92
93.43
121.77
141.98
150.79
144.90
121.29
78.84
20.28
-47.00
-111.91
-162.56
-190.02
-191.39
-170.93
-138.44
-105.72
-82.12
-71.24
-69.80
-69.40
-60.58
-37.22
0.28
45.00
86.23
113.85
122.22
111.74
87.78
58.11
30.40
10.82
3.60
10.81
31.90
63.25
98.78
131.84
157.69
175.10
185.99
193.08
197.28
196.82
188.17
168.28
136.32
94.12
45.62
-3.86
-48.02
-80.25
-94.98
-89.88
-67.54
-35.21
-2.24
23.84
40.08
48.08
51.46
52.40
49.78
40.18
20.56
-9.56
-47.73
-90.37
-134.62
-178.76
-220.73
-256.55
-280.03
-284.56
-266.56
-227.57
-174.53
-117.72
-67.73
-32.60
-16.45
-19.06
-36.26
-61.18
-86.18
-105.06
-115.03
-117.17
-115.09
-112.97
-113.99
-120.46
-134.61
-158.85
-194.41
-238.89
-284.71
-320.42
-334.78
-321.74
-283.21
-228.08
-168.01
-112.59
-66.28
-28.49
3.94
34.08
63.75
93.85
125.37
159.63
197.27
236.47
271.98
296.08
301.14
283.35
245.07
194.48
142.84
100.17
71.96
58.17
54.60
55.26
54.59
48.53
34.80
13.22
-13.92
-41.61
-62.97
-70.71
-59.47
-27.77
21.03
79.17
135.90
179.60
200.46
192.79
156.78
98.94
30.49
-35.33
-86.46
-114.28
-114.67
-88.19
-39.87
20.91
81.43
127.76
147.96
135.42
91.22
23.96
-52.45
-122.57
-173.17
-196.01
-188.84
-155.00
-102.01
-39.50
22.95
77.62
119.60
147.07
160.59
162.09
154.12
139.32
120.30
99.38
78.22
57.43
36.50
14.40
-9.38
-33.83
-56.10
-72.40
-79.36
-75.41
-61.29
-39.65
-14.24
10.92
32.19
46.73
52.99
50.92
41.80
27.30
8.44
-14.86
-42.98
-74.77
-106.35
-131.58
-144.71
-143.57
-131.42
-115.75
-104.57
-102.59
-108.97
-118.13
-122.86
-117.74
-101.20
-75.58
-45.61
-16.52
7.13
21.95
26.03
19.37
4.33
-14.16
-29.43
-34.69
-24.94
1.34
41.49
89.10
135.54
172.37
193.69
197.84
187.59
168.59
146.64
125.15
104.06
80.87
53.37
22.12
-8.94
-34.11
-49.06
-53.18
-49.84
-44.30
-40.79
-40.42
-41.52
-41.58
-39.70
-37.67
-39.24
-47.71
-63.72
-84.44
-104.54
-118.54
-123.18
-118.60
-107.81
-94.77
-82.07
-69.70
-55.29
-35.62
-8.63
25.49
64.63
106.16
148.26
190.43
232.63
274.10
312.61
344.83
367.59
379.26
380.40
373.31
360.72
344.49
325.11
301.94
273.85
240.00
200.08
154.58
105.07
54.73
8.29
-28.71
-51.65
-58.77
-52.17
-37.58
-22.67
-14.65
-18.05
-33.66
-58.57
-87.37
-113.70
-131.82
-137.91
-131.02
-113.30
-89.47
-65.38
-46.38
-35.78
-34.47
-41.30
-53.97
-69.73
-85.56
-98.28
-104.71
-102.66
-92.00
-75.46
-57.98
-44.94
-39.70
-41.92
-47.64
-51.17
-48.02
-37.08
-21.15
-5.53
4.50
5.92
-0.88
-12.61
-24.46
-31.93
-32.32
-25.79
-15.32
-5.72
-1.73
-5.81
-16.81
-30.23
-40.16
-41.93
-34.10
-18.64
0.44
18.99
34.17
44.46
49.15
47.90
41.15
30.89
21.05
16.42
20.54
33.49
50.95
65.63
70.41
61.79
41.93
17.91
-1.51
-9.53
-4.34
10.17
26.09
35.24
32.62
18.70
-0.96
-18.76
-28.20
-26.33
-14.58
2.15
17.77
27.02
27.39
19.58
5.97
-9.80
-23.65
-32.05
-32.80
-25.21
-10.61
8.60
29.50
47.10
57.46
59.33
54.37
45.92
38.38
34.66
37.26
47.66
61.26
72.06
75.67
70.37
56.29
36.25
11.85
-13.44
-35.29
-57.22
-83.53
-115.09
-149.06
-182.08
-210.51
-237.03
-264.39
-294.13
-335.47
-394.58
-468.85
-548.87
-624.47
-686.34
-734.93
-771.83
-744.19
-623.08
-421.17
-186.74
30.31
184.49
290.29
361.79
408.45
436.28
440.91
416.12
363.40
293.29
219.15
155.27
105.49
70.24
49.21
33.88
7.64
-28.63
-68.99
-108.43
-143.80
-180.00
-222.87
-265.18
-305.86
-341.24
-361.90
-359.12
-329.34
-274.95
-206.48
-135.18
-68.81
-14.33
25.85
55.37
77.93
95.48
108.63
116.30
118.97
119.00
117.31
114.79
115.26
120.63
130.54
143.05
155.66
167.20
178.06
188.31
198.05
211.19
229.83
253.15
278.01
301.11
320.89
337.83
352.84
366.90
385.70
412.74
447.37
485.21
520.88
550.64
573.04
587.74
562.31
480.00
346.45
187.61
32.04
-103.19
-213.31
-300.10
-367.58
-419.64
-454.24
-470.09
-469.87
-459.09
-443.67
-427.79
-413.08
-399.79
-387.66
-372.37
-350.86
-322.97
-291.13
-258.11
-227.98
-202.26
-181.12
-164.07
-147.92
-130.38
-111.25
-92.42
-76.64
-66.25
-62.15
-64.57
-73.25
-86.37
-102.13
-119.33
-137.31
-155.59
-173.41
-189.35
-202.01
-210.27
-213.01
-209.64
-200.29
-185.74
-167.16
-145.92
-123.23
-100.27
-78.11
-57.52
-38.86
-21.99
-6.44
8.35
22.72
36.76
50.20
62.65
73.92
84.27
94.53
105.80
119.13
134.98
153.00
172.14
191.06
208.70
224.78
239.84
255.01
271.46
290.02
310.92
333.76
357.33
379.69
398.42
411.14
416.43
414.39
406.50
394.77
380.46
363.33
342.03
315.26
283.21
248.17
214.06
184.86
163.20
149.47
141.87
137.18
131.85
123.05
109.49
92.01
73.23
56.78
45.77
41.38
42.26
45.18
46.53
44.10
38.17
31.38
27.40
29.08
36.77
47.82
57.45
60.85
55.45
42.33
25.92
12.00
4.95
5.96
12.88
21.77
29.11
33.38
35.08
35.67
36.28
36.91
36.78
35.28
32.71
30.32
29.69
31.67
35.67
39.86
41.95
40.38
35.34
28.61
22.74
19.44
18.54
17.74
13.75
3.84
-12.97
-35.52
-61.17
-86.67
-108.75
-124.13
-129.72
-123.31
-105.01
-78.40
-50.22
-28.24
-17.77
-19.13
-27.25
-34.39
-34.34
-25.58
-11.85
0.46
5.99
3.14
-5.91
-17.14
-27.12
-33.99
-36.74
-34.01
-23.54
-3.37
26.44
62.76
99.82
131.45
153.37
164.58
166.96
163.88
158.46
152.59
146.77
140.38
132.25
121.03
105.64
85.67
61.67
35.13
8.07
-17.59
-40.66
-60.89
-78.84
-95.58
-112.09
-128.79
-145.41
-161.38
-176.15
-189.51
-201.68
-213.38
-225.75
-239.90
-256.78
-276.97
-300.87
-327.99
-356.27
-381.43
-397.39
-398.13
-379.35
-340.51
-285.09
-220.37
-154.74
-95.42
-46.97
-11.55
9.01
13.99
4.26
-15.82
-39.64
-58.43
-63.73
-50.35
-19.24
20.18
55.48
76.01
78.15
62.53
34.11
-0.51
-35.29
-66.71
-97.17
-129.09
-162.97
-194.76
-223.79
-251.98
-283.60
-322.32
-369.03
-424.22
-481.83
-530.74
-555.99
-552.10
-522.68
-478.67
-432.44
-368.78
-284.72
-187.68
-113.36
-64.74
-36.95
-18.17
-3.30
11.37
28.59
46.04
62.16
77.00
95.36
117.92
143.74
170.83
198.25
225.47
249.05
267.17
280.25
293.20
307.99
325.14
344.19
365.55
390.14
416.70
443.49
467.70
486.85
495.55
488.89
464.57
424.63
374.15
318.14
261.13
206.76
159.21
121.74
97.20
86.74
88.64
97.47
104.86
102.75
86.56
57.16
19.49
-19.30
-52.65
-76.64
-90.66
-96.71
-97.94
-97.16
-95.88
-94.08
-90.31
-82.41
-68.48
-48.06
-23.00
2.59
23.79
36.98
41.61
40.62
38.96
40.99
48.31
59.10
69.27
74.53
72.23
61.87
44.83
23.63
1.43
-18.37
-32.67
-39.85
-40.87
-39.50
-41.37
-52.22
-75.97
-113.53
-162.39
-216.92
-269.11
-309.73
-330.18
-324.84
-293.14
-240.60
-177.71
-116.75
-67.74
-35.21
-17.40
-7.97
0.45
12.77
29.59
47.74
62.52
70.14
69.40
61.58
49.49
35.86
22.61
10.75
0.62
-7.79
-14.67
-20.11
-23.86
-25.07
-22.69
-16.53
-8.04
-0.28
3.54
2.02
-3.09
-7.52
-6.68
1.52
15.26
29.68
39.31
40.99
35.64
27.79
23.37
26.71
38.61
56.02
73.76
86.81
92.50
91.08
84.60
75.00
62.62
46.38
25.51
1.78
-19.96
-33.51
-34.72
-24.55
-9.25
2.55
4.36
-4.80
-20.12
-33.90
-39.50
-34.17
-19.43
0.72
22.02
41.30
56.48
66.20
69.67
67.39
61.76
56.74
56.30
62.34
73.26
84.46
90.58
88.45
79.15
67.86
61.47
64.83
77.84
94.86
107.24
107.70
94.30
71.86
49.82
38.06
42.53
62.98
93.48
125.15
149.32
159.77
153.63
131.03
94.50
48.04
-3.50
-55.27
-103.28
-145.15
-180.54
-211.17
-240.30
-271.64
-307.57
-347.55
-387.23
-419.27
-435.78
-431.32
-405.19
-361.71
-308.28
-252.47
-199.45
-150.89
-105.65
-61.57
-17.40
25.91
65.03
95.15
111.73
112.50
99.02
76.92
54.11
37.58
30.39
30.27
30.97
25.55
9.93
-15.28
-45.63
-75.31
-99.64
-116.00
-123.22
-120.11
-104.90
-75.67
-32.11
22.87
82.91
139.56
184.86
214.13
227.64
230.44
230.16
233.82
244.87
261.83
279.44
291.28
293.14
285.08
271.29
257.90
249.90
248.71
251.47
252.40
245.21
225.77
193.61
151.87
105.80
60.49
19.01
-18.29
-52.98
-86.86
-120.35
-151.99
-179.16
-199.37
-211.22
-214.43
-209.20
-195.53
-173.34
-143.49
-108.93
-75.14
-48.78
-35.22
-36.16
-48.65
-66.46
-82.80
-93.14
-96.39
-94.16
-88.65
-80.77
-69.62
-53.46
-31.43
-4.92
21.95
43.49
54.37
51.76
36.92
15.07
-6.44
-20.96
-25.17
-20.15
-10.00
0.88
10.24
18.89
29.35
43.55
61.03
79.03
94.07
103.83
108.05
107.66
103.13
93.38
75.81
47.47
6.68
-45.72
-105.96
-167.92
-224.37
-268.55
-295.81
-304.56
-296.41
-275.29
-245.98
-212.81
-178.71
-145.03
-112.17
-80.42
-50.79
-25.31
-6.59
3.29
4.01
-2.21
-11.15
-18.02
-19.42
-14.58
-5.01
6.89
19.34
31.80
44.14
55.49
63.80
66.90
64.44
58.95
54.93
56.23
63.39
72.79
78.50
75.73
63.89
46.91
31.18
22.27
22.28
29.59
40.43
50.99
58.77
62.41
60.98
53.76
40.98
24.69
8.75
-2.52
-6.50
-3.51
3.37
10.02
13.24
11.94
6.84
-0.65
-9.54
-19.57
-30.56
-41.82
-51.98
-59.82
-65.12
-68.85
-72.45
-76.53
-80.15
-81.22
-77.83
-69.72
-58.80
-48.47
-41.98
-40.92
-44.50
-50.13
-54.68
-55.92
-53.07
-46.76
-38.35
-29.21
-20.29
-12.11
-4.99
0.70
4.48
5.92
4.98
2.30
-0.89
-3.11
-3.33
-1.49
1.42
3.96
5.08
4.71
3.79
3.77
5.96
10.87
17.89
25.08
29.76
29.55
23.89
15.16
8.48
9.91
23.54
48.78
79.63
106.75
121.60
120.68
107.25
89.84
78.03
77.89
89.47
107.18
122.70
128.64
121.19
100.97
72.01
40.05
10.72
-11.66
-24.78
-28.61
-25.29
-18.50
-12.39
-10.37
-14.14
-23.41
-36.14
-49.29
-59.85
-65.76
-66.67
-64.02
-60.71
-60.10
-64.63
-74.66
-87.89
-99.94
-105.73
-101.43
-86.03
-62.14
-35.46
-12.84
0.08
1.20
-7.16
-19.03
-27.01
-24.80
-8.92
20.89
62.17
110.54
160.18
204.16
235.38
248.22
240.59
215.32
179.68
143.08
113.71
96.03
90.07
92.34
98.05
102.68
103.03
97.41
85.76
69.66
52.36
37.91
29.70
29.07
34.49
42.27
48.03
48.70
43.64
34.71
25.00
17.30
12.88
11.22
10.77
9.80
7.37
3.90
1.02
0.65
3.64
8.90
13.51
14.57
10.47
1.75
-8.77
-17.28
-20.81
-18.65
-12.47
-5.23
1.64
7.79
13.51
19.06
24.40
29.42
34.35
39.83
46.71
57.40
73.16
93.29
115.87
138.85
160.85
180.75
197.09
208.24
215.65
221.45
227.31
233.39
237.79
237.21
228.21
208.93
166.81
101.29
23.58
-48.45
-100.87
-130.45
-141.75
-141.16
-133.04
-119.40
-99.24
-72.79
-43.97
-18.78
-2.92
0.84
-6.69
-22.71
-43.99
-66.88
-90.73
-118.63
-153.02
-196.37
-249.44
-310.85
-377.22
-442.94
-499.30
-537.08
-549.21
-533.10
-492.16
-434.48
-370.18
-307.97
-252.52
-203.61
-158.83
-116.75
-78.81
-49.13
-31.61
-27.12
-32.03
-39.25
-40.91
-31.78
-11.26
16.74
45.81
69.90
85.17
90.82
88.56
81.64
73.81
68.72
69.25
77.03
91.90
111.57
131.90
147.98
155.79
153.95
144.35
131.62
121.19
116.82
118.96
124.30
127.23
122.22
106.49
81.18
50.73
20.78
-4.43
-23.70
-38.85
-53.10
-68.96
-86.79
-105.08
-122.19
-138.08
-154.86
-175.40
-200.88
-229.14
-255.29
-274.22
-283.63
-285.40
-284.13
-284.05
-286.02
-286.76
-280.73
-263.30
-233.37
-193.92
-150.33
-107.89
-69.92
-37.23
-8.95
16.33
39.86
62.72
86.00
110.64
136.97
164.25
190.70
214.05
232.20
243.73
248.04
245.15
235.83
221.68
205.19
189.39
176.76
168.17
162.46
157.16
149.88
139.76
127.76
116.03
106.61
100.26
96.32
93.20
89.22
83.42
75.82
67.20
58.66
51.14
45.09
40.62
37.68
36.29
36.58
38.47
41.38
44.20
45.61
44.57
40.96
35.65
30.22
26.44
25.71
28.58
34.52
41.91
48.26
51.13
49.07
42.44
33.56
25.92
22.93
26.61
36.75
50.78
64.43
72.84
72.01
60.19
38.75
12.01
-14.07
-33.96
-44.31
-44.88
-38.06
-27.74
-17.94
-11.89
-11.63
-17.66
-28.90
-42.63
-55.18
-62.98
-64.02
-58.67
-49.58
-40.58
-34.97
-34.26
-37.74
-43.19
-47.90
-49.80
-48.16
-43.64
-38.22
-34.47
-34.60
-39.36
-47.18
-54.26
-55.65
-47.43
-28.87
-3.55
21.56
38.48
41.40
28.95
4.92
-22.94
-45.28
-53.77
-43.65
-15.42
24.76
66.43
98.04
110.86
102.22
76.49
43.24
13.30
-5.25
-9.55
-1.92
12.32
27.48
39.50
46.58
48.78
47.04
42.52
36.38
29.78
23.74
18.65
13.94
7.81
-2.05
-17.28
-37.33
-58.89
-76.80
-86.19
-84.94
-74.80
-60.75
-48.56
-42.11
-41.87
-44.97
-46.97
-43.83
-33.60
-17.09
2.39
20.34
32.55
36.61
32.81
23.82
13.41
4.69
-1.11
-4.72
-7.81
-11.60
-16.06
-19.96
-21.90
-21.16
-18.15
-13.98
-9.77
-6.10
-3.00
-0.42
1.47
2.04
0.44
-3.76
-10.00
-16.58
-21.26
-22.21
-19.00
-13.09
-7.27
-4.34
-5.64
-10.46
-16.37
-20.45
-20.52
-15.95
-7.46
3.45
15.07
25.72
33.50
36.41
32.95
23.06
8.78
-6.17
-17.81
-23.63
-23.77
-20.87
-18.54
-19.36
-23.52
-28.87
-32.17
-30.94
-24.79
-15.50
-6.06
0.65
2.96
0.86
-4.16
-9.70
-13.25
-13.00
-8.30
0.02
10.03
19.39
26.11
29.19
28.74
25.74
21.56
17.62
15.21
15.43
19.02
26.05
35.77
46.56
56.37
63.32
66.25
64.75
59.02
49.73
37.92
25.16
13.50
4.95
0.61
0.07
1.48
2.46
1.26
-2.68
-8.95
-17.12
-27.22
-39.28
-52.25
-63.20
-68.06
-63.70
-50.39
-32.53
-17.23
-10.80
-15.50
-28.25
-42.22
-50.36
-48.87
-38.76
-24.87
-13.16
-7.91
-10.13
-17.72
-27.00
-34.29
-37.30
-35.60
-30.42
-24.12
-19.41
-18.61
-22.77
-30.93
-39.86
-44.55
-39.45
-20.29
14.32
62.05
116.92
170.47
213.81
239.87
245.39
231.98
205.50
173.85
144.08
119.76
100.20
81.70
60.38
34.92
7.76
-15.92
-30.92
-34.58
-28.06
-15.61
-2.43
7.32
11.38
8.95
-0.18
-16.08
-38.01
-63.45
-87.85
-105.72
-112.98
-109.01
-97.13
-83.15
-72.74
-68.98
-71.43
-76.93
-81.46
-82.09
-78.35
-72.24
-67.27
-66.77
-72.20
-82.07
-92.18
-97.35
-93.87
-81.79
-65.62
-52.91
-51.05
-63.85
-89.27
-119.79
-145.04
-155.35
-144.77
-112.47
-62.54
-2.84
56.36
103.78
128.91
124.65
90.27
32.92
-33.52
-92.88
-132.85
-149.59
-148.82
-142.42
-142.22
-154.48
-177.54
-203.30
-221.34
-223.57
-206.96
-174.20
-132.34
-90.33
-56.27
-35.31
-28.33
-31.90
-39.97
-46.09
-45.72
-37.33
-22.04
-2.40
19.10
40.71
61.32
80.03
96.34
110.63
124.65
141.10
162.04
187.15
212.92
233.48
242.96
237.76
217.96
187.00
150.40
114.24
84.21
64.92
59.33
67.96
88.34
115.22
141.73
161.21
169.04
163.63
146.40
121.04
92.49
65.85
45.42
33.97
32.32
39.31
52.19
67.62
82.33
93.64
99.62
98.94
90.68
74.30
50.19
20.31
-11.28
-38.95
-56.95
-61.66
-53.20
-35.57
-14.96
2.58
13.06
15.17
9.61
-1.79
-16.51
-31.31
-42.32
-45.69
-39.02
-22.67
0.03
23.84
43.56
55.52
57.98
51.17
36.80
17.75
-2.57
-21.25
-37.10
-51.11
-65.57
-82.05
-99.51
-113.92
-120.04
-114.59
-98.67
-77.65
-58.46
-45.91
-40.19
-37.11
-30.83
-17.16
4.34
30.47
55.85
74.95
83.45
78.97
61.33
32.56
-3.14
-39.83
-70.84
-90.26
-94.40
-82.67
-57.67
-24.37
11.15
42.99
66.69
79.96
83.01
78.31
69.75
61.36
55.66
52.46
48.57
39.18
20.18
-9.15
-44.67
-78.03
-99.58
-102.17
-84.24
-50.86
-12.02
20.82
38.60
37.48
19.84
-6.84
-32.40
-47.38
-45.86
-27.24
3.61
38.03
66.52
81.92
82.09
70.76
56.12
47.57
51.75
69.64
96.21
122.57
139.81
142.51
130.45
108.04
82.10
59.11
43.17
35.10
32.71
31.61
26.57
13.00
-11.48
-45.85
-85.50
-123.12
-150.67
-161.66
-153.03
-126.00
-85.61
-39.35
4.67
39.08
58.24
58.64
39.50
3.38
-43.51
-91.92
-131.86
-155.78
-161.29
-151.77
-134.48
-116.86
-103.04
-92.35
-80.35
-61.61
-32.22
8.50
58.08
111.74
163.62
207.99
240.29
257.94
260.47
249.33
227.04
196.75
162.23
128.26
100.68
85.32
85.86
101.52
126.26
149.94
161.66
153.66
124.47
79.65
29.88
-12.94
-39.76
-47.11
-37.49
-17.46
5.35
24.58
36.18
37.94
28.74
8.50
-20.93
-55.01
-86.96
-109.91
-120.13
-119.33
-114.38
-114.21
-125.10
-146.98
-172.68
-190.61
-190.08
-166.51
-124.13
-74.88
-33.70
-12.58
-15.79
-38.26
-68.00
-91.10
-97.24
-83.31
-53.76
-17.98
13.90
34.80
42.67
40.39
33.80
29.04
30.46
39.37
53.94
70.16
83.25
89.23
86.42
75.85
60.91
45.93
34.50
28.48
27.93
31.75
38.61
47.33
56.55
64.25
67.63
63.99
52.14
33.32
11.10
-9.97
-26.09
-35.48
-38.35
-36.01
-29.73
-20.14
-7.31
8.56
26.65
45.51
63.39
78.90
91.35
100.68
107.15
110.98
112.37
111.69
109.75
107.75
107.09
108.79
113.19
119.64
126.81
133.20
137.62
139.42
138.31
134.01
126.01
113.64
96.55
75.20
51.05
26.14
2.34
-19.41
-39.52
-59.40
-80.70
-104.22
-129.09
-152.68
-171.24
-181.08
-179.82
-167.62
-147.71
-125.88
-108.65
-100.68
-102.58
-110.24
-116.44
-114.16
-100.10
-76.32
-49.06
-25.45
-10.04
-3.18
-1.96
-2.65
-2.84
-1.88
-0.04
2.95
8.05
16.01
26.15
36.02
42.51
43.55
39.42
32.42
25.22
18.88
11.98
1.38
-15.68
-39.57
-67.26
-92.98
-110.44
-115.24
-106.70
-88.04
-65.25
-45.06
-32.83
-31.28
-39.85
-55.24
-72.44
-86.19
-92.33
-88.88
-76.54
-58.28
-38.42
-21.34
-10.44
-7.56
-12.79
-24.28
-38.54
-50.94
-56.81
-53.05
-39.51
-19.31
2.12
19.00
27.39
26.57
19.11
9.60
2.72
1.43
6.03
14.36
23.13
29.69
33.38
35.74
39.24
45.21
52.21
56.05
51.54
35.43
8.62
-23.55
-53.22
-73.11
-79.23
-71.77
-54.10
-30.87
-6.15
17.15
37.17
52.73
63.30
69.40
72.85
76.38
82.47
91.94
103.02
111.80
113.74
105.64
87.01
60.17
29.28
-1.40
-28.90
-52.18
-72.04
-90.49
-110.17
-133.37
-161.01
-191.60
-221.03
-243.38
-253.33
-248.94
-233.17
-213.04
-196.51
-188.80
-190.04
-195.76
-199.48
-196.09
-183.95
-164.80
-142.18
-119.61
-99.58
-83.43
-71.57
-63.38
-57.07
-50.02
-39.52
-23.97
-3.70
18.93
40.47
57.62
68.13
71.20
67.27
57.74
44.56
29.92
15.86
3.79
-5.79
-13.00
-17.89
-19.96
-17.94
-10.53
2.92
21.66
43.40
64.74
82.00
92.26
94.05
87.80
75.71
61.16
47.64
37.83
32.71
31.67
33.07
34.92
35.68
34.46
30.92
25.28
18.27
11.05
4.85
0.61
-1.50
-1.93
-1.48
-0.94
-0.91
-1.85
-4.15
-8.02
-13.18
-18.89
-24.22
-28.81
-33.34
-39.16
-47.16
-56.60
-64.69
-67.72
-63.17
-51.43
-36.23
-23.01
-16.30
-17.58
-24.68
-33.19
-38.72
-38.68
-32.98
-23.33
-12.12
-1.46
6.99
11.89
12.02
6.67
-3.83
-17.81
-32.57
-45.10
-52.98
-55.01
-51.23
-42.82
-31.73
-20.40
-11.22
-5.88
-4.79
-6.95
-10.70
-14.87
-19.58
-25.95
-34.81
-45.09
-53.29
-54.86
-46.87
-30.51
-11.53
2.24
4.87
-4.18
-19.32
-31.36
-32.23
-19.01
4.77
31.21
51.93
61.80
60.35
50.92
38.28
26.34
17.10
10.69
6.45
3.72
2.24
2.06
3.12
4.99
6.94
8.18
8.31
7.53
6.43
5.57
5.03
4.12
1.86
-2.22
-7.17
-10.55
-9.38
-1.90
11.11
26.02
37.75
42.13
37.95
27.54
15.63
7.17
5.13
9.48
17.69
26.04
31.40
32.16
28.30
20.86
11.11
0.24
-10.62
-20.20
-27.07
-29.94
-28.18
-22.36
-14.24
-6.30
-0.84
0.85
-1.09
-5.25
-9.49
-11.72
-10.63
-6.11
0.53
7.10
11.43
12.56
11.31
10.20
11.96
17.96
27.06
36.02
41.16
40.42
34.45
26.24
19.42
16.50
17.95
22.49
28.07
32.96
36.19
37.51
36.98
34.77
31.10
26.36
21.22
16.53
13.27
12.11
13.07
15.30
17.18
16.89
13.26
6.45
-2.07
-10.25
-16.68
-21.44
-26.05
-32.50
-42.04
-54.09
-66.34
-75.67
-79.76
-78.54
-74.82
-73.47
-79.48
-95.35
-119.09
-144.16
-161.42
-162.44
-142.74
-103.45
-50.62
7.12
61.38
106.21
138.86
159.51
170.34
174.38
174.16
170.69
163.12
149.28
127.45
98.17
64.92
33.18
8.10
-7.80
-15.29
-17.37
-17.03
-15.67
-12.99
-8.20
-1.45
5.80
11.88
16.41
21.14
28.93
41.60
57.84
72.96
80.84
77.09
61.86
40.26
20.29
9.25
10.66
23.12
41.51
59.63
72.49
77.60
74.88
65.96
53.46
40.58
30.56
25.90
27.40
33.54
40.69
44.40
41.19
30.38
14.66
-0.76
-10.20
-9.90
0.22
16.47
32.65
42.63
42.73
32.88
16.34
-1.86
-16.86
-25.31
-26.19
-21.04
-13.64
-9.01
-11.89
-24.57
-45.38
-68.76
-87.03
-93.40
-84.65
-62.47
-32.48
-2.30
20.97
32.42
30.22
15.87
-6.12
-29.19
-46.50
-53.07
-47.72
-33.43
-16.18
-2.42
3.59
1.16
-7.04
-16.45
-22.69
-23.14
-17.63
-8.20
1.67
8.34
9.31
4.20
-5.05
-14.87
-21.53
-22.73
-18.47
-11.02
-3.68
0.56
0.26
-4.05
-10.22
-15.22
-16.31
-12.10
-3.22
7.92
18.07
24.38
25.37
21.00
12.07
-0.43
-15.57
-31.92
-46.89
-56.84
-58.14
-49.02
-31.09
-9.31
9.85
21.13
22.76
16.90
8.27
1.58
-0.83
0.09
0.87
-2.53
-12.49
-28.52
-47.19
-63.39
-72.07
-70.19
-57.83
-38.44
-17.84
-2.25
3.97
-0.01
-11.14
-23.80
-32.08
-31.99
-22.66
-6.23
13.43
32.07
46.06
52.76
50.84
40.55
24.20
6.04
-8.68
-15.39
-11.85
0.87
18.66
35.81
46.95
48.76
41.15
27.23
12.37
2.34
1.23
9.85
25.34
42.19
54.43
58.02
52.53
41.20
29.47
22.64
23.51
31.33
42.09
50.35
51.56
44.04
29.71
13.26
0.17
-5.58
-2.87
6.46
18.93
30.82
39.08
41.47
36.57
23.93
4.77
-17.46
-37.52
-49.96
-51.27
-41.57
-24.64
-6.50
6.96
11.88
7.36
-4.79
-20.91
-36.50
-47.31
-50.53
-45.93
-36.25
-26.37
-21.20
-23.30
-31.38
-40.84
-45.94
-42.64
-30.69
-13.62
2.83
13.28
14.92
8.53
-2.20
-12.24
-17.26
-14.97
-5.67
8.31
23.66
37.04
45.74
47.94
42.96
31.68
16.75
2.29
-7.22
-8.76
-2.33
8.70
18.84
23.10
19.29
9.08
-3.09
-12.29
-15.73
-13.85
-9.72
-7.20
-8.86
-14.94
-23.44
-31.27
-35.65
-35.05
-29.60
-20.88
-11.50
-4.40
-2.01
-5.51
-14.33
-26.20
-37.86
-46.00
-48.35
-44.32
-35.16
-23.78
-13.98
-9.54
-13.05
-24.71
-41.83
-59.33
-71.34
-73.34
-63.96
-45.32
-22.15
0.17
17.43
27.54
30.55
27.93
21.74
14.27
7.76
4.18
4.80
9.53
16.67
23.31
26.63
25.40
20.95
17.01
18.06
27.11
43.92
64.65
83.24
93.89
93.45
82.59
65.40
47.63
34.44
28.61
29.96
35.87
42.61
46.92
47.07
43.15
36.68
29.70
23.83
19.97
18.39
18.98
21.69
26.44
32.80
39.75
45.76
49.05
48.34
43.21
34.14
22.13
8.18
-6.95
-22.37
-36.36
-46.12
-48.29
-40.53
-23.28
-0.48
21.32
35.45
38.06
29.78
15.33
1.17
-7.54
-8.95
-4.77
1.23
5.29
5.56
2.54
-1.69
-4.76
-5.50
-4.58
-4.32
-7.42
-15.49
-27.84
-41.57
-52.61
-57.65
-55.66
-48.44
-39.69
-33.38
-32.37
-37.72
-48.86
-64.11
-80.68
-94.49
-100.21
-92.65
-69.29
-32.92
7.61
39.67
51.88
39.28
6.25
-35.01
-69.70
-86.83
-83.67
-66.05
-44.60
-29.00
-23.40
-25.07
-26.52
-20.09
-1.90
26.24
58.04
85.65
102.78
106.60
97.95
80.56
59.83
41.68
31.18
31.10
40.79
55.87
69.48
74.66
66.97
46.10
15.93
-16.81
-44.50
-60.38
-60.14
-43.03
-12.66
23.20
54.37
71.67
70.24
51.35
22.07
-7.92
-29.99
-39.44
-36.59
-25.73
-12.80
-3.20
-0.18
-4.36
-14.22
-27.01
-39.60
-49.33
-54.63
-55.46
-53.38
-51.13
-51.77
-57.57
-69.10
-84.95
-102.20
-117.68
-129.09
-136.02
-139.89
-143.08
-147.71
-154.52
-162.43
-168.66
-169.96
-163.45
-147.83
-123.68
-93.04
-58.74
-23.32
11.61
45.55
78.44
109.50
135.90
152.21
151.47
128.00
80.91
16.38
-52.66
-110.34
-143.20
-144.82
-117.42
-69.88
-13.94
39.85
84.10
114.52
129.38
129.36
118.17
102.41
90.25
87.37
93.67
101.78
100.16
78.98
35.75
-22.42
-81.70
-127.53
-150.56
-149.07
-128.13
-96.39
-63.49
-38.64
-29.78
-41.97
-74.65
-120.00
-163.86
-190.54
-189.27
-158.93
-108.33
-51.93
-3.21
30.16
47.82
54.69
57.65
62.92
74.47
93.25
116.69
138.85
152.29
151.22
135.03
109.88
87.27
79.48
94.20
130.97
181.02
230.58
265.95
278.07
264.89
231.44
187.96
147.02
120.30
115.44
133.65
169.03
210.29
243.78
257.38
243.83
202.46
139.38
66.11
-3.04
-54.25
-77.13
-67.19
-26.83
35.16
105.59
170.02
216.20
236.93
231.22
203.44
160.88
110.81
58.47
6.91
-41.54
-83.54
-114.05
-127.61
-121.14
-96.36
-60.32
-23.34
4.53
16.56
10.66
-11.19
-44.52
-84.02
-124.35
-160.24
-186.90
-200.73
-200.38
-187.55
-166.75
-143.80
-123.81
-109.81
-102.54
-101.08
-103.39
-106.56
-106.55
-98.63
-78.98
-46.95
-7.18
30.35
53.05
50.48
19.47
-33.12
-92.01
-138.94
-159.51
-148.75
-112.64
-65.41
-23.53
0.74
3.67
-9.10
-25.85
-33.92
-24.90
2.27
40.95
79.25
104.37
107.30
86.20
46.82
0.16
-42.26
-72.58
-89.14
-95.90
-99.38
-105.30
-116.02
-130.27
-144.41
-154.80
-159.30
-157.96
-152.13
-143.00
-130.57
-113.84
-92.53
-68.51
-46.27
-31.26
-26.92
-32.05
-40.50
-43.85
-35.43
-13.72
17.30
50.66
80.58
105.17
126.12
146.04
165.79
183.87
197.85
206.49
210.53
211.73
211.36
209.27
204.75
198.04
191.38
188.18
190.91
199.06
209.00
215.55
214.71
205.54
190.28
172.90
156.93
144.15
133.83
123.09
107.99
85.42
55.02
20.31
-12.10
-35.17
-44.69
-41.17
-29.05
-13.97
-0.07
10.78
17.58
18.61
11.24
-6.01
-30.79
-56.11
-72.73
-73.82
-59.19
-36.50
-18.18
-15.91
-35.14
-72.51
-116.77
-153.04
-168.17
-155.51
-117.59
-65.66
-15.90
16.37
22.24
2.39
-34.28
-75.11
-109.33
-131.43
-141.19
-141.11
-133.14
-117.35
-92.98
-60.79
-24.56
9.45
35.07
48.74
50.35
42.08
26.45
5.12
-20.42
-47.15
-69.83
-82.25
-80.14
-64.01
-39.47
-14.68
3.43
11.94
12.19
7.62
1.29
-4.91
-9.61
-10.67
-5.07
9.24
30.82
53.66
68.66
67.65
47.82
13.93
-23.13
-50.98
-61.06
-52.01
-29.55
-3.21
18.08
29.34
30.30
24.11
14.95
6.36
0.76
-0.47
3.05
10.33
18.64
23.86
22.33
12.56
-3.59
-21.24
-34.74
-40.17
-36.88
-27.41
-16.45
-8.88
-8.25
-15.68
-29.34
-44.70
-55.75
-56.99
-45.54
-22.72
5.69
31.02
44.55
40.72
19.42
-13.31
-47.23
-71.48
-78.68
-67.86
-44.75
-19.05
-0.02
7.11
2.95
-7.71
-19.26
-28.02
-32.96
-34.45
-32.55
-26.48
-15.94
-2.76
8.57
12.38
5.11
-12.42
-34.89
-54.86
-66.61
-68.90
-65.58
-63.46
-68.72
-83.57
-104.88
-125.05
-134.59
-125.98
-96.52
-49.50
6.52
60.69
103.71
131.09
143.89
147.21
146.71
146.02
146.19
146.91
147.88
149.04
149.59
147.10
138.11
120.75
97.80
77.25
69.23
80.49
109.70
146.82
177.72
191.39
185.83
168.49
151.24
143.23
145.97
153.20
154.92
143.40
116.85
79.63
39.16
2.22
-27.06
-46.82
-55.87
-52.70
-36.22
-8.00
25.83
55.22
69.91
64.19
39.75
5.04
-28.50
-51.40
-59.62
-54.92
-42.90
-30.17
-22.19
-22.67
-33.79
-56.45
-90.10
-131.88
-176.53
-217.13
-246.92
-261.06
-257.76
-238.35
-206.55
-167.56
-126.87
-89.14
-57.47
-33.16
-16.28
-6.41
-3.02
-5.23
-10.82
-15.92
-15.77
-6.90
10.58
31.88
48.87
53.86
43.35
20.08
-7.99
-31.21
-42.14
-37.95
-20.53
5.22
33.47
58.83
77.15
85.38
81.87
66.90
43.13
15.41
-10.17
-28.34
-36.36
-34.61
-25.84
-13.39
-0.00
12.40
22.12
26.90
24.30
13.15
-4.58
-23.60
-36.80
-38.43
-26.81
-4.97
20.72
43.05
55.85
54.95
38.83
9.36
-27.61
-63.13
-87.40
-93.76
-81.76
-57.54
-31.29
-12.77
-7.21
-14.04
-28.55
-44.93
-58.97
-68.85
-74.23
-75.06
-71.13
-62.79
-51.92
-41.91
-36.06
-35.60
-38.48
-40.30
-36.99
-27.91
-17.04
-11.25
-16.50
-33.75
-57.61
-78.25
-85.91
-75.97
-51.66
-23.18
-3.43
-2.43
-22.59
-57.20
-92.93
-115.46
-115.72
-93.62
-57.32
-18.60
12.96
33.55
44.78
50.24
51.94
49.03
39.59
23.54
4.27
-12.44
-21.39
-20.73
-12.55
-1.09
10.12
20.58
32.48
48.83
70.91
96.94
122.47
142.53
154.31
158.46
158.64
159.28
162.95
168.88
173.26
171.56
161.28
143.51
122.65
104.41
93.38
91.43
97.65
108.99
121.67
132.10
137.28
134.95
123.66
102.95
73.03
34.67
-10.67
-60.04
-108.14
-146.78
-166.09
-157.37
-117.05
-49.65
32.03
110.17
167.60
192.97
183.78
146.25
92.34
35.91
-10.83
-40.02
-49.48
-42.80
-28.47
-17.35
-19.24
-39.06
-74.43
-115.77
-149.73
-164.78
-156.39
-129.46
-96.20
-70.45
-61.35
-69.73
-89.04
-109.87
-125.35
-133.86
-138.35
-142.49
-147.31
-150.15
-146.66
-134.12
-113.47
-88.75
-64.47
-43.17
-24.80
-8.45
5.27
13.39
12.11
0.17
-18.91
-36.97
-44.70
-36.59
-14.65
11.88
31.11
34.49
21.33
-1.19
-22.22
-32.87
-30.03
-16.42
2.16
20.57
36.14
48.42
57.37
62.10
60.90
52.59
38.07
20.73
5.61
-2.78
-2.23
6.28
19.23
32.26
41.94
46.64
46.08
40.25
28.58
10.27
-14.08
-40.88
-63.21
-72.93
-64.43
-38.22
-2.15
30.83
47.76
41.27
13.02
-26.55
-62.42
-81.13
-76.14
-49.94
-12.17
24.90
51.47
63.17
61.34
50.65
36.15
21.04
6.56
-6.69
-17.52
-23.29
-21.09
-9.28
10.74
34.50
55.67
68.33
69.40
59.23
41.48
20.99
2.28
-11.59
-19.06
-19.83
-14.97
-7.67
-3.62
-9.54
-30.46
-66.01
-108.79
-145.69
-162.75
-151.23
-112.06
-56.11
-0.02
40.01
54.37
42.96
13.99
-19.99
-47.09
-59.51
-55.23
-36.90
-9.90
19.79
47.57
70.69
88.35
100.58
107.30
107.57
99.92
83.17
57.95
27.66
-2.05
-24.18
-32.41
-22.58
6.20
51.12
105.60
160.21
204.05
226.92
222.21
189.24
134.59
70.78
12.81
-26.87
-42.52
-36.68
-18.53
0.36
10.65
8.42
-4.54
-22.96
-41.29
-55.93
-65.84
-71.52
-73.52
-72.17
-67.97
-62.46
-58.34
-58.35
-63.98
-74.32
-86.31
-95.99
-100.10
-97.01
-86.64
-69.88
-48.07
-23.00
2.89
26.61
45.43
57.85
64.29
66.70
67.34
67.49
66.98
64.90
60.73
55.11
49.62
45.63
43.14
40.57
35.60
26.46
13.09
-2.94
-19.19
-33.54
-45.11
-54.24
-61.67
-67.88
-72.31
-73.56
-69.74
-59.22
-41.36
-17.26
9.88
34.84
51.21
53.10
37.01
3.61
-41.90
-90.86
-133.35
-160.63
-167.31
-152.53
-120.27
-78.90
-39.63
-14.10
-10.95
-32.87
-74.74
-124.84
-168.36
-192.28
-189.36
-159.76
-109.80
-48.97
13.42
70.25
117.20
152.22
174.55
183.95
180.59
165.50
141.23
112.08
83.46
60.45
46.02
39.76
37.93
35.10
26.61
10.71
-10.54
-32.43
-49.78
-59.18
-60.30
-55.73
-49.54
-45.38
-44.93
-47.11
-48.46
-44.35
-30.84
-6.44
27.02
64.48
98.89
123.09
131.98
124.00
101.75
71.22
40.02
15.15
1.12
-1.01
6.43
18.68
29.87
34.61
29.30
13.27
-10.77
-37.21
-59.26
-71.37
-71.34
-61.01
-45.15
-29.16
-17.00
-10.30
-8.92
-12.15
-19.35
-29.68
-41.45
-51.71
-56.99
-54.88
-45.29
-30.75
-15.23
-2.29
6.51
11.88
15.89
20.44
25.91
30.91
32.84
29.22
19.20
4.46
-11.11
-22.58
-25.96
-19.85
-5.79
12.45
30.50
45.01
54.17
57.45
54.82
46.33
32.26
14.03
-5.50
-22.35
-32.81
-34.92
-29.53
-20.02
-11.06
-6.61
-8.33
-15.01
-23.14
-28.51
-27.76
-19.62
-5.07
12.88
30.19
42.70
47.20
42.28
28.91
10.45
-8.06
-21.30
-25.55
-20.00
-7.07
8.50
21.36
27.28
23.75
10.16
-12.43
-41.48
-72.89
-100.85
-118.51
-119.46
-100.23
-62.60
-14.20
33.18
66.95
77.55
61.50
22.01
-31.95
-88.41
-135.60
-164.51
-170.07
-151.27
-110.54
-53.23
12.51
75.62
123.03
142.25
125.45
73.55
-2.19
-82.30
-145.19
-174.52
-164.46
-120.93
-58.67
4.24
51.53
72.75
64.93
32.60
-14.04
-61.73
-97.80
-113.84
-108.00
-85.76
-57.95
-36.77
-31.32
-44.51
-71.90
-103.75
-128.80
-138.48
-129.62
-104.74
-69.82
-31.21
6.65
41.88
74.26
103.88
130.35
152.67
169.92
181.77
188.59
191.14
190.44
187.65
184.02
180.78
178.74
177.80
176.74
173.31
164.99
150.08
128.74
103.33
77.82
56.40
42.03
35.53
35.60
39.75
45.51
51.06
55.18
56.86
55.02
48.80
38.21
24.81
11.58
1.99
-1.43
1.69
9.26
17.61
22.99
23.22
18.52
11.18
4.34
0.30
-0.64
-0.14
-0.81
-4.61
-11.65
-19.90
-26.15
-27.52
-22.76
-12.88
-0.57
10.85
18.74
21.83
20.28
15.30
8.48
1.36
-4.82
-9.11
-10.90
-9.97
-6.48
-1.08
5.13
10.75
14.48
15.46
13.68
9.89
5.43
1.60
-0.80
-1.78
-1.89
-1.74
-1.47
-0.62
1.56
5.41
10.40
15.16
18.05
18.04
15.31
11.12
7.16
4.75
4.22
5.08
6.41
7.41
7.78
7.52
6.59
4.80
1.84
-2.23
-6.86
-10.93
-13.33
-13.50
-11.76
-9.18
-7.03
-6.10
-6.35
-7.06
-7.42
-7.14
-6.75
-7.14
-8.96
-11.71
-13.75
-12.98
-7.91
1.33
12.78
23.31
30.02
31.48
28.43
23.22
18.65
16.63
17.26
18.86
18.83
14.80
5.70
-7.81
-23.50
-38.21
-48.79
-53.15
-51.07
-44.36
-36.24
-30.05
-27.81
-29.33
-32.49
-34.55
-33.83
-30.54
-26.53
-24.06
-24.33
-26.77
-29.48
-30.30
-27.74
-21.47
-11.99
-0.32
12.19
23.75
32.13
35.14
31.52
21.82
8.65
-4.02
-12.37
-14.22
-9.95
-2.14
5.67
10.64
11.84
10.26
7.95
6.66
6.84
7.54
7.20
4.67
-0.13
-6.13
-11.84
-16.18
-18.90
-20.47
-21.62
-22.72
-23.76
-24.58
-25.27
-26.43
-28.89
-33.07
-38.29
-42.56
-43.10
-37.69
-26.01
-10.30
5.26
16.23
19.82
16.15
8.16
0.10
-4.30
-3.41
1.91
8.96
14.65
16.90
15.25
10.76
5.28
0.48
-2.68
-3.97
-3.65
-2.06
0.58
4.01
7.76
11.11
13.30
14.01
13.56
12.89
13.02
14.37
16.43
17.92
17.42
14.36
9.52
5.03
3.46
6.64
14.69
25.84
37.03
45.04
47.58
43.67
33.59
18.62
0.85
-16.88
-31.06
-38.27
-36.25
-25.03
-7.51
11.07
24.81
29.12
22.39
6.60
-13.35
-31.38
-42.13
-42.48
-32.38
-14.51
6.58
25.80
38.70
42.44
36.17
20.97
-0.40
-23.96
-45.14
-59.58
-64.13
-57.73
-42.03
-21.29
-1.38
11.92
14.83
6.96
-8.55
-26.02
-39.24
-43.46
-36.82
-20.71
0.85
22.35
38.37
44.88
40.19
25.40
4.23
-17.91
-35.35
-43.77
-41.60
-30.35
-14.10
2.07
13.76
18.64
16.85
10.36
1.82
-6.59
-13.63
-18.80
-21.73
-21.76
-18.00
-10.13
0.69
11.71
19.07
19.46
11.77
-2.09
-17.66
-29.74
-34.70
-31.93
-23.82
-14.45
-7.39
-4.42
-5.33
-8.72
-13.28
-18.40
-24.00
-29.76
-34.60
-36.85
-35.02
-28.80
-19.47
-9.54
-1.63
2.67
3.29
1.39
-1.58
-4.69
-7.92
-11.70
-16.26
-21.03
-24.52
-25.15
-22.19
-16.56
-10.71
-7.70
-9.60
-16.48
-26.20
-35.23
-40.05
-38.44
-30.14
-16.84
-1.38
13.20
24.53
31.51
34.48
34.91
34.71
35.34
37.13
39.17
39.85
37.80
32.64
25.37
17.82
11.85
8.42
7.01
6.09
3.80
-0.87
-7.55
-14.47
-19.30
-19.93
-15.40
-6.14
6.14
18.90
29.35
35.21
35.40
30.51
22.80
15.39
10.90
10.23
12.22
14.37
14.36
11.34
6.35
1.52
-1.10
-0.66
2.36
6.53
10.31
12.71
13.42
12.72
11.17
9.32
7.48
5.55
3.01
-0.95
-7.02
-15.30
-24.91
-33.92
-39.57
-39.17
-31.23
-16.36
2.30
19.94
31.72
34.93
30.23
21.46
13.83
11.37
15.09
22.74
30.23
33.84
31.95
25.35
16.48
8.09
2.34
0.63
3.78
12.11
25.36
42.16
60.00
75.55
85.73
88.69
84.64
75.61
64.63
54.62
47.33
43.18
41.64
42.18
44.88
50.50
59.69
71.89
84.64
93.83
95.10
85.69
65.97
39.28
10.85
-14.41
-33.71
-47.04
-56.80
-66.78
-81.04
-102.79
-133.33
-171.18
-212.04
-249.77
-278.46
-294.65
-298.50
-293.15
-282.61
-269.33
-253.15
-232.02
-204.12
-169.74
-131.82
-94.78
-62.48
-36.60
-16.31
0.85
17.50
35.15
53.64
71.18
85.22
93.52
95.19
91.05
83.46
75.48
69.72
67.55
68.75
71.91
75.07
76.49
75.09
70.57
63.36
54.27
44.28
34.50
26.00
19.70
16.12
15.11
15.76
16.55
15.80
12.20
5.40
-3.96
-14.42
-24.26
-32.05
-37.15
-39.77
-40.80
-41.21
-41.52
-41.43
-39.98
-36.12
-29.38
-20.36
-10.67
-2.32
3.02
4.73
3.37
0.38
-2.58
-4.32
-4.57
-3.96
-3.64
-4.62
-7.19
-10.76
-14.15
-16.37
-17.17
-17.17
-17.44
-18.79
-21.16
-23.65
-25.07
-24.56
-22.03
-18.09
-13.68
-9.45
-5.52
-1.46
3.43
9.71
17.39
25.97
34.62
42.74
50.42
58.39
67.65
78.56
90.18
100.39
106.79
107.88
103.79
96.36
88.07
80.99
76.05
73.10
71.42
70.33
69.50
68.78
68.04
66.94
65.08
62.21
58.41
54.07
49.72
45.84
42.79
40.81
39.88
39.74
39.86
39.58
38.36
35.92
32.33
27.80
22.45
15.99
7.92
-2.16
-14.21
-27.26
-39.49
-48.89
-54.03
-54.89
-52.94
-50.45
-49.33
-50.29
-52.52
-54.15
-53.30
-48.88
-41.13
-31.40
-21.59
-13.47
-8.06
-5.46
-4.93
-5.27
-5.34
-4.54
-3.05
-1.66
-1.40
-3.07
-7.01
-13.16
-21.17
-30.32
-39.36
-46.35
-48.96
-45.32
-34.92
-19.23
-1.45
14.53
25.36
29.43
27.07
20.11
11.04
2.32
-4.08
-6.80
-5.20
0.29
8.13
15.71
20.13
19.34
13.07
3.02
-8.00
-17.51
-24.67
-30.47
-36.89
-45.25
-54.98
-63.67
-68.25
-66.63
-58.86
-47.06
-34.34
-23.42
-15.71
-11.26
-9.44
-9.64
-11.51
-14.81
-18.96
-22.77
-24.64
-23.21
-18.00
-9.97
-1.27
5.39
7.81
5.15
-1.63
-10.27
-18.04
-22.84
-23.85
-21.63
-17.71
-13.88
-11.51
-11.07
-12.02
-12.91
-11.97
-7.72
0.14
10.43
20.58
27.43
28.57
23.34
13.23
1.33
-8.80
-14.53
-14.84
-10.48
-3.41
4.10
10.23
14.01
15.37
14.85
13.29
11.50
10.01
8.89
7.76
5.86
2.34
-3.38
-11.34
-21.03
-31.43
-41.36
-49.85
-56.27
-60.33
-61.77
-60.14
-55.05
-46.68
-36.42
-26.77
-20.35
-18.24
-19.03
-19.13
-14.53
-3.14
13.92
32.82
48.99
59.31
63.12
61.74
57.16
51.11
45.21
41.93
44.89
58.08
83.55
119.59
160.18
196.72
221.13
228.67
219.09
195.75
163.39
126.21
87.01
47.81
10.91
-20.72
-44.11
-57.67
-62.13
-60.33
-55.71
-50.69
-45.93
-40.94
-35.27
-29.57
-25.38
-24.21
-26.50
-31.42
-37.56
-44.11
-51.29
-59.76
-69.75
-80.09
-88.39
-91.98
-89.22
-80.17
-66.58
-51.04
-35.92
-22.64
-11.57
-2.53
4.68
9.84
12.48
12.13
8.98
4.09
-0.76
-3.51
-2.82
1.19
6.73
11.00
11.37
6.64
-2.23
-12.24
-19.48
-21.09
-16.81
-9.40
-3.27
-2.24
-7.62
-17.66
-28.63
-36.83
-40.57
-40.74
-40.24
-41.67
-45.73
-51.01
-55.03
-55.83
-52.58
-45.73
-36.22
-25.06
-12.02
3.78
22.85
44.25
66.15
87.96
111.08
138.55
171.81
210.40
250.04
283.31
301.53
298.68
275.33
237.61
194.30
151.17
112.03
78.05
49.07
23.74
0.90
-18.40
-32.02
-37.49
-34.96
-23.03
0.01
34.85
78.45
115.19
129.81
113.68
84.46
53.12
27.19
6.67
-5.36
-5.90
6.81
33.52
71.50
113.95
148.89
167.12
164.89
145.21
114.52
79.78
47.09
19.62
-2.28
-21.75
-40.46
-58.53
-75.06
-90.27
-105.73
-122.86
-142.64
-165.40
-192.02
-221.39
-250.74
-275.67
-291.77
-295.90
-286.99
-267.01
-240.56
-213.90
-191.81
-176.21
-165.93
-158.20
-150.26
-140.46
-128.72
-116.16
-104.32
-94.05
-85.21
-76.85
-67.89
-57.67
-46.06
-33.22
-19.10
-3.12
15.40
36.41
58.27
77.64
90.49
93.85
87.55
74.60
59.99
48.38
41.84
39.32
37.73
34.11
27.49
19.30
11.99
7.18
4.49
1.68
-3.60
-12.02
-21.83
-29.64
-32.35
-28.98
-20.92
-10.82
-0.77
8.70
18.40
29.14
40.46
50.27
55.68
54.55
46.60
33.55
18.19
3.21
-9.69
-19.82
-27.05
-31.22
-32.03
-29.35
-23.60
-16.04
-8.52
-2.87
-0.01
0.33
-0.36
-0.21
2.03
6.32
11.27
14.69
14.57
9.91
1.04
-10.41
-22.11
-31.74
-37.72
-39.64
-38.36
-35.58
-33.08
-32.01
-32.53
-34.06
-35.87
-37.62
-39.50
-41.75
-44.15
-45.87
-45.71
-42.86
-37.45
-30.67
-24.40
-20.27
-18.96
-19.92
-21.72
-22.80
-21.92
-18.54
-12.61
-4.41
5.52
16.14
25.64
31.71
32.08
25.42
11.88
-6.82
-27.80
-47.74
-63.36
-71.84
-71.07
-60.22
-40.30
-14.53
12.25
34.93
49.87
56.17
55.70
52.13
49.21
49.48
53.68
60.95
69.51
77.20
82.07
82.76
79.08
72.23
65.07
61.50
65.12
77.44
96.23
115.22
125.37
117.74
86.90
33.65
-34.43
-104.98
-164.69
-203.62
-217.86
-209.91
-186.56
-155.83
-124.24
-95.60
-71.32
-51.44
-35.62
-23.42
-14.15
-6.73
0.41
8.80
19.36
32.03
45.71
58.56
68.58
74.37
75.57
73.00
68.34
63.53
60.17
58.99
59.79
61.60
63.14
63.21
61.21
57.44
53.21
50.57
51.28
55.75
62.42
68.14
69.53
64.74
54.45
41.70
30.42
23.71
22.48
25.48
30.27
34.51
36.93
37.17
35.23
30.99
24.19
14.87
3.95
-6.64
-14.51
-17.59
-14.98
-7.44
2.82
12.81
19.72
22.00
19.83
15.15
10.90
9.67
12.57
18.70
25.58
30.45
31.62
29.11
24.40
19.34
14.94
10.82
5.63
-1.83
-11.70
-22.64
-32.45
-38.92
-40.82
-38.25
-32.40
-24.83
-16.92
-9.66
-3.85
-0.44
-0.41
-4.38
-12.02
-21.76
-31.20
-38.06
-41.09
-40.52
-37.61
-33.82
-30.04
-26.32
-22.20
-17.42
-12.33
-7.84
-5.03
-4.52
-6.20
-9.34
-13.00
-16.31
-18.87
-20.79
-22.43
-24.13
-25.72
-26.42
-25.09
-20.89
-13.75
-4.57
5.40
15.34
25.51
37.10
51.39
68.66
87.61
105.72
120.49
130.89
138.27
145.96
157.97
177.15
203.80
235.17
266.16
290.96
305.14
307.32
299.66
286.75
273.44
262.70
254.42
245.96
233.94
216.36
193.53
167.59
141.19
116.30
93.90
74.63
59.49
49.79
46.45
49.13
55.99
64.53
72.65
79.30
84.31
87.53
88.19
85.03
76.98
64.09
47.57
29.21
10.38
-8.42
-27.34
-46.34
-64.79
-81.41
-95.05
-105.54
-114.18
-123.32
-135.44
-152.09
-173.17
-196.77
-219.71
-238.45
-250.25
-254.29
-252.04
-247.06
-243.60
-244.83
-251.35
-260.80
-269.01
-272.01
-267.67
-256.23
-239.63
-220.31
-200.47
-182.05
-167.10
-157.64
-154.77
-157.54
-162.81
-166.58
-166.19
-161.88
-156.77
-155.20
-160.30
-172.37
-189.00
-206.39
-221.02
-230.76
-234.93
-234.18
-230.20
-225.90
-224.80
-230.09
-243.18
-262.68
-284.67
-303.57
-314.07
-312.52
-297.93
-271.66
-236.66
-196.64
-155.50
-117.15
-84.67
-59.96
-43.35
-34.32
-31.51
-33.14
-37.45
-42.97
-49.29
-55.93
-62.24
-66.98
-69.24
-68.28
-63.56
-54.87
-42.47
-27.80
-12.14
3.63
19.31
34.22
47.41
57.72
63.97
69.09
72.43
71.68
61.99
44.39
21.71
-2.67
-26.43
-48.00
-66.43
-81.64
-93.08
-99.62
-99.43
-91.62
-75.93
-52.46
-21.40
16.69
59.88
105.14
148.46
185.91
214.23
232.34
241.68
245.24
245.54
242.82
235.48
221.15
198.64
168.62
133.90
98.63
67.05
42.51
27.00
21.60
26.72
42.16
66.65
97.96
133.19
169.14
203.17
233.71
260.74
285.62
310.11
334.83
358.31
377.09
386.99
385.13
371.38
348.59
321.48
294.82
271.76
253.35
238.78
226.18
213.26
197.79
178.09
153.82
126.50
99.40
76.59
61.21
54.07
53.42
55.91
58.23
58.30
55.53
50.12
42.38
32.43
20.56
7.78
-4.23
-13.89
-20.70
-25.68
-30.77
-37.62
-46.41
-55.42
-61.70
-62.40
-55.87
-42.25
-23.21
-1.36
20.50
39.95
55.47
66.64
74.29
80.29
87.08
96.80
110.56
127.93
146.76
163.66
174.80
177.14
169.50
153.02
130.69
106.06
81.62
57.91
33.68
6.91
-23.88
-58.67
-95.86
-132.57
-165.15
-189.63
-202.36
-201.05
-186.16
-161.91
-135.76
-116.26
-109.85
-118.38
-139.04
-166.64
-196.66
-227.40
-259.52
-293.58
-327.71
-356.98
-375.20
-378.02
-365.16
-340.54
-310.08
-278.99
-249.88
-222.81
-196.49
-169.84
-142.80
-116.13
-90.69
-67.07
-45.39
-25.54
-7.49
8.64
22.55
33.67
41.53
45.89
47.18
46.77
46.87
49.93
57.66
70.19
85.65
100.84
112.42
118.41
119.00
116.35
113.45
112.69
114.95
119.56
125.05
130.09
134.07
137.25
140.34
143.91
148.08
152.35
155.98
158.28
158.96
158.07
155.76
151.95
146.30
138.71
130.00
122.44
119.29
123.38
135.40
153.13
172.07
187.47
196.22
197.62
192.54
181.90
165.69
143.53
116.12
86.09
57.73
35.09
20.00
11.37
6.28
2.06
-1.94
-4.22
-2.56
4.09
14.48
25.52
33.70
36.82
34.77
29.20
22.25
15.23
8.15
-0.09
-10.43
-22.57
-34.83
-45.00
-51.88
-56.30
-60.92
-68.51
-79.99
-93.51
-105.33
-112.16
-113.03
-109.69
-105.28
-102.44
-102.20
-104.38
-108.63
-115.27
-124.82
-136.62
-147.98
-154.79
-153.65
-144.04
-129.20
-114.71
-105.87
-105.05
-110.95
-119.81
-127.55
-131.41
-130.44
-125.06
-116.41
-105.94
-95.45
-87.00
-82.36
-82.19
-85.30
-88.58
-87.97
-80.15
-63.86
-40.66
-14.49
9.63
27.03
34.57
31.14
17.67
-3.15
-27.37
-50.49
-68.40
-78.45
-80.31
-76.03
-69.28
-63.82
-62.01
-63.87
-67.51
-70.33
-70.38
-67.15
-61.33
-54.18
-46.96
-40.59
-35.47
-31.38
-27.43
-22.17
-14.28
-3.56
8.35
17.99
21.45
16.32
3.11
-14.65
-31.59
-42.55
-44.35
-36.43
-20.75
-0.66
20.08
38.33
52.01
60.19
62.84
60.36
53.18
41.70
26.65
9.55
-7.06
-20.10
-27.08
-27.27
-22.14
-14.70
-8.03
-4.02
-2.82
-3.23
-3.44
-1.99
1.69
7.19
13.31
18.43
21.07
20.45
16.70
10.62
3.08
-5.54
-15.44
-26.61
-38.05
-47.41
-51.61
-48.26
-37.18
-20.86
-3.49
10.99
20.64
26.23
30.30
35.29
41.94
48.95
53.98
55.19
52.26
46.41
39.46
32.81
26.93
21.84
17.90
16.01
17.22
21.67
28.01
33.64
35.87
33.16
25.81
15.80
5.86
-1.55
-5.13
-5.08
-2.95
-1.01
-1.34
-5.04
-11.96
-20.86
-29.85
-37.08
-41.21
-41.53
-38.15
-31.95
-24.69
-18.70
-16.28
-18.81
-26.14
-36.52
-47.15
-55.48
-60.30
-61.97
-61.96
-61.89
-62.72
-64.51
-66.58
-68.04
-68.20
-66.78
-63.97
-60.45
-57.38
-56.22
-58.11
-62.98
-68.64
-70.81
-64.36
-45.63
-14.88
22.72
58.45
83.37
92.12
85.23
68.75
51.55
41.38
41.89
51.94
66.90
80.96
89.37
89.54
81.31
66.69
48.98
32.17
19.84
14.14
14.90
19.71
24.93
27.28
24.82
17.16
4.85
-11.06
-29.28
-47.74
-63.56
-73.78
-76.75
-73.40
-67.40
-63.67
-65.98
-74.69
-86.22
-94.75
-95.44
-87.32
-73.96
-61.63
-55.80
-58.02
-65.08
-70.79
-69.40
-58.73
-41.03
-21.33
-4.27
8.35
18.16
28.55
42.16
59.18
77.63
94.94
109.62
121.72
132.07
141.10
148.35
153.11
155.68
158.03
163.21
173.67
189.50
207.94
224.23
233.62
233.32
223.11
205.14
183.15
161.89
146.31
140.46
145.95
160.40
177.27
187.62
183.09
158.86
115.37
58.07
-4.09
-61.05
-104.13
-128.11
-132.82
-123.68
-110.75
-105.71
-117.43
-148.03
-191.24
-234.41
-263.28
-267.23
-242.54
-192.48
-124.85
-48.72
28.02
99.27
160.48
208.17
239.95
254.95
254.47
241.94
221.84
198.28
173.69
148.43
121.34
90.65
55.15
14.91
-28.55
-72.85
-115.62
-155.52
-192.90
-229.48
-267.18
-306.50
-345.28
-378.81
-401.64
-409.99
-403.68
-386.05
-362.14
-336.26
-310.10
-282.71
-252.10
-217.49
-180.58
-145.39
-116.10
-95.31
-83.30
-78.35
-77.72
-78.51
-78.30
-75.23
-68.00
-54.36
-31.21
4.04
51.64
107.85
164.65
211.34
237.72
237.23
210.74
165.71
112.41
60.14
14.90
-20.10
-42.89
-51.59
-45.38
-23.96
10.49
52.37
91.94
117.24
119.76
99.01
67.54
34.37
5.00
-17.44
