1562806878.00
64.000000
-0.00
-0.00
-0.00
-0.00
-0.00
-0.00
-0.00
-0.00
-0.00
-0.00
0.00
0.01
0.01
-0.00
-0.03
-0.05
-0.05
0.00
0.13
0.36
0.66
1.01
1.37
1.72
2.06
2.40
2.79
3.24
3.80
4.42
5.06
5.66
6.20
6.68
7.15
7.68
8.31
9.14
10.09
11.04
11.88
12.56
13.14
13.76
14.65
15.96
17.91
20.32
22.90
25.38
27.58
29.57
31.68
34.32
37.81
42.54
48.15
54.10
59.83
64.97
69.58
74.14
79.34
85.71
93.76
103.00
112.62
121.73
129.77
136.75
143.30
150.75
157.77
166.64
177.95
191.79
206.97
220.57
228.25
225.36
208.53
176.87
132.76
80.05
23.07
-34.94
-92.44
-149.16
-205.23
-260.37
-313.74
-363.87
-409.83
-450.91
-486.50
-515.74
-537.23
-549.22
-549.96
-538.37
-514.21
-478.67
-433.88
-382.45
-327.02
-269.84
-212.63
-156.66
-102.95
-52.37
-5.90
35.58
71.43
101.35
125.50
144.38
158.69
169.15
176.37
180.75
182.57
182.07
179.51
175.23
169.65
163.18
156.15
148.81
141.30
133.69
126.02
118.33
110.69
103.16
95.80
88.68
81.83
75.25
68.95
62.95
57.25
51.86
46.78
42.03
37.59
33.45
29.61
26.07
22.81
19.83
17.11
14.67
12.48
10.54
8.83
7.35
6.07
4.97
4.05
3.27
2.62
2.09
1.65
1.30
1.01
0.79
0.61
0.47
0.37
0.29
0.23
0.18
0.16
0.14
0.14
0.14
0.15
0.17
0.20
0.23
0.27
0.31
0.35
0.39
0.44
0.49
0.53
0.58
0.64
0.69
0.75
0.81
0.88
0.96
1.05
1.14
1.24
1.36
1.49
1.63
1.79
1.98
2.19
2.43
2.70
2.98
3.25
3.52
3.78
4.05
4.37
4.76
5.23
5.78
6.38
6.99
7.60
8.21
8.85
9.54
10.32
11.20
12.17
13.17
14.17
15.12
16.03
16.95
17.94
19.06
20.26
21.41
22.28
22.60
22.13
20.79
18.62
15.80
12.53
8.93
4.97
0.54
-4.49
-10.09
-16.04
-21.86
-26.97
-30.86
-33.33
-34.61
-35.20
-35.77
-36.79
-38.37
-40.20
-41.74
-42.50
-42.31
-41.37
-40.21
-39.46
-39.69
-41.30
-44.51
-49.03
-53.93
-57.43
-57.28
-51.52
-39.50
-22.53
-3.58
13.72
26.44
33.44
35.42
34.23
31.66
28.77
25.77
22.50
18.99
15.70
13.27
12.08
11.94
12.15
11.88
10.49
7.93
4.70
1.48
-1.15
-2.98
-4.23
-5.34
-6.78
-8.73
-11.05
-13.33
-15.09
-15.82
-15.17
-12.91
-8.99
-3.65
2.61
9.10
15.07
19.92
23.32
25.33
26.24
26.37
25.98
25.22
24.14
22.74
21.08
19.24
17.41
15.78
14.56
13.89
13.84
14.38
15.37
16.53
17.47
17.82
17.29
15.76
13.41
10.61
7.85
5.49
3.71
2.39
1.26
-0.04
-1.80
-4.09
-6.82
-9.74
-12.47
-14.72
-16.36
-17.55
-18.65
-20.11
-22.22
-25.01
-28.18
-31.13
-33.14
-33.57
-31.97
-28.26
-22.71
-15.96
-8.81
-2.09
3.62
8.03
11.13
13.09
14.11
14.38
14.04
13.30
12.41
11.63
11.17
11.10
11.34
11.70
11.96
11.94
11.63
11.11
10.52
9.98
9.55
9.19
8.81
8.33
7.70
6.87
5.84
4.60
3.16
1.49
-0.36
-2.36
-4.43
-6.56
-8.71
-10.92
-13.26
-15.81
-18.58
-21.49
-24.25
-26.40
-27.42
-26.79
-24.33
-20.15
-14.69
-8.61
-2.57
2.88
7.39
10.79
13.03
14.10
14.14
13.41
12.34
11.37
10.81
10.74
11.00
11.40
11.81
12.28
12.98
14.00
15.24
16.45
17.33
17.65
17.32
16.29
14.46
11.66
7.79
2.98
-2.36
-7.59
-12.06
-15.45
-17.78
-19.39
-20.72
-22.06
-23.55
-25.15
-26.89
-28.91
-31.42
-34.44
-37.64
-40.23
-41.22
-39.76
-35.56
-29.09
-21.39
-13.67
-6.87
-1.40
2.83
6.18
8.93
11.19
12.92
14.04
14.57
14.68
14.59
14.49
14.51
14.63
14.82
15.02
15.19
15.30
15.35
15.41
15.49
15.53
15.36
14.75
13.52
11.68
9.45
7.19
5.20
3.58
2.18
0.73
-1.00
-3.11
-5.46
-7.85
-10.17
-12.46
-14.88
-17.61
-20.74
-24.13
-27.43
-30.13
-31.62
-31.36
-29.03
-24.69
-18.80
-12.20
-5.83
-0.49
3.49
6.22
8.18
9.92
11.74
13.61
15.22
16.27
16.68
16.63
16.48
16.49
16.79
17.27
17.71
17.95
17.88
17.52
16.93
16.19
15.41
14.63
13.87
12.97
11.70
9.86
7.47
4.81
2.39
0.63
-0.39
-1.00
-1.81
-3.31
-5.65
-8.57
-11.58
-14.28
-16.61
-18.71
-20.82
-22.93
-24.67
-25.40
-24.53
-21.75
-17.24
-11.59
-5.51
0.39
5.71
10.27
13.95
16.52
17.80
17.72
16.41
14.31
11.96
9.83
8.16
6.99
6.24
5.92
6.10
6.80
7.96
9.31
10.43
11.01
10.85
10.01
8.65
6.97
5.06
2.98
0.73
-1.65
-4.09
-6.53
-8.94
-11.24
-13.33
-15.11
-16.58
-17.91
-19.47
-21.69
-24.83
-28.78
-32.99
-36.64
-38.92
-39.26
-37.53
-33.90
-28.71
-22.36
-15.27
-7.93
-0.95
5.06
9.62
12.56
14.03
14.43
14.21
13.74
13.23
12.81
12.57
12.60
12.91
13.38
13.77
13.88
13.65
13.22
12.77
12.36
11.88
11.08
9.82
8.20
6.59
5.43
4.93
4.98
5.15
4.92
3.99
2.36
0.34
-1.70
-3.51
-5.06
-6.48
-8.01
-9.81
-11.96
-14.51
-17.48
-20.95
-24.83
-28.82
-32.25
-34.22
-33.91
-30.90
-25.48
-18.54
-11.29
-4.72
0.69
4.99
8.56
11.70
14.45
16.62
17.97
18.55
18.71
18.98
19.81
21.28
23.09
24.78
25.93
26.41
26.38
26.15
25.96
25.87
25.72
25.27
24.36
22.91
21.02
18.85
16.61
14.45
12.47
10.68
8.98
7.27
5.45
3.50
1.48
-0.55
-2.58
-4.70
-7.06
-9.84
-13.17
-17.08
-21.40
-25.79
-29.71
-32.51
-33.63
-32.74
-29.93
-25.64
-20.45
-14.91
-9.34
-3.91
1.31
6.17
10.45
13.92
16.45
18.06
19.01
19.53
19.88
20.26
20.80
21.57
22.55
23.62
24.60
25.27
25.55
25.50
25.28
25.05
24.88
24.67
24.24
23.48
22.43
21.29
20.28
19.57
19.23
19.19
19.34
19.62
20.07
20.71
21.56
22.48
23.28
23.81
24.06
24.29
24.98
26.70
30.03
35.33
42.79
52.39
63.94
77.14
91.65
107.08
123.17
139.68
156.40
172.89
188.32
201.49
211.09
216.16
216.55
213.09
207.39
201.19
195.71
191.26
187.29
182.70
176.50
168.09
157.48
145.04
131.19
116.20
100.33
84.02
68.19
54.22
43.50
36.72
33.44
32.12
30.72
27.55
22.01
14.56
6.23
-2.10
-10.11
-18.02
-26.20
-34.84
-43.86
-52.99
-61.91
-70.23
-77.35
-82.34
-83.95
-80.86
-72.15
-57.81
-39.13
-18.54
1.06
17.35
29.50
38.53
46.62
55.93
67.31
79.73
90.71
97.63
98.98
94.93
86.98
77.06
66.65
56.44
46.56
37.12
28.53
21.45
16.50
13.92
13.37
14.05
15.01
15.53
15.33
14.55
13.48
12.30
10.85
8.61
4.86
-1.08
-9.70
-21.16
-35.43
-52.36
-71.91
-94.22
-119.74
-149.25
-183.64
-223.33
-267.84
-315.54
-363.84
-409.83
-450.88
-484.94
-510.54
-526.38
-531.23
-524.04
-504.58
-473.97
-434.99
-391.73
-348.78
-310.40
-279.72
-258.38
-246.33
-241.94
-242.20
-243.40
-241.90
-234.99
-221.63
-202.47
-179.66
-156.11
-134.57
-116.90
-103.75
-94.43
-87.41
-80.84
-73.19
-63.77
-52.73
-40.98
-29.66
-19.81
-11.97
-6.07
-1.45
3.01
8.48
15.81
25.23
36.24
47.81
58.91
68.91
77.82
86.17
94.35
102.24
109.20
114.37
117.34
118.51
118.81
119.18
119.89
120.37
119.62
116.86
112.14
106.41
101.01
97.01
94.65
93.31
91.91
89.43
85.41
80.01
73.84
67.70
62.20
57.46
53.08
48.32
42.45
35.16
26.70
17.88
9.62
2.54
-3.23
-8.01
-12.26
-16.30
-20.15
-23.55
-26.15
-27.59
-27.65
-26.15
-23.02
-18.29
-12.13
-4.86
3.05
10.90
17.89
23.17
26.12
26.59
25.01
22.30
19.51
17.42
16.31
15.99
16.05
16.21
16.40
16.66
16.98
17.14
16.90
16.14
15.01
13.84
12.92
12.30
11.72
10.87
9.60
8.02
6.48
5.25
4.31
3.32
1.85
-0.32
-3.06
-5.94
-8.54
-10.60
-12.25
-13.83
-15.72
-18.19
-21.16
-24.30
-27.01
-28.57
-28.31
-25.77
-20.92
-14.20
-6.40
1.57
9.01
15.65
21.55
26.94
31.93
36.31
39.75
41.92
42.80
42.75
42.36
42.20
42.53
43.22
43.79
43.77
42.90
41.22
39.04
36.69
34.46
32.36
30.31
28.16
25.83
23.36
20.84
18.39
16.07
13.91
11.86
9.82
7.70
5.36
2.66
-0.54
-4.31
-8.67
-13.40
-18.06
-22.03
-24.55
-24.95
-22.86
-18.44
-12.22
-5.08
2.14
8.79
14.58
19.49
23.60
27.02
29.78
31.88
33.40
34.54
35.56
36.65
37.88
39.08
40.02
40.44
40.32
39.81
39.21
38.80
38.73
38.94
39.20
39.18
38.64
37.45
35.67
33.45
30.98
28.41
25.84
23.27
20.64
17.93
15.11
12.22
9.33
6.54
3.89
1.39
-1.15
-4.01
-7.59
-12.10
-17.43
-23.02
-27.95
-31.30
-32.43
-31.15
-27.75
-22.77
-16.85
-10.55
-4.33
1.47
6.60
10.92
14.40
17.12
19.23
20.83
22.05
23.01
23.83
24.55
25.10
25.36
25.33
25.10
24.90
24.96
25.31
25.78
26.11
26.14
25.90
25.61
25.40
25.20
24.73
23.63
21.75
19.22
16.45
13.80
11.46
9.28
7.00
4.38
1.41
-1.62
-4.32
-6.37
-7.70
-8.52
-9.29
-10.50
-12.55
-15.58
-19.41
-23.57
-27.33
-29.95
-30.76
-29.44
-25.98
-20.77
-14.43
-7.65
-1.06
4.89
9.93
13.97
17.12
19.57
21.52
23.13
24.33
24.94
24.81
23.99
22.78
21.69
21.19
21.47
22.36
23.42
24.20
24.37
23.86
22.80
21.38
19.74
17.96
16.09
14.17
12.31
10.62
9.20
8.10
7.24
6.43
5.36
3.74
1.44
-1.43
-4.45
-7.12
-9.06
-10.22
-10.97
-11.90
-13.60
-16.37
-20.07
-24.12
-27.68
-29.82
-29.88
-27.62
-23.21
-17.26
-10.56
-3.87
2.23
7.33
11.30
14.10
15.80
16.59
16.80
16.85
17.14
17.89
19.08
20.40
21.48
22.00
21.91
21.41
20.83
20.42
20.26
20.18
19.88
19.11
17.77
15.92
13.75
11.50
9.35
7.46
5.92
4.75
3.84
2.97
1.87
0.30
-1.82
-4.36
-6.99
-9.43
-11.51
-13.28
-14.98
-16.90
-19.26
-22.13
-25.40
-28.79
-31.84
-33.96
-34.50
-32.96
-29.25
-23.78
-17.38
-11.04
-5.48
-0.99
2.62
5.76
8.75
11.62
14.13
16.02
17.22
17.89
18.33
18.70
18.96
18.93
18.44
17.60
16.74
16.28
16.39
16.93
17.44
17.42
16.58
15.01
13.05
11.00
8.95
6.72
4.09
0.96
-2.55
-6.22
-9.88
-13.53
-17.33
-21.39
-25.64
-29.83
-33.65
-36.99
-40.00
-43.06
-46.58
-50.87
-55.99
-61.80
-68.02
-74.24
-79.98
-84.63
-87.60
-88.35
-86.55
-82.12
-75.13
-65.80
-54.36
-41.11
-26.45
-10.97
4.63
19.60
33.27
45.17
55.07
62.90
68.75
72.81
75.25
76.27
76.08
74.91
73.05
70.76
68.29
65.75
63.08
60.08
56.56
52.42
47.82
43.12
38.67
34.74
31.28
28.04
24.68
21.01
17.09
13.20
9.64
6.55
3.83
1.17
-1.80
-5.30
-9.34
-13.72
-18.03
-21.73
-24.28
-25.18
-24.17
-21.26
-16.83
-11.52
-6.04
-1.02
3.19
6.50
9.05
11.03
12.56
13.67
14.38
14.73
14.87
14.96
15.16
15.51
16.00
16.59
17.28
18.12
19.11
20.23
21.30
22.11
22.45
22.21
21.32
19.77
17.58
14.80
11.62
8.33
5.23
2.61
0.56
-1.01
-2.27
-3.39
-4.51
-5.71
-7.09
-8.73
-10.67
-12.91
-15.32
-17.74
-20.01
-21.99
-23.64
-24.92
-25.77
-26.06
-25.61
-24.27
-21.99
-18.86
-15.18
-11.33
-7.68
-4.52
-2.01
-0.20
0.94
1.55
1.79
1.90
2.09
2.51
3.16
3.89
4.48
4.77
4.72
4.41
3.97
3.51
3.06
2.59
2.09
1.58
1.13
0.74
0.42
0.10
-0.25
-0.68
-1.15
-1.67
-2.24
-2.95
-3.91
-5.28
-7.19
-9.68
-12.69
-16.03
-19.37
-22.33
-24.50
-25.51
-25.05
-22.99
-19.41
-14.63
-9.27
-3.99
0.63
4.28
7.01
9.06
10.72
12.14
13.32
14.14
14.55
14.58
14.30
13.76
12.98
11.93
10.72
9.56
8.76
8.55
8.95
9.69
10.34
10.51
9.92
8.56
6.58
4.23
1.75
-0.71
-3.02
-5.08
-6.90
-8.57
-10.28
-12.28
-14.69
-17.31
-19.70
-21.23
-21.35
-19.83
-16.86
-12.91
-8.57
-4.30
-0.36
3.19
6.38
9.23
11.72
13.70
15.04
15.58
15.24
14.08
12.32
10.34
8.56
7.31
6.66
6.43
6.33
6.06
5.53
4.78
4.00
3.34
2.86
2.54
2.23
1.73
0.78
-0.78
-3.02
-5.74
-8.57
-11.03
-12.79
-13.85
-14.54
-15.40
-16.82
-18.85
-21.15
-23.13
-24.17
-23.88
-22.16
-19.17
-15.23
-10.77
-6.20
-1.97
1.60
4.31
6.15
7.31
8.08
8.76
9.43
9.95
10.06
9.54
8.42
6.99
5.68
4.85
4.59
4.71
4.92
5.00
4.91
4.78
4.72
4.71
4.55
3.95
2.76
1.01
-1.11
-3.35
-5.51
-7.51
-9.31
-10.93
-12.38
-13.69
-14.90
-16.13
-17.43
-18.77
-19.89
-20.39
-19.83
-17.92
-14.68
-10.49
-5.98
-1.73
1.86
4.70
6.85
8.49
9.67
10.41
10.74
10.78
10.74
10.74
10.85
10.98
11.04
11.02
10.96
10.92
10.84
10.58
9.97
8.90
7.43
5.76
4.14
2.78
1.77
1.09
0.61
0.15
-0.46
-1.37
-2.62
-4.18
-5.90
-7.68
-9.51
-11.39
-13.34
-15.37
-17.42
-19.45
-21.40
-23.21
-24.73
-25.66
-25.63
-24.33
-21.68
-17.93
-13.57
-9.26
-5.49
-2.50
-0.22
1.56
3.10
4.53
5.84
6.92
7.61
7.84
7.69
7.35
7.14
7.32
8.05
9.26
10.75
12.21
13.36
14.07
14.37
14.31
13.92
13.20
12.04
10.45
8.57
6.68
5.08
3.91
3.12
2.39
1.36
-0.27
-2.53
-5.17
-7.75
-9.85
-11.26
-12.05
-12.55
-13.25
-14.53
-16.59
-19.29
-22.30
-25.14
-27.33
-28.46
-28.21
-26.48
-23.31
-19.07
-14.27
-9.52
-5.32
-1.89
0.84
3.12
5.20
7.22
9.16
10.88
12.31
13.42
14.24
14.76
14.94
14.77
14.31
13.73
13.24
12.97
12.89
12.88
12.84
12.79
12.82
12.99
13.14
12.91
11.94
10.14
7.81
5.56
3.93
3.12
2.80
2.39
1.40
-0.29
-2.38
-4.40
-6.03
-7.26
-8.38
-9.69
-11.39
-13.44
-15.72
-18.15
-20.70
-23.34
-25.93
-28.15
-29.56
-29.74
-28.41
-25.53
-21.28
-16.09
-10.56
-5.28
-0.79
2.62
4.96
6.50
7.66
8.78
10.05
11.42
12.69
13.67
14.29
14.61
14.79
14.97
15.16
15.17
14.76
13.80
12.41
10.89
9.62
8.75
8.14
7.49
6.50
5.14
3.68
2.46
1.68
1.23
0.73
-0.17
-1.57
-3.30
-4.98
-6.34
-7.32
-8.07
-8.79
-9.70
-10.89
-12.42
-14.39
-16.92
-20.01
-23.52
-27.03
-29.96
-31.69
-31.75
-29.95
-26.41
-21.58
-16.14
-10.82
-6.19
-2.54
0.22
2.44
4.53
6.80
9.24
11.58
13.46
14.65
15.15
15.26
15.32
15.61
16.24
17.10
18.01
18.77
19.24
19.40
19.27
18.94
18.46
17.88
17.16
16.31
15.29
14.13
12.89
11.69
10.60
9.66
8.78
7.78
6.55
4.96
3.08
1.01
-1.00
-2.79
-4.32
-5.65
-6.98
-8.53
-10.36
-12.39
-14.50
-16.56
-18.63
-20.83
-23.26
-25.81
-28.14
-29.73
-30.08
-28.94
-26.39
-22.76
-18.52
-14.04
-9.60
-5.35
-1.37
2.31
5.61
8.50
10.97
13.00
14.66
16.00
17.12
18.10
18.97
19.63
19.92
19.68
18.90
17.79
16.74
16.18
16.32
17.04
17.93
18.52
18.55
18.05
17.31
16.68
16.35
16.22
15.98
15.29
13.94
11.95
9.53
7.03
4.70
2.67
0.96
-0.52
-1.86
-3.08
-4.17
-5.15
-6.12
-7.21
-8.57
-10.28
-12.33
-14.65
-17.19
-19.92
-22.77
-25.53
-27.78
-29.02
-28.80
-26.95
-23.64
-19.33
-14.55
-9.72
-5.08
-0.74
3.19
6.58
9.27
11.19
12.36
12.89
12.93
12.65
12.20
11.75
11.53
11.73
12.40
13.45
14.64
15.70
16.42
16.77
16.82
16.66
16.31
15.72
14.82
13.58
12.10
10.52
9.02
7.63
6.33
5.00
3.51
1.85
0.06
-1.66
-3.19
-4.44
-5.46
-6.38
-7.33
-8.39
-9.58
-10.93
-12.48
-14.35
-16.65
-19.35
-22.22
-24.83
-26.69
-27.30
-26.40
-23.98
-20.35
-16.00
-11.51
-7.34
-3.70
-0.53
2.36
5.19
8.01
10.64
12.79
14.21
14.83
14.85
14.62
14.49
14.65
15.04
15.50
15.83
15.98
16.01
16.09
16.28
16.51
16.54
16.17
15.35
14.22
13.05
12.11
11.42
10.82
10.05
8.97
7.62
6.20
4.95
3.90
2.94
1.82
0.39
-1.40
-3.35
-5.25
-6.95
-8.44
-9.88
-11.51
-13.57
-16.17
-19.18
-22.23
-24.78
-26.29
-26.33
-24.72
-21.55
-17.17
-12.07
-6.82
-1.95
2.14
5.28
7.57
9.26
10.67
11.96
13.14
14.03
14.47
14.37
13.82
12.95
11.89
10.74
9.60
8.64
8.09
8.11
8.73
9.76
10.86
11.63
11.76
11.12
9.77
7.93
5.86
3.76
1.68
-0.46
-2.81
-5.43
-8.20
-10.85
-13.00
-14.45
-15.17
-15.39
-15.45
-15.70
-16.39
-17.64
-19.48
-21.78
-24.26
-26.47
-27.85
-27.88
-26.27
-23.05
-18.57
-13.41
-8.22
-3.49
0.50
3.74
6.33
8.45
10.18
11.47
12.24
12.46
12.26
11.91
11.71
11.87
12.38
13.03
13.53
13.69
13.45
12.94
12.34
11.82
11.43
11.08
10.61
9.90
8.91
7.71
6.42
5.15
3.91
2.62
1.13
-0.60
-2.54
-4.49
-6.27
-7.78
-9.11
-10.49
-12.20
-14.41
-17.06
-19.94
-22.74
-25.14
-26.89
-27.80
-27.72
-26.58
-24.39
-21.32
-17.72
-14.04
-10.73
-8.08
-6.17
-4.85
-3.92
-3.20
-2.66
-2.41
-2.55
-3.12
-4.02
-5.03
-5.95
-6.70
-7.40
-8.27
-9.49
-11.14
-13.11
-15.25
-17.41
-19.60
-21.90
-24.47
-27.42
-30.78
-34.44
-38.14
-41.51
-44.12
-45.54
-45.47
-43.66
-40.05
-34.75
-28.00
-20.21
-11.78
-3.16
5.28
13.16
20.11
25.73
29.66
31.79
32.29
31.73
30.85
30.33
30.56
31.49
32.84
34.22
35.42
36.36
37.08
37.56
37.66
37.20
36.09
34.50
32.74
31.24
30.18
29.48
28.81
27.78
26.23
24.30
22.35
20.76
19.67
18.95
18.22
17.14
15.62
13.81
12.05
10.62
9.61
8.85
8.08
7.07
5.73
4.13
2.40
0.68
-0.96
-2.54
-4.08
-5.59
-7.04
-8.41
-9.71
-10.97
-12.30
-13.79
-15.49
-17.26
-18.83
-19.77
-19.69
-18.36
-15.89
-12.63
-9.07
-5.65
-2.59
0.09
2.41
4.40
6.02
7.21
7.96
8.35
8.50
8.48
8.34
8.13
7.95
7.95
8.19
8.60
8.98
9.11
8.92
8.53
8.16
7.92
7.78
7.47
6.79
5.67
4.31
2.99
1.93
1.12
0.38
-0.52
-1.67
-2.94
-4.13
-5.03
-5.60
-5.99
-6.57
-7.74
-9.76
-12.64
-16.02
-19.28
-21.71
-22.69
-22.00
-19.79
-16.60
-13.11
-9.89
-7.25
-5.18
-3.47
-1.83
-0.10
1.75
3.62
5.40
7.02
8.49
9.86
11.13
12.20
12.96
13.31
13.24
12.87
12.42
12.03
11.83
11.78
11.83
11.86
11.78
11.51
11.01
10.27
9.40
8.52
7.76
7.19
6.70
6.12
5.20
3.82
2.02
0.01
-1.92
-3.47
-4.54
-5.23
-5.82
-6.67
-8.11
-10.24
-12.94
-15.88
-18.59
-20.63
-21.64
-21.40
-19.89
-17.20
-13.61
-9.56
-5.53
-1.99
0.80
2.77
4.08
5.02
5.86
6.85
8.09
9.54
11.04
12.36
13.28
13.64
13.46
12.86
12.01
11.07
10.19
9.44
8.91
8.67
8.72
9.01
9.37
9.58
9.41
8.74
7.57
6.02
4.25
2.46
0.87
-0.35
-1.08
-1.33
-1.21
-1.00
-1.03
-1.59
-2.76
-4.43
-6.35
-8.23
-9.94
-11.52
-13.05
-14.51
-15.70
-16.26
-15.87
-14.40
-12.06
-9.28
-6.54
-4.14
-2.16
-0.47
1.03
2.35
3.38
4.01
4.18
4.00
3.65
3.29
3.01
2.81
2.70
2.77
3.12
3.85
4.94
6.27
7.65
8.89
9.84
10.35
10.31
9.59
8.21
6.36
4.38
2.63
1.37
0.58
0.09
-0.35
-0.94
-1.76
-2.79
-4.03
-5.49
-7.21
-9.22
-11.45
-13.83
-16.22
-18.51
-20.56
-22.20
-23.18
-23.24
-22.19
-19.98
-16.76
-12.89
-8.83
-4.99
-1.66
1.06
3.22
4.89
6.12
6.89
7.20
7.12
6.86
6.68
6.79
7.27
8.00
8.79
9.43
9.78
9.79
9.48
8.94
8.33
7.81
7.49
7.31
7.05
6.41
5.19
3.42
1.46
-0.27
-1.44
-2.03
-2.30
-2.61
-3.23
-4.18
-5.32
-6.46
-7.54
-8.65
-9.87
-11.28
-12.81
-14.34
-15.74
-16.92
-17.75
-18.02
-17.51
-16.01
-13.52
-10.29
-6.77
-3.51
-0.92
0.87
1.98
2.70
3.29
3.87
4.43
4.87
5.15
5.30
5.40
5.49
5.53
5.44
5.19
4.86
4.62
4.60
4.77
4.95
4.96
4.68
4.20
3.67
3.23
2.83
2.30
1.51
0.46
-0.67
-1.65
-2.36
-2.89
-3.51
-4.47
-5.91
-7.87
-10.27
-12.92
-15.59
-17.92
-19.50
-19.99
-19.24
-17.34
-14.66
-11.66
-8.78
-6.25
-4.09
-2.20
-0.43
1.26
2.89
4.38
5.71
6.85
7.81
8.60
9.14
9.33
9.05
8.33
7.36
6.42
5.79
5.56
5.66
5.89
6.04
6.00
5.76
5.35
4.78
4.01
2.99
1.72
0.33
-1.02
-2.16
-3.02
-3.66
-4.30
-5.18
-6.49
-8.23
-10.27
-12.36
-14.24
-15.83
-17.17
-18.34
-19.30
-19.88
-19.73
-18.54
-16.21
-12.91
-9.07
-5.18
-1.66
1.22
3.33
4.71
5.49
5.86
6.03
6.22
6.52
6.93
7.40
7.85
8.27
8.64
8.96
9.16
9.21
9.11
8.92
8.76
8.66
8.58
8.34
7.73
6.62
5.06
3.22
1.32
-0.39
-1.77
-2.78
-3.40
-3.71
-3.89
-4.15
-4.70
-5.70
-7.13
-8.87
-10.73
-12.51
-14.08
-15.34
-16.16
-16.31
-15.55
-13.69
-10.78
-7.16
-3.31
0.23
3.09
5.13
6.43
7.16
7.54
7.72
7.84
7.99
8.20
8.43
8.58
8.53
8.22
7.74
7.22
6.81
6.58
6.49
6.40
6.24
5.98
5.68
5.41
5.15
4.82
4.28
3.46
2.38
1.20
0.06
-0.97
-1.95
-3.03
-4.34
-5.90
-7.63
-9.43
-11.26
-13.17
-15.22
-17.35
-19.30
-20.64
-20.98
-20.08
-17.96
-14.88
-11.25
-7.46
-3.85
-0.67
1.87
3.65
4.68
5.15
5.38
5.72
6.41
7.46
8.63
9.61
10.15
10.21
9.96
9.70
9.67
9.94
10.40
10.82
11.03
10.90
10.45
9.69
8.67
7.43
6.08
4.76
3.56
2.56
1.69
0.85
-0.03
-0.95
-1.89
-2.82
-3.81
-4.97
-6.37
-7.98
-9.59
-11.01
-12.18
-13.24
-14.48
-16.06
-17.88
-19.52
-20.42
-20.13
-18.49
-15.68
-12.14
-8.34
-4.70
-1.53
1.00
2.84
4.12
5.07
5.98
7.04
8.26
9.43
10.31
10.79
10.97
11.10
11.42
11.98
12.62
13.10
13.30
13.25
13.12
13.04
12.94
12.59
11.74
10.34
8.58
6.86
5.53
4.73
4.33
4.02
3.49
2.57
1.29
-0.22
-1.77
-3.27
-4.63
-5.84
-6.88
-7.78
-8.69
-9.78
-11.23
-13.07
-15.17
-17.16
-18.59
-19.03
-18.22
-16.17
-13.14
-9.56
-5.93
-2.60
0.23
2.51
4.29
5.66
6.68
7.45
8.01
8.45
8.84
9.22
9.60
9.93
10.21
10.41
10.53
10.57
10.53
10.44
10.34
10.24
10.15
10.01
9.69
9.12
8.31
7.36
6.41
5.53
4.69
3.77
2.69
1.43
0.12
-1.12
-2.22
-3.20
-4.15
-5.14
-6.28
-7.69
-9.49
-11.76
-14.41
-17.09
-19.25
-20.28
-19.80
-17.80
-14.68
-11.03
-7.40
-4.06
-1.08
1.62
4.06
6.17
7.85
9.07
9.94
10.65
11.34
11.99
12.46
12.54
12.18
11.54
10.92
10.62
10.70
10.97
11.11
10.87
10.19
9.25
8.31
7.53
6.91
6.33
5.69
5.00
4.38
3.94
3.76
3.73
3.65
3.32
2.58
1.40
-0.14
-1.86
-3.47
-4.76
-5.55
-5.91
-6.09
-6.48
-7.44
-9.09
-11.26
-13.51
-15.25
-16.02
-15.59
-14.02
-11.63
-8.85
-6.06
-3.52
-1.35
0.47
2.03
3.39
4.64
5.77
6.82
7.76
8.61
9.37
10.04
10.60
10.95
11.02
10.75
10.15
9.34
8.51
7.88
7.57
7.60
7.80
7.97
7.92
7.51
6.73
5.65
4.38
3.07
1.93
1.14
0.84
1.05
1.57
2.10
2.32
2.03
1.23
0.10
-1.14
-2.34
-3.43
-4.46
-5.46
-6.42
-7.28
-8.01
-8.73
-9.66
-10.99
-12.72
-14.60
-16.18
-17.03
-16.89
-15.75
-13.82
-11.39
-8.69
-5.92
-3.23
-0.77
1.30
2.85
3.82
4.27
4.34
4.20
4.02
3.96
4.12
4.58
5.29
6.12
6.80
7.14
7.04
6.60
6.05
5.66
5.51
5.57
5.64
5.50
5.05
4.32
3.45
2.58
1.79
1.05
0.29
-0.55
-1.49
-2.45
-3.40
-4.34
-5.27
-6.25
-7.29
-8.40
-9.54
-10.70
-11.82
-12.81
-13.54
-13.81
-13.47
-12.44
-10.79
-8.80
-6.75
-4.87
-3.28
-1.91
-0.68
0.46
1.45
2.21
2.72
3.09
3.52
4.15
4.96
5.81
6.43
6.65
6.48
6.06
5.63
5.35
5.26
5.32
5.42
5.49
5.49
5.37
5.06
4.49
3.64
2.61
1.62
0.86
0.40
0.13
-0.22
-0.89
-2.02
-3.54
-5.28
-7.01
-8.55
-9.82
-10.80
-11.56
-12.21
-12.88
-13.69
-14.66
-15.64
-16.41
-16.72
-16.40
-15.43
-13.93
-12.10
-10.07
-7.92
-5.70
-3.46
-1.33
0.47
1.75
2.41
2.52
2.29
2.01
1.92
2.12
2.60
3.33
4.23
5.27
6.44
7.63
8.67
9.34
9.48
9.10
8.37
7.59
7.00
6.70
6.60
6.50
6.18
5.55
4.61
3.49
2.32
1.17
0.07
-0.97
-1.92
-2.74
-3.41
-4.01
-4.67
-5.56
-6.72
-8.10
-9.53
-10.88
-12.11
-13.30
-14.59
-16.05
-17.62
-19.06
-20.05
-20.31
-19.71
-18.29
-16.22
-13.77
-11.16
-8.59
-6.12
-3.76
-1.53
0.52
2.29
3.62
4.42
4.74
4.80
4.89
5.21
5.83
6.65
7.49
8.18
8.67
9.01
9.25
9.36
9.26
8.86
8.12
7.20
6.28
5.56
5.13
4.91
4.76
4.50
4.05
3.42
2.69
1.95
1.28
0.67
0.08
-0.58
-1.38
-2.36
-3.51
-4.84
-6.35
-8.11
-10.13
-12.35
-14.51
-16.26
-17.23
-17.15
-16.03
-14.07
-11.64
-9.06
-6.52
-4.00
-1.45
1.13
3.63
5.83
7.50
8.52
8.94
8.92
8.65
8.31
8.01
7.75
7.54
7.40
7.42
7.69
8.27
9.07
9.91
10.53
10.71
10.42
9.75
8.93
8.16
7.54
6.99
6.33
5.41
4.21
2.90
1.68
0.68
-0.13
-0.93
-1.94
-3.23
-4.68
-6.02
-7.05
-7.79
-8.51
-9.59
-11.29
-13.55
-15.99
-18.00
-19.01
-18.71
-17.14
-14.62
-11.62
-8.56
-5.78
-3.49
-1.76
-0.53
0.40
1.26
2.21
3.29
4.36
5.23
5.79
6.10
6.41
7.02
8.11
9.62
11.29
12.79
13.89
14.54
14.82
14.84
14.69
14.38
13.91
13.32
12.72
12.17
11.67
11.08
10.24
9.00
7.40
5.66
4.05
2.80
1.94
1.33
0.76
0.08
-0.78
-1.79
-2.88
-4.03
-5.26
-6.56
-7.93
-9.42
-11.06
-12.94
-15.00
-16.98
-18.45
-18.95
-18.20
-16.26
-13.54
-10.52
-7.62
-4.93
-2.37
0.22
2.81
5.16
7.00
8.11
8.60
8.77
8.96
9.34
9.83
10.19
10.15
9.73
9.14
8.70
8.66
9.04
9.68
10.33
10.81
11.10
11.24
11.23
11.05
10.62
9.93
9.11
8.33
7.71
7.19
6.53
5.51
4.03
2.23
0.40
-1.12
-2.19
-2.83
-3.22
-3.62
-4.22
-5.16
-6.53
-8.32
-10.42
-12.54
-14.25
-15.09
-14.74
-13.12
-10.44
-7.17
-3.84
-0.87
1.53
3.39
4.84
6.01
6.93
7.52
7.72
7.60
7.31
7.16
7.36
7.96
8.84
9.75
10.42
10.69
10.59
10.25
9.91
9.75
9.84
10.09
10.31
10.25
9.72
8.67
7.19
5.52
3.90
2.52
1.46
0.72
0.23
-0.14
-0.54
-1.15
-2.09
-3.43
-5.08
-6.86
-8.56
-10.07
-11.41
-12.76
-14.26
-15.93
-17.55
-18.75
-19.14
-18.48
-16.81
-14.35
-11.46
-8.43
-5.46
-2.66
-0.13
2.05
3.83
5.18
6.14
6.79
7.24
7.61
8.02
8.52
9.19
9.99
10.77
11.36
11.61
11.54
11.30
11.11
11.14
11.37
11.58
11.48
10.82
9.59
7.98
6.31
4.86
3.75
2.94
2.29
1.67
1.03
0.40
-0.22
-0.83
-1.53
-2.43
-3.62
-5.09
-6.67
-8.15
-9.34
-10.20
-10.88
-11.65
-12.75
-14.29
-16.13
-17.93
-19.25
-19.68
-19.00
-17.24
-14.64
-11.62
-8.59
-5.81
-3.40
-1.29
0.56
2.21
3.57
4.59
5.26
5.69
6.06
6.50
7.03
7.53
7.87
8.01
8.00
8.05
8.24
8.53
8.69
8.46
7.68
6.42
4.95
3.64
2.77
2.45
2.58
2.88
3.08
2.95
2.39
1.41
0.18
-1.13
-2.26
-3.01
-3.29
-3.13
-2.76
-2.46
-2.55
-3.20
-4.48
-6.31
-8.47
-10.64
-12.41
-13.34
-13.13
-11.70
-9.36
-6.62
-4.09
-2.15
-0.83
0.14
1.11
2.30
3.63
4.88
5.77
6.20
6.25
6.12
5.99
5.92
5.83
5.63
5.29
4.91
4.65
4.65
4.91
5.32
5.68
5.83
5.69
5.33
4.84
4.32
3.84
3.41
3.07
2.83
2.70
2.61
2.43
2.02
1.31
0.37
-0.70
-1.80
-2.95
-4.26
-5.86
-7.73
-9.78
-11.85
-13.85
-15.74
-17.49
-18.96
-19.85
-19.77
-18.48
-16.05
-12.92
-9.70
-6.95
-4.92
-3.56
-2.60
-1.79
-0.98
-0.17
0.55
1.10
1.46
1.66
1.76
1.84
1.96
2.16
2.52
3.05
3.78
4.66
5.60
6.53
7.40
8.13
8.65
8.88
8.71
8.15
7.26
6.21
5.23
4.43
3.79
3.20
2.53
1.68
0.72
-0.23
-1.03
-1.65
-2.17
-2.73
-3.51
-4.62
-6.14
-8.05
-10.30
-12.79
-15.32
-17.63
-19.47
-20.58
-20.84
-20.21
-18.75
-16.63
-14.05
-11.24
-8.47
-5.95
-3.82
-2.09
-0.65
0.67
1.98
3.31
4.53
5.50
6.08
6.26
6.17
6.03
6.04
6.35
6.98
7.83
8.73
9.49
9.94
10.02
9.75
9.25
8.66
8.08
7.54
7.03
6.50
5.91
5.25
4.50
3.63
2.59
1.35
-0.00
-1.34
-2.47
-3.37
-4.12
-5.03
-6.38
-8.31
-10.68
-13.13
-15.17
-16.41
-16.67
-15.96
-14.45
-12.36
-9.87
-7.13
-4.31
-1.54
0.97
3.03
4.50
5.32
5.58
5.48
5.25
5.10
5.19
5.58
6.27
7.16
8.10
8.86
9.26
9.20
8.74
8.03
7.31
6.68
6.19
5.73
5.21
4.60
3.99
3.50
3.26
3.26
3.39
3.52
3.51
3.28
2.83
2.17
1.38
0.53
-0.28
-1.01
-1.75
-2.67
-4.02
-5.98
-8.56
-11.52
-14.41
-16.72
-18.06
-18.22
-17.30
-15.59
-13.47
-11.33
-9.46
-7.96
-6.76
-5.65
-4.40
-2.85
-1.00
0.95
2.76
4.18
5.10
5.56
5.75
5.95
6.40
7.21
8.35
9.67
10.91
11.86
12.39
12.48
12.22
11.74
11.18
10.61
10.04
9.39
8.56
7.47
6.15
4.69
3.25
1.95
0.82
-0.22
-1.26
-2.31
-3.29
-4.08
-4.59
-4.93
-5.31
-6.03
-7.27
-9.04
-11.16
-13.34
-15.25
-16.55
-16.93
-16.17
-14.22
-11.28
-7.77
-4.23
-1.15
1.22
2.92
4.16
5.17
6.07
6.85
7.41
7.74
7.93
8.21
8.73
9.54
10.49
11.36
11.95
12.18
12.14
12.00
11.90
11.89
11.94
11.91
11.74
11.40
10.89
10.26
9.53
8.73
7.89
6.98
5.98
4.84
3.54
2.11
0.66
-0.66
-1.73
-2.51
-3.17
-3.96
-5.16
-6.89
-9.07
-11.40
-13.52
-15.07
-15.79
-15.55
-14.34
-12.22
-9.34
-6.01
-2.59
0.49
2.96
4.70
5.83
6.60
7.23
7.82
8.33
8.70
8.90
9.00
9.14
9.38
9.70
9.99
10.15
10.20
10.28
10.56
11.10
11.73
12.14
12.02
11.26
10.02
8.66
7.56
6.91
6.64
6.47
6.14
5.51
4.61
3.53
2.38
1.15
-0.22
-1.73
-3.35
-4.95
-6.43
-7.75
-8.96
-10.16
-11.44
-12.82
-14.25
-15.59
-16.60
-17.01
-16.54
-15.07
-12.71
-9.83
-6.95
-4.46
-2.52
-0.99
0.34
1.62
2.80
3.67
4.08
4.12
4.06
4.26
4.90
5.93
7.10
8.19
9.05
9.67
10.13
10.43
10.50
10.23
9.54
8.46
7.17
5.85
4.70
3.78
3.04
2.31
1.47
0.49
-0.51
-1.37
-1.98
-2.37
-2.74
-3.24
-3.96
-4.77
-5.56
-6.25
-6.96
-7.91
-9.31
-11.20
-13.49
-15.96
-18.47
-20.96
-23.46
-25.98
-28.48
-30.77
-32.64
-33.91
-34.54
-34.59
-34.22
-33.65
-33.05
-32.60
-32.36
-32.40
-32.66
-33.02
-33.26
-33.11
-32.30
-30.63
-27.95
-24.21
-19.34
-13.32
-6.21
1.78
10.34
19.01
27.33
34.89
41.34
46.41
49.93
51.86
52.35
51.69
50.25
48.35
46.16
43.66
40.75
37.40
33.71
29.95
26.46
23.50
21.15
19.26
17.57
15.74
13.56
10.92
7.91
4.76
1.75
-0.88
-2.94
-4.34
-5.08
-5.20
-4.73
-3.78
-2.46
-0.96
0.57
1.95
3.08
3.90
4.40
4.59
4.52
4.32
4.10
4.02
4.16
4.49
4.94
5.32
5.50
5.43
5.22
5.05
5.08
5.36
5.73
5.96
5.80
5.21
4.33
3.46
2.82
2.49
2.33
2.10
1.60
0.79
-0.26
-1.48
-2.84
-4.38
-6.07
-7.74
-9.11
-9.96
-10.24
-10.14
-9.97
-10.06
-10.57
-11.45
-12.54
-13.62
-14.52
-15.05
-15.07
-14.43
-13.10
-11.14
-8.80
-6.42
-4.24
-2.36
-0.75
0.69
1.97
3.03
3.73
3.93
3.62
2.93
2.09
1.36
0.92
0.83
1.04
1.43
1.89
2.31
2.61
2.76
2.73
2.54
2.23
1.84
1.40
0.93
0.43
-0.09
-0.58
-0.93
-1.07
-1.01
-0.85
-0.75
-0.83
-1.11
-1.47
-1.80
-2.06
-2.31
-2.68
-3.27
-4.05
-4.93
-5.84
-6.83
-7.98
-9.41
-11.06
-12.65
-13.80
-14.15
-13.52
-11.96
-9.75
-7.24
-4.75
-2.48
-0.51
1.19
2.62
3.80
4.72
5.37
5.78
6.06
6.31
6.56
6.79
6.88
6.74
6.36
5.87
5.43
5.18
5.06
4.88
4.38
3.45
2.23
0.98
0.06
-0.37
-0.37
-0.22
-0.21
-0.54
-1.20
-2.02
-2.76
-3.26
-3.49
-3.59
-3.79
-4.32
-5.29
-6.65
-8.17
-9.58
-10.63
-11.14
-11.06
-10.41
-9.27
-7.75
-6.07
-4.48
-3.21
-2.34
-1.81
-1.39
-0.86
-0.09
0.89
1.90
2.79
3.48
3.96
4.23
4.27
4.06
3.59
2.95
2.32
1.91
1.82
2.02
2.34
2.64
2.78
2.78
2.67
2.54
2.37
2.11
1.65
0.97
0.13
-0.71
-1.38
-1.77
-1.89
-1.82
-1.71
-1.70
-1.88
-2.41
-3.37
-4.82
-6.67
-8.69
-10.58
-12.09
-13.03
-13.39
-13.19
-12.48
-11.26
-9.55
-7.49
-5.35
-3.42
-1.98
-1.11
-0.68
-0.44
-0.15
0.36
1.07
1.88
2.59
3.11
3.40
3.53
3.63
3.82
4.20
4.81
5.61
6.47
7.24
7.70
7.70
7.18
6.19
4.93
3.65
2.57
1.85
1.52
1.43
1.36
1.10
0.51
-0.35
-1.30
-2.06
-2.48
-2.57
-2.55
-2.73
-3.32
-4.41
-5.89
-7.63
-9.48
-11.36
-13.08
-14.39
-14.89
-14.28
-12.51
-9.82
-6.71
-3.76
-1.34
0.46
1.77
2.79
3.61
4.22
4.53
4.58
4.56
4.71
5.16
5.87
6.62
7.16
7.38
7.37
7.33
7.35
7.45
7.49
7.36
7.09
6.79
6.58
6.45
6.30
6.00
5.47
4.74
3.90
3.01
2.12
1.27
0.48
-0.21
-0.77
-1.23
-1.73
-2.41
-3.40
-4.70
-6.16
-7.56
-8.63
-9.10
-8.79
-7.60
-5.60
-3.06
-0.37
2.00
3.71
4.61
4.79
4.55
4.17
3.84
3.60
3.37
3.16
2.99
2.98
3.20
3.60
4.00
4.23
4.17
3.89
3.56
3.37
3.45
3.73
4.06
4.25
4.14
3.65
2.82
1.77
0.66
-0.32
-1.03
-1.49
-1.82
-2.25
-3.00
-4.22
-5.85
-7.76
-9.67
-11.33
-12.51
-13.06
-12.83
-11.80
-10.02
-7.67
-5.02
-2.42
-0.11
1.77
3.25
4.42
5.37
6.13
6.69
7.10
7.42
7.77
8.24
8.81
9.40
9.88
10.17
10.28
10.24
10.09
9.84
9.41
8.76
7.86
6.80
5.72
4.75
3.92
3.14
2.21
0.92
-0.81
-2.85
-4.88
-6.56
-7.68
-8.33
-8.82
-9.54
-10.72
-12.33
-14.02
-15.29
-15.69
-15.01
-13.32
-10.89
-8.11
-5.32
-2.72
-0.42
1.56
3.24
4.57
5.54
6.18
6.59
6.92
7.27
7.66
8.03
8.24
8.26
8.13
8.01
8.04
8.23
8.48
8.59
8.41
7.90
7.19
6.44
5.80
5.29
4.87
4.42
3.86
3.14
2.31
1.42
0.57
-0.18
-0.82
-1.37
-1.90
-2.50
-3.26
-4.20
-5.25
-6.21
-6.84
-6.93
-6.41
-5.34
-3.91
-2.32
-0.67
0.94
2.48
3.84
4.87
5.41
5.44
5.11
4.63
4.25
4.06
4.06
4.19
4.40
4.70
5.09
5.51
5.83
5.92
5.71
5.27
4.77
4.35
4.09
3.97
3.90
3.81
3.71
3.61
3.54
3.48
3.33
3.01
2.41
1.50
0.28
-1.20
-2.87
-4.65
-6.42
-8.09
-9.52
-10.58
-11.14
-11.10
-10.38
-9.00
-7.07
-4.77
-2.38
-0.12
1.83
3.40
4.58
5.43
5.98
6.25
6.25
6.03
5.69
5.37
5.23
5.36
5.78
6.35
6.88
7.22
7.24
6.98
6.49
5.86
5.16
4.48
3.87
3.40
3.13
3.02
2.97
2.80
2.35
1.55
0.46
-0.76
-1.89
-2.77
-3.34
-3.64
-3.81
-4.05
-4.53
-5.37
-6.56
-7.97
-9.34
-10.39
-10.90
-10.75
-10.00
-8.77
-7.25
-5.59
-3.91
-2.31
-0.88
0.28
1.12
1.63
1.91
2.09
2.31
2.65
3.10
3.54
3.90
4.11
4.25
4.44
4.79
5.32
5.93
6.48
6.82
6.92
6.74
6.29
5.54
4.51
3.29
2.10
1.20
0.77
0.83
1.13
1.32
1.09
0.32
-0.86
-2.19
-3.39
-4.33
-5.00
-5.48
-5.89
-6.27
-6.72
-7.31
-8.11
-9.09
-10.10
-10.82
-10.87
-10.07
-8.44
-6.31
-4.11
-2.23
-0.79
0.26
1.09
1.79
2.35
2.68
2.70
2.48
2.10
1.66
1.14
0.52
-0.15
-0.73
-0.96
-0.65
0.20
1.38
2.55
3.35
3.60
3.33
2.74
2.16
1.85
1.92
2.32
2.85
3.21
3.15
2.55
1.43
-0.07
-1.71
-3.29
-4.64
-5.66
-6.36
-6.85
-7.31
-7.94
-8.81
-9.81
-10.60
-10.81
-10.23
-8.90
-7.12
-5.28
-3.70
-2.47
-1.54
-0.80
-0.18
0.32
0.67
0.90
1.11
1.43
1.90
2.43
2.75
2.70
2.25
1.63
1.18
1.16
1.57
2.14
2.53
2.50
2.08
1.54
1.17
1.10
1.25
1.40
1.37
1.15
0.90
0.73
0.65
0.54
0.25
-0.29
-1.01
-1.76
-2.43
-3.01
-3.52
-4.03
-4.61
-5.32
-6.22
-7.33
-8.60
-9.82
-10.65
-10.81
-10.12
-8.74
-7.01
-5.34
-4.02
-3.15
-2.64
-2.31
-2.02
-1.74
-1.53
-1.45
-1.52
-1.65
-1.71
-1.58
-1.22
-0.72
-0.28
-0.10
-0.26
-0.68
-1.09
-1.21
-0.83
0.03
1.21
2.40
3.36
3.97
4.23
4.25
4.12
3.85
3.48
2.99
2.44
1.90
1.40
0.96
0.49
-0.05
-0.73
-1.51
-2.23
-2.77
-3.05
-3.21
-3.48
-4.13
-5.29
-6.89
-8.60
-10.00
-10.72
-10.61
-9.73
-8.38
-6.87
-5.45
-4.23
-3.18
-2.23
-1.29
-0.30
0.70
1.64
2.49
3.20
3.76
4.13
4.25
4.12
3.77
3.37
3.11
3.15
3.54
4.20
4.94
5.57
5.95
6.03
5.80
5.27
4.50
3.53
2.46
1.42
0.52
-0.19
-0.73
-1.13
-1.47
-1.79
-2.09
-2.38
-2.68
-3.04
-3.54
-4.26
-5.26
-6.57
-8.07
-9.57
-10.79
-11.41
-11.19
-10.08
-8.19
-5.85
-3.45
-1.35
0.25
1.28
1.84
2.07
2.15
2.24
2.46
2.86
3.40
3.99
4.51
4.86
5.06
5.19
5.35
5.61
5.90
6.10
6.11
5.87
5.43
4.89
4.36
3.89
3.48
3.16
2.89
2.64
2.34
1.87
1.16
0.18
-1.00
-2.22
-3.35
-4.31
-5.19
-6.13
-7.28
-8.66
-10.11
-11.38
-12.17
-12.32
-11.78
-10.63
-9.02
-7.13
-5.09
-3.08
-1.25
0.24
1.29
1.90
2.13
2.13
2.06
2.05
2.19
2.52
2.98
3.44
3.73
3.73
3.49
3.21
3.16
3.50
4.21
5.07
5.71
5.90
5.61
5.02
4.44
4.11
4.12
4.36
4.66
4.85
4.82
4.51
3.87
2.88
1.58
0.09
-1.40
-2.73
-3.86
-4.85
-5.88
-7.09
-8.51
-9.99
-11.29
-12.16
-12.45
-12.12
-11.27
-9.98
-8.33
-6.43
-4.37
-2.34
-0.44
1.22
2.58
3.64
4.46
5.11
5.64
6.10
6.50
6.83
7.07
7.17
7.15
7.02
6.85
6.70
6.61
6.62
6.69
6.81
6.93
7.02
6.97
6.72
6.20
5.41
4.38
3.21
1.98
0.79
-0.32
-1.34
-2.35
-3.46
-4.81
-6.43
-8.20
-9.87
-11.09
-11.61
-11.30
-10.24
-8.63
-6.68
-4.59
-2.48
-0.46
1.33
2.76
3.76
4.36
4.70
4.95
5.23
5.58
5.92
6.11
6.04
5.71
5.24
4.85
4.80
5.23
6.13
7.25
8.28
8.89
8.92
8.44
7.64
6.74
5.84
4.95
4.01
3.04
2.12
1.33
0.70
0.11
-0.63
-1.72
-3.19
-4.90
-6.59
-8.06
-9.26
-10.31
-11.39
-12.55
-13.65
-14.35
-14.31
-13.38
-11.63
-9.36
-6.96
-4.74
-2.89
-1.40
-0.17
0.91
2.00
3.13
4.27
5.34
6.24
6.93
7.35
7.54
7.52
7.36
7.15
7.02
7.14
7.57
8.31
9.16
9.86
10.15
9.89
9.13
8.00
6.71
5.43
4.29
3.30
2.46
1.75
1.13
0.59
0.16
-0.15
-0.39
-0.67
-1.20
-2.10
-3.36
-4.82
-6.29
-7.66
-9.00
-10.44
-12.03
-13.60
-14.76
-15.08
-14.34
-12.64
-10.35
-7.95
-5.78
-3.95
-2.39
-0.93
0.49
1.83
2.96
3.76
4.21
4.40
4.60
5.03
5.83
6.99
8.30
9.51
10.45
11.05
11.38
11.53
11.58
11.56
11.50
11.42
11.34
11.26
11.08
10.67
9.93
8.78
7.29
5.57
3.81
2.17
0.78
-0.33
-1.21
-2.03
-2.96
-4.13
-5.55
-7.08
-8.55
-9.77
-10.62
-10.98
-10.75
-9.88
-8.40
-6.52
-4.52
-2.67
-1.12
0.19
1.42
2.74
4.17
5.58
6.77
7.58
7.98
8.06
7.96
7.85
7.87
8.08
8.52
9.12
9.73
10.14
10.20
9.84
9.16
8.34
7.56
6.93
6.41
5.91
5.31
4.53
3.60
2.55
1.41
0.17
-1.20
-2.68
-4.16
-5.48
-6.45
-7.08
-7.52
-8.06
-8.94
-10.26
-11.84
-13.34
-14.36
-14.63
-14.03
-12.64
-10.63
-8.24
-5.68
-3.15
-0.80
1.19
2.74
3.79
4.32
4.42
4.22
3.85
3.49
3.26
3.21
3.31
3.47
3.61
3.71
3.79
3.89
4.05
4.22
4.32
4.28
4.05
3.66
3.19
2.72
2.29
1.91
1.54
1.17
0.81
0.48
0.22
0.09
0.07
0.15
0.28
0.35
0.22
-0.29
-1.33
-2.93
-4.97
-7.17
-9.16
-10.61
-11.30
-11.15
-10.23
-8.73
-6.89
-4.99
-3.29
-1.92
-0.89
-0.01
0.91
2.02
3.25
4.32
4.93
4.87
4.22
3.33
2.62
2.43
2.83
3.63
4.54
5.29
5.81
6.09
6.21
6.22
6.11
5.92
5.69
5.45
5.22
4.91
4.41
3.61
2.50
1.16
-0.21
-1.42
-2.43
-3.29
-4.17
-5.25
-6.59
-8.12
-9.68
-11.05
-12.03
-12.50
-12.37
-11.64
-10.34
-8.61
-6.63
-4.60
-2.65
-0.83
0.91
2.57
4.07
5.25
5.90
5.93
5.45
4.74
4.08
3.71
3.70
3.99
4.46
5.04
5.62
6.13
6.47
6.55
6.36
5.97
5.50
5.10
4.81
4.55
4.16
3.42
2.19
0.49
-1.50
-3.47
-5.11
-6.26
-6.91
-7.27
-7.60
-8.12
-8.96
-10.05
-11.24
-12.32
-13.13
-13.57
-13.61
-13.14
-12.08
-10.30
-7.87
-4.98
-2.06
0.42
2.14
3.03
3.35
3.50
3.80
4.36
5.05
5.61
5.88
5.84
5.70
5.68
5.91
6.34
6.73
6.81
6.46
5.74
4.91
4.23
3.88
3.79
3.77
3.58
3.14
2.53
1.96
1.62
1.53
1.54
1.40
0.97
0.25
-0.61
-1.39
-1.99
-2.44
-2.88
-3.54
-4.59
-6.09
-7.99
-10.10
-12.16
-13.85
-14.92
-15.20
-14.66
-13.44
-11.69
-9.60
-7.28
-4.80
-2.29
0.07
2.03
3.37
4.04
4.14
3.99
3.88
4.04
4.50
5.14
5.77
6.23
6.48
6.58
6.61
6.63
6.65
6.63
6.50
6.19
5.66
4.98
4.21
3.45
2.78
2.20
1.67
1.14
0.61
0.08
-0.37
-0.73
-1.05
-1.43
-2.03
-2.94
-4.18
-5.67
-7.22
-8.60
-9.61
-10.09
-9.95
-9.15
-7.73
-5.75
-3.31
-0.60
2.15
4.61
6.52
7.69
8.09
7.88
7.31
6.69
6.28
6.21
6.47
6.90
7.31
7.47
7.29
6.76
6.05
5.33
4.78
4.47
4.36
4.39
4.48
4.61
4.80
5.03
5.23
5.26
5.00
4.43
3.64
2.82
2.10
1.54
1.09
0.70
0.30
-0.10
-0.56
-1.16
-2.12
-3.61
-5.63
-8.01
-10.38
-12.34
-13.66
-14.29
-14.33
-13.90
-13.07
-11.86
-10.32
-8.57
-6.82
-5.24
-3.90
-2.72
-1.54
-0.22
1.24
2.73
4.06
5.10
5.79
6.16
6.32
6.38
6.42
6.51
6.68
6.97
7.39
7.92
8.51
9.07
9.46
9.58
9.35
8.76
7.91
6.93
5.94
4.97
4.01
3.01
1.99
1.05
0.31
-0.12
-0.28
-0.35
-0.57
-1.12
-1.99
-3.05
-4.09
-4.96
-5.72
-6.57
-7.73
-9.33
-11.30
-13.38
-15.22
-16.50
-17.06
-16.88
-16.06
-14.70
-12.85
-10.58
-7.99
-5.29
-2.79
-0.79
0.56
1.28
1.60
1.81
2.14
2.69
3.35
4.00
4.49
4.80
4.98
5.16
5.45
5.91
6.55
7.30
8.08
8.73
9.16
9.29
9.10
8.64
7.99
7.29
6.65
6.16
5.84
5.62
5.44
5.16
4.70
3.98
3.02
1.88
0.66
-0.58
-1.82
-3.09
-4.42
-5.79
-7.18
-8.52
-9.80
-11.02
-12.16
-13.13
-13.75
-13.72
-12.84
-11.10
-8.76
-6.21
-3.87
-1.93
-0.33
1.17
2.80
4.58
6.35
7.83
8.76
9.02
8.69
8.01
7.22
6.56
6.17
6.13
6.39
6.90
7.52
8.09
8.46
8.51
8.28
7.87
7.41
7.00
6.61
6.11
5.40
4.47
3.44
2.56
2.08
2.06
2.38
2.79
2.97
2.74
2.12
1.30
0.53
0.05
-0.07
0.03
0.01
-0.48
-1.66
-3.49
-5.70
-7.91
-9.79
-11.18
-12.08
-12.60
-12.82
-12.76
-12.36
-11.59
-10.50
-9.17
-7.74
-6.30
-4.88
-3.47
-2.08
-0.74
0.45
1.41
2.12
2.65
3.11
3.63
4.25
4.99
5.87
6.93
8.23
9.83
11.59
13.23
14.33
14.59
13.94
12.60
11.00
9.56
8.51
7.84
7.36
6.81
5.98
4.72
2.93
0.59
-2.17
-5.10
-7.77
-9.81
-11.01
-11.46
-11.56
-11.76
-12.41
-13.50
-14.82
-16.04
-16.91
-17.33
-17.25
-16.53
-14.99
-12.46
-9.01
-4.99
-0.98
2.42
4.86
6.34
7.15
7.63
8.09
8.63
9.25
9.93
10.71
11.59
12.57
13.54
14.37
14.96
15.30
15.48
15.62
15.87
16.27
16.83
17.45
18.04
18.55
18.96
19.27
19.39
19.15
18.28
16.56
13.93
10.59
6.90
3.25
-0.15
-3.37
-6.68
-10.40
-14.66
-19.35
-24.17
-28.75
-32.81
-36.17
-38.72
-40.30
-40.75
-39.92
-37.75
-34.40
-30.19
-25.64
-21.27
-17.50
-14.56
-12.41
-10.82
-9.49
-8.21
-6.94
-5.75
-4.73
-3.85
-3.03
-2.09
-0.99
0.17
1.21
2.03
2.73
3.53
4.72
6.37
8.31
10.13
11.38
11.79
11.32
10.17
8.67
7.15
5.84
4.86
4.28
4.00
3.89
3.73
3.30
2.44
1.08
-0.77
-3.08
-5.81
-8.90
-12.25
-15.62
-18.64
-20.90
-22.03
-21.85
-20.42
-17.97
-14.89
-11.60
-8.51
-5.99
-4.32
-3.66
-4.02
-5.24
-7.03
-9.00
-10.74
-11.84
-12.01
-11.10
-9.18
-6.54
-3.71
-1.23
0.41
1.02
0.73
-0.19
-1.43
-2.83
-4.43
-6.38
-8.73
-11.36
-13.85
-15.78
-16.74
-16.62
-15.54
-13.78
-11.61
-9.14
-6.46
-3.63
-0.83
1.62
3.39
4.28
4.35
3.84
3.09
2.32
1.63
1.09
0.84
1.10
2.13
3.98
6.42
8.95
11.06
12.42
12.97
12.95
12.67
12.38
12.20
12.08
11.89
11.48
10.74
9.64
8.27
6.85
5.63
4.81
4.45
4.47
4.67
4.87
4.94
4.87
4.61
4.14
3.34
2.14
0.60
-1.11
-2.73
-4.05
-5.04
-5.79
-6.50
-7.37
-8.52
-9.97
-11.71
-13.71
-16.01
-18.61
-21.51
-24.68
-28.02
-31.37
-34.51
-37.20
-39.26
-40.61
-41.36
-41.77
-42.14
-42.63
-43.20
-43.63
-43.61
-42.88
-41.35
-39.01
-35.83
-31.72
-26.56
-20.27
-12.92
-4.70
4.10
13.19
22.30
31.10
39.19
46.09
51.39
54.85
56.53
56.69
55.74
54.05
51.87
49.35
46.57
43.64
40.66
37.67
34.69
31.65
28.51
25.32
22.20
19.41
17.12
15.50
14.56
14.26
14.52
15.29
16.47
17.93
19.47
20.88
21.93
22.47
22.41
21.75
20.57
19.02
17.32
15.71
14.44
13.66
13.36
13.41
13.58
13.71
13.73
13.70
13.73
13.87
14.06
14.12
13.86
13.19
12.16
10.97
9.86
8.93
8.16
7.41
6.49
5.29
3.76
1.93
-0.19
-2.58
-5.16
-7.73
-9.90
-11.24
-11.43
-10.40
-8.39
-5.86
-3.33
-1.15
0.51
1.71
2.58
3.19
3.56
3.70
3.65
3.62
3.83
4.51
5.67
7.14
8.54
9.44
9.54
8.85
7.64
6.39
5.58
5.41
5.72
6.17
6.35
6.08
5.45
4.75
4.22
3.92
3.63
3.06
2.03
0.65
-0.74
-1.76
-2.24
-2.38
-2.62
-3.50
-5.29
-7.92
-10.96
-13.85
-16.12
-17.54
-18.11
-17.97
-17.27
-16.10
-14.49
-12.50
-10.27
-8.01
-5.93
-4.22
-2.94
-2.01
-1.21
-0.25
1.10
2.91
5.03
7.09
8.75
9.86
10.49
10.96
11.53
12.29
13.00
13.30
12.87
11.69
10.05
8.37
7.03
6.11
5.44
4.71
3.61
2.03
-0.01
-2.37
-4.91
-7.49
-9.97
-12.12
-13.69
-14.39
-14.08
-12.78
-10.78
-8.47
-6.28
-4.50
-3.19
-2.22
-1.31
-0.21
1.15
2.74
4.37
5.89
7.16
8.10
8.68
8.89
8.76
8.38
7.93
7.57
7.41
7.49
7.70
7.88
7.85
7.49
6.72
5.57
4.14
2.62
1.18
-0.00
-0.85
-1.37
-1.72
-2.12
-2.80
-3.91
-5.47
-7.37
-9.39
-11.32
-13.02
-14.37
-15.26
-15.59
-15.23
-14.06
-12.16
-9.69
-7.03
-4.52
-2.40
-0.68
0.77
2.13
3.45
4.66
5.55
6.00
5.99
5.68
5.31
5.01
4.80
4.53
4.04
3.26
2.26
1.22
0.35
-0.26
-0.58
-0.68
-0.58
-0.37
-0.11
0.06
-0.03
-0.49
-1.35
-2.44
-3.49
-4.22
-4.51
-4.38
-4.06
-3.86
-4.01
-4.62
-5.68
-7.04
-8.48
-9.75
-10.57
-10.73
-10.07
-8.65
-6.66
-4.41
-2.17
-0.14
1.60
3.05
4.24
5.15
5.83
6.34
6.77
7.17
7.53
7.72
7.63
7.18
6.45
5.60
4.81
4.18
3.70
3.31
2.94
2.61
2.40
2.38
2.56
2.80
2.91
2.61
1.79
0.48
-1.06
-2.53
-3.69
-4.49
-5.04
-5.55
-6.16
-6.91
-7.74
-8.58
-9.42
-10.27
-11.10
-11.74
-11.91
-11.33
-9.88
-7.73
-5.24
-2.84
-0.78
0.90
2.30
3.53
4.58
5.32
5.58
5.30
4.65
3.96
3.55
3.64
4.17
4.90
5.50
5.67
5.33
4.54
3.57
2.72
2.27
2.32
2.75
3.28
3.52
3.15
2.05
0.36
-1.64
-3.61
-5.33
-6.73
-7.85
-8.81
-9.72
-10.70
-11.84
-13.18
-14.70
-16.26
-17.63
-18.58
-18.90
-18.52
-17.41
-15.67
-13.42
-10.81
-8.07
-5.40
-2.99
-0.93
0.79
2.23
3.44
4.40
5.01
5.19
4.99
4.55
4.15
4.02
4.25
4.78
5.44
6.01
6.37
6.50
6.47
6.38
6.31
6.26
6.18
5.94
5.38
4.34
2.84
1.05
-0.75
-2.21
-3.19
-3.78
-4.26
-4.97
-6.11
-7.69
-9.62
-11.74
-13.94
-16.09
-17.99
-19.35
-19.86
-19.37
-17.94
-15.87
-13.54
-11.22
-9.02
-6.86
-4.60
-2.16
0.40
2.89
5.04
6.62
7.54
7.85
7.74
7.49
7.28
7.21
7.26
7.29
7.20
6.90
6.41
5.84
5.34
5.06
5.10
5.40
5.78
5.97
5.73
4.93
3.63
2.01
0.35
-1.14
-2.37
-3.41
-4.43
-5.64
-7.19
-9.06
-11.11
-13.04
-14.51
-15.24
-15.05
-13.94
-11.99
-9.42
-6.49
-3.51
-0.75
1.60
3.51
5.03
6.30
7.39
8.33
9.08
9.62
9.98
10.22
10.36
10.37
10.17
9.74
9.12
8.47
7.94
7.63
7.45
7.27
6.95
6.44
5.77
5.05
4.34
3.63
2.85
1.95
0.93
-0.17
-1.29
-2.36
-3.34
-4.20
-4.96
-5.71
-6.62
-7.86
-9.52
-11.52
-13.58
-15.30
-16.31
-16.37
-15.50
-13.92
-11.88
-9.64
-7.31
-4.92
-2.48
-0.00
2.39
4.51
6.18
7.31
7.95
8.26
8.49
8.83
9.36
10.02
10.71
11.28
11.64
11.79
11.77
11.64
11.47
11.26
10.95
10.48
9.76
8.80
7.67
6.54
5.59
4.95
4.67
4.59
4.52
4.20
3.45
2.24
0.67
-1.06
-2.72
-4.11
-5.20
-6.10
-7.08
-8.36
-10.12
-12.28
-14.58
-16.64
-18.12
-18.79
-18.59
-17.59
-15.97
-13.89
-11.54
-9.05
-6.57
-4.19
-1.96
0.08
1.91
3.50
4.80
5.77
6.43
6.86
7.16
7.45
7.81
8.24
8.71
9.19
9.67
10.13
10.56
10.90
11.07
11.00
10.63
10.02
9.29
8.56
7.93
7.43
6.99
6.52
5.95
5.26
4.42
3.44
2.31
1.06
-0.26
-1.54
-2.73
-3.87
-5.07
-6.53
-8.36
-10.48
-12.60
-14.23
-14.92
-14.40
-12.71
-10.19
-7.30
-4.45
-1.87
0.39
2.38
4.09
5.46
6.40
6.90
7.10
7.27
7.60
8.18
8.90
9.54
9.91
9.95
9.75
9.42
9.08
8.80
8.62
8.58
8.69
8.86
8.93
8.68
7.98
6.88
5.60
4.38
3.40
2.63
1.96
1.22
0.41
-0.44
-1.28
-2.11
-3.00
-4.04
-5.28
-6.73
-8.40
-10.31
-12.43
-14.67
-16.81
-18.54
-19.54
-19.62
-18.70
-16.86
-14.27
-11.19
-7.90
-4.70
-1.83
0.58
2.52
4.11
5.47
6.66
7.64
8.31
8.64
8.66
8.51
8.36
8.34
8.49
8.76
9.05
9.24
9.29
9.16
8.86
8.38
7.76
7.00
6.16
5.28
4.45
3.64
2.86
2.06
1.23
0.39
-0.44
-1.31
-2.33
-3.63
-5.22
-6.99
-8.68
-10.11
-11.22
-12.19
-13.27
-14.66
-16.33
-17.96
-19.11
-19.37
-18.55
-16.73
-14.26
-11.55
-8.97
-6.76
-4.98
-3.54
-2.31
-1.13
0.08
1.31
2.48
3.48
4.24
4.71
4.97
5.12
5.27
5.52
5.90
6.39
6.91
7.35
7.65
7.77
7.75
7.61
7.37
6.99
6.43
5.66
4.69
3.59
2.40
1.18
-0.08
-1.40
-2.77
-4.16
-5.48
-6.68
-7.76
-8.79
-9.90
-11.15
-12.56
-14.01
-15.30
-16.14
-16.24
-15.38
-13.48
-10.64
-7.20
-3.58
-0.25
2.47
4.47
5.83
6.72
7.34
7.82
8.22
8.58
8.93
9.31
9.74
10.16
10.46
10.50
10.21
9.61
8.83
8.03
7.31
6.72
6.22
5.72
5.17
4.55
3.85
3.06
2.14
1.11
0.04
-0.97
-1.83
-2.53
-3.12
-3.77
-4.58
-5.66
-7.03
-8.66
-10.50
-12.36
-13.99
-15.05
-15.23
-14.35
-12.49
-9.93
-7.01
-4.06
-1.22
1.45
3.92
6.14
7.99
9.35
10.16
10.51
10.53
10.43
10.35
10.36
10.47
10.61
10.76
10.91
11.10
11.38
11.77
12.21
12.56
12.63
12.29
11.54
10.49
9.35
8.33
7.51
6.87
6.24
5.46
4.45
3.21
1.78
0.24
-1.38
-3.04
-4.68
-6.27
-7.76
-9.21
-10.77
-12.55
-14.56
-16.59
-18.24
-19.07
-18.83
-17.49
-15.33
-12.76
-10.10
-7.53
-5.03
-2.53
-0.03
2.40
4.57
6.36
7.71
8.68
9.35
9.78
9.98
9.93
9.69
9.43
9.35
9.62
10.21
10.88
11.28
11.11
10.30
9.04
7.70
6.59
5.87
5.50
5.31
5.16
4.96
4.74
4.55
4.35
4.10
3.68
3.01
2.01
0.63
-1.10
-3.07
-5.08
-6.87
-8.24
-9.17
-9.87
-10.68
-11.95
-13.85
-16.27
-18.83
-21.02
-22.38
-22.63
-21.70
-19.77
-17.13
-14.10
-10.96
-7.90
-4.98
-2.27
0.16
2.23
3.84
4.96
5.61
5.93
6.11
6.34
6.75
7.40
8.22
9.08
9.83
10.36
10.67
10.83
10.93
11.06
11.23
11.37
11.38
11.18
10.76
10.17
9.44
8.58
7.56
6.31
4.82
3.16
1.49
-0.05
-1.36
-2.40
-3.22
-3.91
-4.54
-5.16
-5.78
-6.41
-7.02
-7.61
-8.16
-8.68
-9.23
-9.89
-10.81
-12.06
-13.60
-15.21
-16.55
-17.27
-17.15
-16.19
-14.60
-12.64
-10.50
-8.25
-5.88
-3.35
-0.78
1.60
3.53
4.85
5.60
5.99
6.31
6.74
7.29
7.80
8.13
8.20
8.15
8.18
8.48
9.08
9.81
10.41
10.67
10.51
10.01
9.34
8.64
7.92
7.12
6.19
5.14
4.09
3.18
2.47
1.92
1.35
0.57
-0.60
-2.19
-4.12
-6.21
-8.24
-10.00
-11.43
-12.57
-13.62
-14.81
-16.26
-17.85
-19.23
-19.85
-19.30
-17.41
-14.42
-10.82
-7.14
-3.81
-0.96
1.44
3.42
4.99
6.05
6.56
6.61
6.49
6.51
6.88
7.60
8.44
9.07
9.27
9.05
8.58
8.12
7.78
7.56
7.36
7.12
6.82
6.49
6.11
5.61
4.90
3.95
2.85
1.68
0.52
-0.71
-2.11
-3.74
-5.49
-7.09
-8.26
-8.84
-8.89
-8.63
-8.35
-8.31
-8.73
-9.78
-11.49
-13.73
-16.13
-18.11
-19.10
-18.75
-17.10
-14.53
-11.59
-8.70
-6.06
-3.70
-1.58
0.26
1.69
2.64
3.15
3.45
3.82
4.45
5.33
6.34
7.28
8.02
8.60
9.11
9.65
10.24
10.81
11.30
11.68
11.94
12.11
12.16
11.98
11.41
10.35
8.82
6.98
5.12
3.50
2.30
1.51
1.01
0.56
-0.06
-1.06
-2.49
-4.30
-6.29
-8.12
-9.54
-10.43
-10.91
-11.29
-11.92
-13.04
-14.57
-16.19
-17.44
-17.94
-17.56
-16.32
-14.37
-11.83
-8.73
-5.11
-1.16
2.80
6.30
8.92
10.39
10.70
10.12
9.09
8.07
7.41
7.28
7.65
8.34
9.08
9.65
9.95
10.06
10.12
10.29
10.55
10.80
10.83
10.52
9.90
9.16
8.51
8.11
7.92
7.77
7.44
6.77
5.72
4.40
2.96
1.58
0.37
-0.57
-1.16
-1.45
-1.64
-2.06
-3.12
-5.12
-8.12
-11.74
-15.27
-17.73
-18.26
-16.34
-12.09
-6.22
0.15
5.89
10.21
12.86
14.04
14.18
13.67
12.72
11.42
9.84
8.17
6.68
5.62
5.04
4.80
4.67
4.44
4.04
3.58
3.27
3.29
3.74
4.63
5.86
7.25
8.62
9.75
10.50
10.77
10.57
9.96
9.01
7.81
6.40
4.81
3.10
1.36
-0.32
-1.88
-3.35
-4.80
-6.32
-7.94
-9.63
-11.34
-13.03
-14.67
-16.23
-17.62
-18.60
-18.87
-18.14
-16.30
-13.46
-9.99
-6.36
-2.98
-0.17
1.97
3.50
4.58
5.35
5.97
6.52
7.10
7.76
8.56
9.49
10.46
11.33
11.92
12.10
11.89
11.40
10.83
10.36
10.10
9.98
9.90
9.76
9.49
9.08
8.51
7.74
6.72
5.44
4.02
2.65
1.57
0.86
0.43
-0.01
-0.81
-2.16
-3.99
-6.00
-7.76
-8.96
-9.44
-9.29
-8.78
-8.26
-8.12
-8.60
-9.78
-11.49
-13.32
-14.79
-15.48
-15.18
-13.95
-12.06
-9.86
-7.63
-5.55
-3.68
-2.05
-0.71
0.25
0.79
0.87
0.59
0.13
-0.25
-0.24
0.31
1.40
2.79
4.13
5.11
5.61
5.66
5.45
5.16
4.88
4.57
4.15
3.59
2.95
2.34
1.89
1.61
1.43
1.26
1.00
0.64
0.13
-0.55
-1.43
-2.53
-3.79
-5.05
-6.11
-6.84
-7.24
-7.49
-7.81
-8.40
-9.33
-10.52
-11.84
-13.10
-14.09
-14.57
-14.32
-13.21
-11.30
-8.91
-6.52
-4.61
-3.39
-2.72
-2.23
-1.53
-0.48
0.77
1.89
2.62
2.93
3.05
3.32
3.94
4.91
5.98
6.86
7.30
7.28
6.91
6.40
5.95
5.69
5.64
5.75
5.88
5.86
5.58
4.99
4.15
3.16
2.11
1.04
-0.07
-1.24
-2.38
-3.34
-3.97
-4.19
-4.12
-4.01
-4.20
-4.90
-6.12
-7.64
-9.17
-10.42
-11.27
-11.67
-11.70
-11.43
-10.90
-10.17
-9.26
-8.20
-6.98
-5.61
-4.05
-2.31
-0.48
1.31
2.92
4.23
5.18
5.75
5.97
5.91
5.68
5.45
5.34
5.45
5.77
6.18
6.49
6.53
6.19
5.54
4.75
4.08
3.74
3.85
4.33
4.97
5.47
5.58
5.16
4.27
3.13
2.02
1.20
0.76
0.59
0.44
0.06
-0.72
-1.92
-3.39
-4.92
-6.35
-7.57
-8.59
-9.49
-10.34
-11.25
-12.30
-13.48
-14.77
-16.04
-17.07
-17.62
-17.53
-16.72
-15.23
-13.20
-10.79
-8.17
-5.55
-3.13
-1.10
0.44
1.41
1.89
2.07
2.19
2.51
3.18
4.20
5.44
6.66
7.64
8.26
8.52
8.49
8.33
8.17
8.10
8.12
8.15
8.06
7.69
6.99
6.02
4.95
3.99
3.23
2.61
1.96
1.16
0.18
-0.81
-1.67
-2.30
-2.81
-3.38
-4.13
-5.07
-6.04
-6.88
-7.52
-8.07
-8.70
-9.56
-10.66
-11.80
-12.71
-13.08
-12.75
-11.67
-9.99
-7.95
-5.79
-3.69
-1.77
-0.06
1.44
2.65
3.51
3.98
4.01
3.70
3.20
2.73
2.49
2.64
3.24
4.19
5.23
6.08
6.52
6.54
6.31
6.11
6.17
6.53
7.05
7.46
7.54
7.23
6.60
5.82
5.00
4.12
3.05
1.70
0.09
-1.59
-3.05
-4.07
-4.59
-4.78
-4.92
-5.27
-5.96
-6.93
-8.01
-9.11
-10.24
-11.51
-13.04
-14.74
-16.37
-17.48
-17.70
-16.83
-14.97
-12.49
-9.83
-7.30
-4.99
-2.79
-0.58
1.60
3.49
4.80
5.35
5.24
4.80
4.45
4.45
4.81
5.33
5.71
5.76
5.43
4.85
4.23
3.74
3.51
3.51
3.67
3.83
3.88
3.75
3.47
3.08
2.66
2.23
1.82
1.41
0.98
0.50
-0.08
-0.74
-1.42
-2.07
-2.67
-3.33
-4.20
-5.43
-7.03
-8.82
-10.48
-11.75
-12.47
-12.66
-12.39
-11.72
-10.61
-9.00
-6.90
-4.43
-1.82
0.66
2.82
4.58
5.91
6.78
7.27
7.45
7.49
7.57
7.82
8.24
8.74
9.19
9.48
9.61
9.65
9.69
9.80
10.00
10.25
10.44
10.47
10.26
9.72
8.81
7.59
6.18
4.75
3.49
2.46
1.64
0.90
0.06
-1.01
-2.36
-3.97
-5.79
-7.70
-9.60
-11.33
-12.71
-13.56
-13.76
-13.29
-12.26
-10.80
-9.00
-6.90
-4.53
-2.00
0.48
2.64
4.30
5.43
6.19
6.81
7.40
7.99
8.46
8.70
8.71
8.63
8.60
8.73
9.01
9.31
9.56
9.75
9.91
10.06
10.15
10.06
9.65
8.87
7.75
6.41
5.00
3.69
2.62
1.88
1.43
1.13
0.74
0.04
-1.09
-2.56
-4.20
-5.78
-7.18
-8.37
-9.37
-10.17
-10.69
-10.75
-10.23
-9.14
-7.65
-5.96
-4.29
-2.70
-1.14
0.50
2.28
4.12
5.79
7.08
7.84
8.12
8.11
8.03
8.01
8.06
8.12
8.14
8.16
8.31
8.70
9.32
10.02
10.48
10.44
9.77
8.54
7.09
5.83
5.05
4.80
4.79
4.58
3.78
2.31
0.38
-1.56
-3.11
-4.07
-4.58
-4.89
-5.31
-5.95
-6.80
-7.78
-8.81
-9.84
-10.80
-11.53
-11.76
-11.19
-9.64
-7.16
-4.08
-0.87
1.93
3.92
5.00
5.34
5.32
5.31
5.50
5.91
6.33
6.57
6.53
6.29
6.00
5.82
5.82
5.99
6.28
6.66
7.14
7.67
8.18
8.53
8.58
8.27
7.61
6.71
5.75
4.90
4.31
4.02
3.90
3.74
3.31
2.50
1.35
0.07
-1.10
-2.02
-2.73
-3.39
-4.20
-5.27
-6.56
-7.95
-9.33
-10.57
-11.59
-12.28
-12.48
-12.04
-10.88
-9.11
-6.89
-4.50
-2.17
-0.07
1.71
3.16
4.24
4.98
5.39
5.58
5.73
6.00
6.51
7.24
8.08
8.81
9.37
9.73
9.97
10.17
10.28
10.17
9.71
8.84
7.66
6.40
5.25
4.35
3.67
3.12
2.61
2.10
1.57
1.01
0.33
-0.53
-1.58
-2.73
-3.84
-4.78
-5.55
-6.23
-6.96
-7.84
-8.88
-9.94
-10.84
-11.41
-11.47
-10.90
-9.64
-7.75
-5.44
-3.07
-1.05
0.32
0.95
0.94
0.57
0.09
-0.34
-0.66
-0.89
-1.01
-0.97
-0.69
-0.17
0.53
1.28
1.97
2.53
2.98
3.38
3.81
4.34
4.99
5.71
6.35
6.72
6.60
5.93
4.77
3.36
1.91
0.58
-0.63
-1.78
-2.92
-3.99
-4.89
-5.52
-5.90
-6.18
-6.58
-7.20
-8.01
-8.80
-9.33
-9.42
-9.02
-8.20
-7.07
-5.74
-4.34
-2.97
-1.78
-0.91
-0.43
-0.37
-0.64
-1.06
-1.43
-1.56
-1.34
-0.75
0.08
0.92
1.52
1.63
1.22
0.41
-0.54
-1.35
-1.87
-2.08
-2.08
-1.96
-1.78
-1.54
-1.24
-0.91
-0.63
-0.41
-0.22
0.07
0.54
1.15
1.68
1.83
1.27
-0.16
-2.41
-5.22
-8.18
-10.82
-12.65
-13.30
-12.61
-10.68
-7.90
-4.84
-2.06
0.05
1.37
1.94
1.89
1.35
0.46
-0.59
-1.49
-1.95
-1.78
-1.10
-0.24
0.38
0.52
0.27
-0.11
-0.30
-0.24
-0.08
-0.04
-0.27
-0.71
-1.09
-1.24
-1.14
-1.00
-1.15
-1.80
-2.93
-4.26
-5.38
-5.91
-5.70
-4.76
-3.28
-1.51
0.32
2.02
3.51
4.76
5.81
6.71
7.46
8.07
8.46
8.59
8.41
7.95
7.26
6.48
5.71
5.08
4.65
4.46
4.52
4.84
5.37
6.05
6.69
7.05
6.88
6.00
4.47
2.52
0.47
-1.38
-2.92
-4.26
-5.64
-7.28
-9.26
-11.48
-13.71
-15.63
-17.01
-17.69
-17.60
-16.80
-15.37
-13.46
-11.24
-8.86
-6.43
-4.07
-1.89
-0.03
1.36
2.20
2.51
2.45
2.27
2.20
2.35
2.69
3.07
3.30
3.28
3.07
2.88
2.96
3.46
4.35
5.40
6.32
6.83
6.81
6.37
5.67
4.97
4.39
3.94
3.56
3.12
2.51
1.61
0.34
-1.36
-3.46
-5.83
-8.24
-10.41
-12.03
-12.89
-12.91
-12.13
-10.75
-9.02
-7.26
-5.69
-4.36
-3.15
-1.87
-0.36
1.30
2.91
4.18
4.94
5.28
5.50
5.92
6.69
7.77
8.88
9.70
10.07
10.07
9.87
9.71
9.63
9.60
9.47
9.13
8.57
7.89
7.19
6.52
5.84
5.02
3.97
2.69
1.30
0.02
-1.01
-1.78
-2.46
-3.30
-4.51
-6.13
-8.03
-9.92
-11.48
-12.40
-12.54
-11.83
-10.39
-8.41
-6.16
-3.90
-1.88
-0.25
0.96
1.80
2.44
3.07
3.86
4.90
6.10
7.28
8.19
8.65
8.59
8.15
7.56
7.06
6.82
6.91
7.27
7.84
8.46
9.02
9.37
9.45
9.26
8.87
8.41
7.92
7.42
6.84
6.07
5.05
3.78
2.28
0.67
-0.93
-2.41
-3.64
-4.59
-5.29
-5.91
-6.69
-7.76
-9.12
-10.58
-11.85
-12.62
-12.73
-12.16
-11.02
-9.51
-7.79
-5.99
-4.22
-2.53
-0.94
0.55
1.98
3.43
4.92
6.41
7.79
8.87
9.50
9.67
9.55
9.40
9.45
9.79
10.35
10.92
11.34
11.54
11.63
11.70
11.73
11.54
10.89
9.60
7.78
5.74
3.91
2.66
2.08
2.06
2.29
2.43
2.22
1.57
0.51
-0.79
-2.14
-3.38
-4.44
-5.36
-6.22
-7.08
-7.93
-8.67
-9.17
-9.34
-9.19
-8.79
-8.17
-7.34
-6.24
-4.87
-3.32
-1.83
-0.63
0.16
0.60
0.92
1.38
2.09
2.96
3.78
4.36
4.63
4.69
4.67
4.70
4.79
4.84
4.79
4.58
4.27
3.93
3.62
3.40
3.28
3.26
3.31
3.37
3.32
3.07
2.63
2.03
1.43
0.89
0.43
-0.02
-0.52
-1.05
-1.48
-1.73
-1.77
-1.72
-1.83
-2.33
-3.31
-4.62
-5.97
-7.05
-7.65
-7.74
-7.47
-7.02
-6.54
-6.08
-5.56
-4.88
-3.98
-2.85
-1.57
-0.26
0.98
2.00
2.75
3.20
3.40
3.48
3.52
3.60
3.70
3.78
3.82
3.88
4.07
4.45
5.03
5.59
5.90
5.75
5.12
4.23
3.36
2.71
2.29
1.91
1.38
0.57
-0.39
-1.25
-1.80
-1.99
-1.95
-1.92
-2.11
-2.55
-3.14
-3.75
-4.32
-4.88
-5.57
-6.47
-7.57
-8.76
-9.84
-10.60
-10.83
-10.43
-9.41
-7.97
-6.35
-4.79
-3.35
-1.98
-0.53
1.00
2.43
3.42
3.68
3.20
2.26
1.34
0.82
0.80
1.07
1.33
1.36
1.18
1.01
1.09
1.49
2.09
2.62
2.85
2.68
2.15
1.43
0.66
-0.11
-0.86
-1.56
-2.16
-2.53
-2.56
-2.22
-1.61
-0.93
-0.39
-0.14
-0.20
-0.51
-1.03
-1.80
-2.91
-4.40
-6.20
-8.05
-9.65
-10.76
-11.28
-11.30
-10.94
-10.31
-9.46
-8.45
-7.38
-6.36
-5.50
-4.79
-4.12
-3.31
-2.26
-0.98
0.36
1.57
2.53
3.25
3.78
4.20
4.52
4.70
4.65
4.38
3.97
3.57
3.34
3.35
3.61
3.97
4.26
4.32
4.05
3.50
2.75
1.90
1.00
0.07
-0.87
-1.81
-2.71
-3.54
-4.33
-5.13
-6.01
-6.95
-7.86
-8.63
-9.15
-9.42
-9.54
-9.60
-9.72
-9.94
-10.22
-10.44
-10.48
-10.17
-9.40
-8.13
-6.43
-4.47
-2.46
-0.60
0.96
2.15
2.94
3.39
3.55
3.51
3.40
3.32
3.34
3.49
3.74
4.08
4.50
5.00
5.51
5.92
6.03
5.73
5.05
4.21
3.50
3.20
3.39
3.98
4.73
5.34
5.63
5.48
4.93
4.07
3.08
2.11
1.34
0.85
0.59
0.40
0.04
-0.68
-1.82
-3.27
-4.76
-6.02
-6.81
-6.99
-6.57
-5.62
-4.26
-2.64
-0.85
0.96
2.67
4.09
5.09
5.59
5.65
5.44
5.15
4.92
4.76
4.61
4.41
4.14
3.84
3.57
3.36
3.26
3.29
3.49
3.81
4.17
4.40
4.35
4.01
3.49
3.00
2.72
2.66
2.67
2.53
2.03
1.15
0.01
-1.16
-2.17
-2.91
-3.42
-3.82
-4.32
-5.15
-6.47
-8.25
-10.22
-12.02
-13.25
-13.67
-13.28
-12.25
-10.83
-9.20
-7.45
-5.61
-3.81
-2.26
-1.22
-0.87
-1.19
-1.91
-2.62
-3.03
-3.04
-2.84
-2.67
-2.74
-3.07
-3.55
-3.98
-4.22
-4.23
-4.09
-3.88
-3.72
-3.61
-3.49
-3.25
-2.83
-2.24
-1.64
-1.29
-1.42
-2.15
-3.33
-4.66
-5.81
-6.60
-7.11
-7.62
-8.40
-9.55
-10.92
-12.12
-12.80
-12.71
-11.87
-10.50
-8.88
-7.18
-5.51
-3.81
-2.04
-0.22
1.58
3.22
4.57
5.59
6.27
6.70
6.96
7.16
7.35
7.55
7.76
7.96
8.18
8.48
8.90
9.47
10.12
10.68
10.90
10.61
9.77
8.58
7.35
6.35
5.69
5.30
4.95
4.49
3.87
3.17
2.48
1.77
0.89
-0.30
-1.82
-3.48
-4.95
-5.93
-6.26
-5.96
-5.20
-4.22
-3.24
-2.40
-1.82
-1.49
-1.32
-1.09
-0.62
0.21
1.31
2.44
3.36
3.91
4.13
4.20
4.31
4.59
5.07
5.67
6.31
6.96
7.61
8.28
8.95
9.56
10.00
10.17
10.00
9.41
8.37
6.83
4.81
2.35
-0.30
-2.83
-4.85
-6.08
-6.48
-6.28
-5.93
-5.91
-6.54
-7.90
-9.79
-11.85
-13.64
-14.77
-14.98
-14.14
-12.35
-9.89
-7.17
-4.59
-2.40
-0.68
0.68
1.82
2.83
3.67
4.24
4.43
4.23
3.74
3.07
2.36
1.69
1.12
0.74
0.63
0.84
1.31
1.94
2.50
2.79
2.74
2.38
1.88
1.42
1.08
0.90
0.73
0.46
-0.04
-0.82
-1.85
-3.02
-4.20
-5.30
-6.18
-6.80
-7.07
-6.92
-6.24
-5.00
-3.28
-1.28
0.69
2.35
3.55
4.32
4.82
5.23
5.63
6.00
6.24
6.24
5.94
5.38
4.64
3.84
3.08
2.46
2.04
1.86
1.86
1.95
2.00
1.94
1.72
1.37
0.91
0.31
-0.46
-1.44
-2.60
-3.87
-5.09
-6.11
-6.84
-7.25
-7.30
-6.96
-6.14
-4.78
-2.95
-0.82
1.30
3.14
4.58
5.61
6.37
6.99
7.54
8.01
8.32
8.47
8.48
8.44
8.39
8.32
8.22
8.07
7.86
7.61
7.30
6.88
6.28
5.47
4.46
3.32
2.12
0.88
-0.37
-1.66
-2.97
-4.27
-5.53
-6.73
-7.88
-8.98
-9.96
-10.76
-11.25
-11.30
-10.77
-9.60
-7.80
-5.45
-2.72
0.18
3.00
5.53
7.66
9.34
10.57
11.44
12.03
12.44
12.72
12.91
13.02
13.04
12.95
12.73
12.41
12.03
11.62
11.23
10.86
10.46
9.99
9.42
8.68
7.79
6.72
5.47
4.11
2.70
1.32
0.04
-1.17
-2.34
-3.51
-4.67
-5.82
-6.97
-8.26
-9.80
-11.71
-13.84
-15.85
-17.27
-17.69
-16.92
-15.09
-12.59
-9.86
-7.24
-4.93
-2.91
-1.07
0.69
2.46
4.24
6.00
7.69
9.27
10.72
12.02
13.16
14.06
14.64
14.87
14.79
14.55
14.38
14.45
14.77
15.22
15.55
15.54
15.13
14.43
13.66
12.99
12.41
11.76
10.83
9.48
7.82
6.18
4.92
4.24
4.04
3.97
3.59
2.65
1.24
-0.35
-1.71
-2.68
-3.35
-4.05
-5.06
-6.51
-8.30
-10.22
-12.06
-13.70
-15.06
-15.99
-16.29
-15.73
-14.22
-11.86
-8.95
-5.87
-2.94
-0.38
1.76
3.50
4.91
6.10
7.17
8.19
9.15
10.02
10.74
11.32
11.87
12.50
13.32
14.30
15.29
16.02
16.32
16.10
15.51
14.73
13.98
13.33
12.75
12.16
11.48
10.69
9.81
8.88
7.92
6.93
5.93
4.97
4.16
3.52
3.06
2.68
2.28
1.78
1.14
0.37
-0.54
-1.56
-2.64
-3.74
-4.81
-5.92
-7.21
-8.80
-10.70
-12.70
-14.41
-15.41
-15.43
-14.54
-13.05
-11.41
-9.95
-8.74
-7.68
-6.55
-5.22
-3.72
-2.17
-0.68
0.73
2.11
3.51
4.90
6.07
6.82
7.00
6.69
6.14
5.61
5.28
5.15
5.10
5.01
4.85
4.68
4.57
4.56
4.55
4.45
4.19
3.80
3.35
2.90
2.45
1.95
1.40
0.84
0.37
0.04
-0.19
-0.44
-0.84
-1.44
-2.16
-2.82
-3.29
-3.48
-3.45
-3.34
-3.33
-3.59
-4.22
-5.25
-6.58
-8.06
-9.45
-10.55
-11.24
-11.41
-11.07
-10.27
-9.14
-7.88
-6.70
-5.75
-5.11
-4.72
-4.40
-3.99
-3.43
-2.73
-2.02
-1.44
-1.08
-0.97
-1.08
-1.30
-1.50
-1.54
-1.32
-0.91
-0.44
-0.11
-0.03
-0.21
-0.48
-0.62
-0.51
-0.11
0.48
1.15
1.75
2.19
2.36
2.19
1.67
0.91
0.11
-0.53
-0.88
-0.97
-0.94
-0.97
-1.17
-1.57
-2.15
-2.86
-3.64
-4.38
-4.92
-5.16
-5.05
-4.73
-4.42
-4.34
-4.59
-5.11
-5.76
-6.38
-6.88
-7.25
-7.40
-7.24
-6.65
-5.63
-4.33
-3.05
-2.12
-1.69
-1.75
-2.06
-2.32
-2.32
-1.99
-1.39
-0.65
0.11
0.81
1.38
1.79
1.98
1.95
1.74
1.50
1.38
1.43
1.64
1.86
1.95
1.81
1.52
1.28
1.27
1.52
1.85
2.01
1.82
1.29
0.66
0.20
0.08
0.20
0.27
0.10
-0.38
-0.97
-1.39
-1.43
-1.08
-0.50
0.13
0.68
1.09
1.31
1.26
0.84
0.06
-0.91
-1.77
-2.20
-2.03
-1.35
-0.39
0.60
1.46
2.24
3.07
4.11
5.49
7.24
9.22
11.14
12.56
12.93
11.88
9.27
5.39
0.73
-4.11
-8.71
-12.87
-16.58
-19.85
-22.61
-24.69
-25.88
-26.05
-25.26
-23.77
-21.96
-20.17
-18.65
-17.42
-16.33
-15.17
-13.75
-12.07
-10.28
-8.64
-7.38
-6.59
-6.19
-6.03
-5.96
-5.95
-5.97
-6.00
-5.95
-5.65
-5.02
-4.06
-2.96
-1.96
-1.33
-1.20
-1.54
-2.18
-2.82
-3.19
-3.05
-2.34
-1.19
0.17
1.47
2.49
3.16
3.53
3.68
3.63
3.37
2.94
2.44
2.09
2.06
2.34
2.75
3.06
3.11
2.97
2.82
2.82
3.00
3.25
3.36
3.21
2.84
2.36
1.92
1.56
1.27
1.00
0.75
0.58
0.51
0.54
0.56
0.48
0.21
-0.22
-0.69
-1.05
-1.22
-1.20
-1.10
-1.09
-1.30
-1.80
-2.55
-3.45
-4.40
-5.31
-6.15
-6.85
-7.32
-7.45
-7.14
-6.36
-5.21
-3.93
-2.76
-1.94
-1.54
-1.51
-1.67
-1.85
-1.92
-1.88
-1.76
-1.57
-1.28
-0.84
-0.22
0.47
1.04
1.32
1.27
1.01
0.81
0.89
1.26
1.76
2.04
1.82
1.04
-0.04
-1.03
-1.54
-1.49
-1.06
-0.58
-0.32
-0.36
-0.57
-0.73
-0.74
-0.66
-0.65
-0.92
-1.55
-2.49
-3.56
-4.56
-5.28
-5.59
-5.43
-4.88
-4.13
-3.40
-2.87
-2.55
-2.34
-2.01
-1.45
-0.71
0.04
0.66
1.07
1.35
1.62
1.95
2.29
2.56
2.65
2.60
2.51
2.50
2.64
2.90
3.16
3.30
3.23
2.93
2.43
1.79
1.12
0.50
0.01
-0.37
-0.68
-0.94
-1.11
-1.08
-0.79
-0.33
0.04
-0.07
-0.93
-2.52
-4.45
-6.13
-6.99
-6.77
-5.61
-3.96
-2.35
-1.14
-0.37
0.13
0.65
1.33
2.16
2.95
3.51
3.79
3.90
4.01
4.27
4.61
4.89
4.95
4.77
4.48
4.27
4.27
4.45
4.66
4.72
4.58
4.31
4.05
3.93
3.94
3.98
3.96
3.83
3.61
3.36
3.06
2.65
2.03
1.17
0.15
-0.88
-1.77
-2.44
-2.93
-3.34
-3.78
-4.29
-4.83
-5.28
-5.54
-5.54
-5.26
-4.72
-3.96
-3.04
-2.00
-0.89
0.24
1.33
2.34
3.24
4.00
4.61
5.11
5.48
5.74
5.89
5.98
6.08
6.23
6.45
6.66
6.79
6.73
6.43
5.92
5.32
4.73
4.24
3.88
3.62
3.36
3.02
2.53
1.92
1.28
0.75
0.37
0.17
0.05
-0.09
-0.37
-0.85
-1.59
-2.65
-4.05
-5.75
-7.52
-9.02
-9.87
-9.83
-8.92
-7.43
-5.75
-4.22
-2.94
-1.83
-0.75
0.33
1.32
2.04
2.45
2.69
3.04
3.72
4.71
5.74
6.42
6.56
6.23
5.72
5.38
5.38
5.65
5.98
6.22
6.35
6.45
6.61
6.80
6.90
6.77
6.31
5.57
4.66
3.74
2.95
2.35
1.96
1.73
1.58
1.39
1.09
0.66
0.12
-0.47
-1.08
-1.70
-2.43
-3.34
-4.45
-5.65
-6.71
-7.41
-7.53
-6.99
-5.89
-4.43
-2.87
-1.43
-0.34
0.27
0.41
0.18
-0.21
-0.53
-0.59
-0.36
0.07
0.60
1.14
1.74
2.44
3.29
4.21
5.11
5.94
6.78
7.76
8.93
10.13
11.06
11.35
10.86
9.74
8.40
7.23
6.42
5.83
5.14
4.11
2.67
1.04
-0.55
-1.94
-3.16
-4.26
-5.28
-6.09
-6.53
-6.57
-6.42
-6.40
-6.79
-7.60
-8.48
-8.95
-8.65
-7.52
-5.81
-3.86
-1.97
-0.29
1.18
2.38
3.21
3.54
3.32
2.73
2.07
1.66
1.66
1.98
2.41
2.76
2.93
3.03
3.21
3.58
4.10
4.58
4.84
4.79
4.47
4.04
3.68
3.46
3.32
3.15
2.87
2.49
2.09
1.75
1.43
1.04
0.42
-0.54
-1.80
-3.27
-4.78
-6.22
-7.50
-8.57
-9.38
-9.85
-9.98
-9.81
-9.42
-8.90
-8.27
-7.45
-6.35
-4.96
-3.37
-1.81
-0.46
0.57
1.36
2.03
2.68
3.27
3.69
3.80
3.64
3.39
3.30
3.59
4.27
5.17
5.97
6.42
6.41
5.99
5.32
4.62
4.05
3.72
3.59
3.53
3.34
2.88
2.12
1.20
0.30
-0.46
-1.08
-1.68
-2.40
-3.25
-4.19
-5.17
-6.23
-7.54
-9.25
-11.33
-13.45
-15.03
-15.51
-14.61
-12.51
-9.74
-6.93
-4.57
-2.85
-1.72
-0.99
-0.46
0.01
0.54
1.18
1.95
2.80
3.64
4.33
4.78
5.00
5.07
5.11
5.18
5.32
5.56
5.95
6.52
7.25
8.01
8.58
8.76
8.47
7.82
7.03
6.29
5.70
5.18
4.56
3.71
2.64
1.44
0.32
-0.65
-1.51
-2.45
-3.67
-5.26
-7.15
-9.18
-11.14
-12.94
-14.45
-15.54
-15.94
-15.37
-13.64
-10.83
-7.37
-3.83
-0.77
1.52
3.05
4.04
4.77
5.45
6.17
6.94
7.72
8.47
9.11
9.55
9.75
9.72
9.55
9.41
9.40
9.56
9.83
10.08
10.23
10.20
9.97
9.48
8.71
7.60
6.20
4.60
2.98
1.49
0.27
-0.67
-1.36
-1.88
-2.38
-3.00
-3.87
-5.12
-6.75
-8.68
-10.71
-12.56
-13.98
-14.77
-14.84
-14.20
-12.98
-11.28
-9.22
-6.90
-4.38
-1.77
0.83
3.28
5.39
7.01
8.01
8.43
8.40
8.16
7.91
7.84
7.97
8.22
8.44
8.49
8.30
7.93
7.55
7.30
7.26
7.38
7.50
7.48
7.23
6.73
6.00
5.12
4.10
2.98
1.80
0.63
-0.44
-1.38
-2.19
-2.94
-3.74
-4.69
-5.83
-7.14
-8.60
-10.09
-11.47
-12.52
-13.05
-12.91
-12.06
-10.64
-8.87
-7.01
-5.18
-3.36
-1.43
0.69
2.92
5.02
6.68
7.72
8.18
8.29
8.35
8.53
8.83
9.13
9.31
9.34
9.31
9.30
9.31
9.26
9.08
8.75
8.33
7.85
7.30
6.61
5.65
4.39
2.93
1.42
0.01
-1.22
-2.30
-3.33
-4.38
-5.53
-6.85
-8.39
-10.17
-12.05
-13.78
-14.97
-15.28
-14.49
-12.67
-10.10
-7.16
-4.23
-1.57
0.72
2.61
4.13
5.30
6.16
6.74
7.14
7.46
7.78
8.07
8.28
8.38
8.39
8.41
8.60
9.00
9.48
9.80
9.74
9.22
8.42
7.60
7.01
6.69
6.48
6.13
5.50
4.60
3.59
2.62
1.71
0.76
-0.37
-1.72
-3.20
-4.68
-6.06
-7.35
-8.66
-10.09
-11.61
-13.03
-14.03
-14.29
-13.60
-11.92
-9.44
-6.52
-3.56
-0.92
1.23
2.96
4.41
5.77
7.11
8.35
9.37
10.10
10.58
10.94
11.31
11.73
12.07
12.18
11.91
11.28
10.48
9.79
9.45
9.54
9.84
10.06
9.86
9.09
7.87
6.49
5.27
4.35
3.64
2.95
2.07
0.97
-0.23
-1.39
-2.44
-3.46
-4.60
-6.00
-7.69
-9.58
-11.52
-13.31
-14.77
-15.71
-15.99
-15.52
-14.32
-12.52
-10.36
-8.09
-5.88
-3.85
-2.06
-0.54
0.75
1.86
2.94
4.09
5.36
6.66
7.86
8.77
9.29
9.46
9.42
9.31
9.25
9.24
9.26
9.24
9.16
9.02
8.86
8.67
8.43
8.07
7.54
6.83
6.03
5.26
4.66
4.28
4.03
3.74
3.19
2.28
1.04
-0.36
-1.64
-2.60
-3.16
-3.46
-3.73
-4.25
-5.18
-6.49
-7.96
-9.25
-10.00
-9.95
-9.01
-7.27
-5.05
-2.69
-0.53
1.28
2.77
4.10
5.41
6.75
7.99
8.90
9.33
9.18
8.48
7.31
5.77
3.97
2.02
0.12
-1.49
-2.60
-3.17
-3.28
-3.12
-2.87
-2.63
-2.47
-2.40
-2.42
-2.49
-2.56
-2.53
-2.34
-1.98
-1.56
-1.26
-1.26
-1.68
-2.46
-3.45
-4.43
-5.22
-5.75
-6.11
-6.46
-7.02
-7.94
-9.26
-10.87
-12.50
-13.89
-14.77
-14.96
-14.44
-13.23
-11.50
-9.48
-7.36
-5.34
-3.52
-1.91
-0.51
0.66
1.58
2.24
2.73
3.23
3.89
4.79
5.81
6.71
7.21
7.13
6.50
5.60
4.79
4.39
4.52
5.05
5.68
6.07
6.00
5.43
4.54
3.56
2.67
1.94
1.32
0.73
0.15
-0.32
-0.59
-0.66
-0.70
-0.92
-1.46
-2.27
-3.15
-3.86
-4.34
-4.73
-5.28
-6.15
-7.28
-8.39
-9.19
-9.53
-9.46
-9.18
-8.81
-8.31
-7.51
-6.32
-4.83
-3.31
-2.10
-1.33
-0.92
-0.59
-0.15
0.43
0.94
1.15
0.97
0.54
0.13
-0.04
0.07
0.27
0.33
0.12
-0.27
-0.66
-0.91
-1.01
-1.12
-1.41
-1.94
-2.60
-3.16
-3.45
-3.38
-3.02
-2.55
-2.16
-1.95
-2.01
-2.34
-2.90
-3.64
-4.48
-5.30
-5.99
-6.48
-6.76
-6.89
-6.98
-7.03
-7.02
-6.85
-6.42
-5.65
-4.61
-3.41
-2.21
-1.13
-0.25
0.42
0.90
1.23
1.47
1.65
1.85
2.09
2.38
2.72
3.07
3.49
4.06
4.91
6.14
7.72
9.46
11.04
12.19
12.74
12.76
12.49
12.23
12.16
12.37
12.80
13.40
14.16
15.05
15.99
16.71
16.82
15.91
13.71
10.27
5.92
1.13
-3.73
-8.49
-13.17
-17.89
-22.63
-27.20
-31.20
-34.22
-35.94
-36.27
-35.34
-33.45
-30.91
-28.01
-24.99
-22.06
-19.40
-17.18
-15.49
-14.27
-13.30
-12.31
-11.04
-9.38
-7.41
-5.32
-3.31
-1.54
-0.06
1.16
2.13
2.92
3.60
4.29
5.09
5.95
6.76
7.30
7.41
7.11
6.56
6.06
5.78
5.70
5.55
4.99
3.76
1.90
-0.31
-2.42
-4.08
-5.09
-5.46
-5.33
-4.83
-4.03
-2.98
-1.74
-0.42
0.83
1.92
2.86
3.73
4.66
5.66
6.65
7.44
7.90
8.03
7.99
8.00
8.22
8.65
9.17
9.61
9.89
10.07
10.24
10.47
10.74
10.93
10.89
10.57
9.99
9.24
8.38
7.41
6.30
5.05
3.80
2.70
1.91
1.45
1.13
0.71
-0.07
-1.28
-2.82
-4.49
-6.11
-7.55
-8.81
-9.94
-10.91
-11.66
-12.05
-11.96
-11.34
-10.21
-8.70
-6.94
-5.06
-3.18
-1.36
0.36
1.93
3.29
4.33
4.96
5.14
4.94
4.57
4.23
4.11
4.27
4.66
5.20
5.85
6.56
7.32
8.08
8.68
8.99
8.92
8.47
7.77
6.99
6.23
5.54
4.90
4.28
3.71
3.25
2.93
2.69
2.38
1.82
0.94
-0.22
-1.45
-2.52
-3.29
-3.83
-4.32
-5.00
-6.00
-7.28
-8.65
-9.83
-10.51
-10.50
-9.71
-8.23
-6.24
-4.01
-1.79
0.29
2.18
3.92
5.47
6.76
7.62
7.91
7.66
7.09
6.50
6.13
6.02
5.99
5.80
5.33
4.65
3.98
3.55
3.43
3.53
3.67
3.71
3.65
3.59
3.63
3.81
4.07
4.27
4.33
4.19
3.86
3.33
2.65
1.86
1.09
0.46
0.03
-0.20
-0.37
-0.70
-1.38
-2.45
-3.84
-5.31
-6.56
-7.34
-7.52
-7.18
-6.44
-5.44
-4.27
-2.95
-1.50
-0.00
1.37
2.46
3.16
3.55
3.78
4.02
4.33
4.69
5.00
5.22
5.43
5.70
6.11
6.58
6.96
7.14
7.09
6.87
6.58
6.28
5.90
5.30
4.40
3.17
1.75
0.34
-0.84
-1.65
-2.03
-2.07
-1.89
-1.63
-1.35
-1.14
-1.06
-1.25
-1.84
-2.85
-4.18
-5.54
-6.61
-7.24
-7.48
-7.55
-7.64
-7.81
-7.88
-7.57
-6.66
-5.16
-3.28
-1.37
0.30
1.61
2.57
3.30
3.86
4.31
4.64
4.87
5.08
5.39
5.90
6.64
7.56
8.51
9.31
9.82
10.01
9.90
9.54
8.91
7.94
6.54
4.63
2.25
-0.46
-3.25
-5.86
-8.11
-9.90
-11.25
-12.20
-12.74
-12.86
-12.56
-11.98
-11.33
-10.91
-10.87
-11.20
-11.71
-12.12
-12.20
-11.81
-10.95
-9.68
-8.11
-6.40
-4.73
-3.26
-2.15
-1.38
-0.88
-0.52
-0.23
-0.10
-0.22
-0.65
-1.26
-1.79
-1.96
-1.59
-0.76
0.30
1.37
2.32
3.19
4.05
4.96
5.79
6.34
6.39
5.84
4.78
3.45
2.15
1.12
0.51
0.22
0.12
-0.02
-0.36
-0.95
-1.76
-2.75
-3.86
-5.03
-6.19
-7.25
-8.06
-8.50
-8.46
-7.93
-7.00
-5.79
-4.50
-3.32
-2.37
-1.68
-1.23
-0.92
-0.68
-0.48
-0.35
-0.29
-0.20
0.04
0.55
1.32
2.16
2.76
2.94
2.70
2.26
1.94
1.91
2.15
2.43
2.50
2.19
1.55
0.73
-0.06
-0.66
-1.03
-1.25
-1.42
-1.62
-1.93
-2.36
-2.89
-3.54
-4.26
-5.02
-5.75
-6.36
-6.72
-6.74
-6.38
-5.64
-4.60
-3.36
-2.03
-0.73
0.42
1.32
1.93
2.26
2.45
2.64
2.96
3.43
4.00
4.50
4.78
4.73
4.33
3.62
2.74
1.90
1.28
0.99
0.97
1.06
1.02
0.73
0.19
-0.44
-1.00
-1.41
-1.74
-2.13
-2.69
-3.44
-4.29
-5.13
-5.92
-6.69
-7.49
-8.31
-9.02
-9.43
-9.39
-8.84
-7.83
-6.49
-5.05
-3.66
-2.47
-1.55
-0.94
-0.60
-0.44
-0.36
-0.19
0.18
0.76
1.50
2.23
2.75
2.97
2.94
2.80
2.69
2.72
2.86
3.01
3.10
3.08
2.95
2.73
2.45
2.12
1.81
1.57
1.43
1.34
1.14
0.68
-0.11
-1.18
-2.32
-3.30
-3.98
-4.35
-4.51
-4.57
-4.61
-4.63
-4.56
-4.31
-3.82
-3.07
-2.09
-0.93
0.30
1.49
2.50
3.27
3.84
4.30
4.76
5.27
5.74
6.04
6.02
5.66
5.09
4.53
4.17
4.07
4.17
4.32
4.43
4.50
4.61
4.86
5.23
5.65
5.96
6.02
5.75
5.10
4.17
3.05
1.94
0.97
0.24
-0.28
-0.73
-1.26
-2.00
-2.99
-4.18
-5.43
-6.63
-7.70
-8.59
-9.19
-9.33
-8.89
-7.74
-6.00
-3.90
-1.78
0.07
1.49
2.50
3.23
3.77
4.18
4.36
4.27
3.95
3.57
3.36
3.47
3.87
4.39
4.79
4.96
4.97
5.00
5.23
5.67
6.15
6.37
6.14
5.45
4.56
3.85
3.68
4.14
5.00
5.84
6.22
5.88
4.86
3.41
1.89
0.53
-0.60
-1.65
-2.82
-4.22
-5.83
-7.48
-8.92
-9.95
-10.44
-10.36
-9.73
-8.57
-6.99
-5.13
-3.24
-1.59
-0.41
0.23
0.50
0.74
1.26
2.19
3.41
4.64
5.59
6.13
6.32
6.31
6.27
6.26
6.26
6.30
6.40
6.67
7.14
7.71
8.17
8.29
7.99
7.37
6.75
6.43
6.55
7.02
7.46
7.44
6.70
5.24
3.33
1.33
-0.44
-1.89
-3.08
-4.18
-5.29
-6.46
-7.66
-8.84
-9.94
-10.84
-11.33
-11.19
-10.24
-8.46
-6.06
-3.40
-0.89
1.12
2.47
3.20
3.46
3.46
3.39
3.37
3.44
3.59
3.77
3.94
4.09
4.19
4.18
4.01
3.60
2.96
2.14
1.27
0.47
-0.15
-0.61
-1.02
-1.54
-2.27
-3.20
-4.19
-5.02
-5.52
-5.63
-5.49
-5.37
-5.53
-6.12
-7.07
-8.15
-9.03
-9.45
-9.25
-8.48
-7.24
-5.70
-3.97
-2.13
-0.23
1.61
3.21
4.37
4.95
5.01
4.74
4.42
4.22
4.15
4.07
3.80
3.23
2.44
1.66
1.17
1.15
1.57
2.22
2.84
3.19
3.21
2.94
2.49
1.97
1.42
0.84
0.25
-0.32
-0.74
-0.96
-0.97
-0.93
-1.07
-1.57
-2.48
-3.69
-4.99
-6.14
-6.96
-7.36
-7.34
-6.87
-5.98
-4.69
-3.12
-1.46
0.06
1.23
2.01
2.49
2.86
3.27
3.76
4.30
4.79
5.20
5.57
6.01
6.55
7.13
7.53
7.56
7.14
6.39
5.60
5.05
4.86
4.92
4.97
4.82
4.38
3.75
3.11
2.55
2.09
1.64
1.10
0.46
-0.24
-0.93
-1.62
-2.37
-3.29
-4.43
-5.77
-7.20
-8.55
-9.64
-10.30
-10.42
-9.98
-8.99
-7.59
-5.94
-4.21
-2.52
-0.91
0.62
2.10
3.52
4.81
5.90
6.72
7.27
7.64
7.98
8.37
8.85
9.32
9.66
9.79
9.70
9.49
9.30
9.17
9.03
8.75
8.16
7.21
5.97
4.65
3.53
2.77
2.39
2.26
2.11
1.72
0.97
-0.06
-1.15
-2.05
-2.63
-3.01
-3.46
-4.23
-5.40
-6.84
-8.25
-9.42
-10.29
-10.95
-11.49
-11.80
-11.65
-10.78
-9.11
-6.87
-4.44
-2.21
-0.35
1.19
2.55
3.83
4.99
5.88
6.38
6.47
6.27
5.91
5.46
4.93
4.28
3.53
2.71
1.95
1.38
1.09
1.14
1.49
2.07
2.74
3.42
3.99
4.35
4.44
4.21
3.72
3.05
2.32
1.56
0.76
-0.23
-1.49
-3.05
-4.75
-6.39
-7.75
-8.75
-9.50
-10.06
-10.47
-10.58
-10.22
-9.30
-7.91
-6.33
-4.83
-3.58
-2.56
-1.59
-0.49
0.78
2.15
3.44
4.49
5.25
5.76
6.09
6.32
6.45
6.48
6.41
6.29
6.15
6.00
5.80
5.49
5.04
4.50
3.96
3.53
3.24
3.06
2.88
2.59
2.18
1.66
1.10
0.56
0.01
-0.59
-1.26
-2.05
-2.96
-4.00
-5.18
-6.46
-7.75
-8.88
-9.64
-9.88
-9.55
-8.71
-7.54
-6.24
-4.99
-3.89
-3.01
-2.36
-1.95
-1.74
-1.69
-1.74
-1.85
-2.00
-2.21
-2.47
-2.65
-2.55
-1.98
-0.91
0.51
1.92
2.99
3.56
3.70
3.65
3.63
3.72
3.83
3.78
3.46
2.84
2.00
1.02
-0.06
-1.19
-2.26
-3.07
-3.40
-3.13
-2.38
-1.53
-1.03
-1.20
-2.05
-3.21
-4.20
-4.60
-4.34
-3.65
-2.91
-2.41
-2.15
-1.93
-1.42
-0.44
0.92
2.37
3.55
4.16
4.09
3.46
2.53
1.60
0.90
0.48
0.31
0.26
0.27
0.37
0.66
1.19
1.91
2.57
2.90
2.74
2.12
1.23
0.33
-0.45
-1.09
-1.75
-2.57
-3.63
-4.86
-6.13
-7.30
-8.23
-8.88
-9.24
-9.40
-9.46
-9.53
-9.66
-9.82
-9.85
-9.56
-8.78
-7.45
-5.62
-3.47
-1.20
0.95
2.81
4.29
5.32
5.96
6.28
6.38
6.24
5.86
5.19
4.26
3.23
2.31
1.68
1.39
1.32
1.25
0.98
0.50
-0.07
-0.52
-0.69
-0.59
-0.35
-0.15
-0.12
-0.28
-0.54
-0.77
-0.85
-0.73
-0.49
-0.29
-0.35
-0.82
-1.72
-2.94
-4.30
-5.60
-6.72
-7.60
-8.17
-8.32
-7.94
-6.98
-5.56
-3.93
-2.40
-1.19
-0.39
0.07
0.32
0.45
0.52
0.56
0.61
0.77
1.20
1.97
3.07
4.35
5.54
6.37
6.65
6.39
5.74
4.99
4.39
4.07
4.00
4.09
4.22
4.26
4.12
3.68
2.84
1.54
-0.12
-1.95
-3.67
-5.03
-5.93
-6.44
-6.73
-6.99
-7.34
-7.75
-8.21
-8.63
-8.99
-9.27
-9.43
-9.33
-8.87
-7.94
-6.54
-4.82
-3.07
-1.57
-0.50
0.12
0.45
0.73
1.12
1.68
2.32
2.96
3.54
4.04
4.50
4.93
5.27
5.40
5.28
4.90
4.39
3.96
3.74
3.75
3.83
3.73
3.23
2.26
0.97
-0.31
-1.25
-1.69
-1.66
-1.41
-1.25
-1.32
-1.61
-2.01
-2.45
-2.96
-3.64
-4.51
-5.45
-6.20
-6.50
-6.20
-5.39
-4.26
-3.07
-1.97
-0.99
-0.16
0.53
1.01
1.26
1.27
1.16
1.09
1.18
1.49
1.97
2.59
3.30
4.05
4.76
5.29
5.54
5.47
5.15
4.73
4.36
4.05
3.75
3.33
2.80
2.27
1.92
1.86
2.03
2.22
2.21
1.91
1.41
0.89
0.43
-0.02
-0.67
-1.73
-3.18
-4.80
-6.19
-7.03
-7.14
-6.67
-5.93
-5.20
-4.67
-4.27
-3.78
-2.99
-1.76
-0.18
1.52
3.05
4.23
5.04
5.62
6.16
6.73
7.21
7.41
7.11
6.32
5.26
4.30
3.78
3.84
4.38
5.15
5.84
6.21
6.17
5.76
5.09
4.30
3.49
2.73
2.01
1.34
0.74
0.25
-0.10
-0.33
-0.55
-0.92
-1.59
-2.62
-3.96
-5.49
-7.13
-8.73
-10.19
-11.34
-11.94
-11.83
-10.95
-9.45
-7.59
-5.67
-3.85
-2.18
-0.61
0.86
2.18
3.21
3.86
4.16
4.23
4.30
4.51
4.90
5.40
5.91
6.35
6.72
7.05
7.35
7.60
7.70
7.60
7.27
6.77
6.19
5.57
4.99
4.45
4.00
3.67
3.49
3.41
3.32
3.05
2.45
1.45
0.16
-1.22
-2.44
-3.38
-4.06
-4.72
-5.62
-6.94
-8.62
-10.43
-11.98
-12.97
-13.21
-12.75
-11.70
-10.22
-8.44
-6.44
-4.30
-2.14
-0.11
1.61
2.97
3.98
4.73
5.30
5.76
6.10
6.33
6.47
6.53
6.55
6.53
6.48
6.40
6.27
6.04
5.69
5.20
4.56
3.84
3.10
2.43
1.87
1.49
1.27
1.21
1.29
1.46
1.60
1.59
1.31
0.75
-0.00
-0.86
-1.77
-2.79
-4.05
-5.62
-7.49
-9.45
-11.25
-12.58
-13.22
-13.04
-12.06
-10.36
-8.15
-5.69
-3.33
-1.35
0.11
1.07
1.74
2.34
3.02
3.77
4.47
5.02
5.41
5.78
6.30
7.07
8.08
9.14
10.05
10.64
10.86
10.78
10.53
10.19
9.79
9.33
8.74
8.00
7.06
5.90
4.53
3.03
1.57
0.37
-0.44
-0.86
-1.05
-1.27
-1.72
-2.44
-3.26
-3.97
-4.48
-4.93
-5.69
-7.12
-9.32
-12.04
-14.73
-16.81
-17.94
-18.18
-17.81
-17.10
-16.08
-14.52
-12.16
-8.96
-5.28
-1.71
1.17
3.10
4.25
5.01
5.72
6.45
7.03
7.18
6.82
6.13
5.53
5.43
5.96
6.99
8.16
9.08
9.53
9.51
9.13
8.53
7.79
6.95
6.05
5.20
4.52
4.07
3.78
3.50
3.05
2.31
1.25
-0.03
-1.36
-2.58
-3.56
-4.20
-4.53
-4.70
-4.92
-5.46
-6.44
-7.75
-9.08
-10.03
-10.28
-9.79
-8.76
-7.52
-6.38
-5.49
-4.83
-4.32
-3.87
-3.44
-3.02
-2.58
-2.03
-1.28
-0.31
0.82
2.01
3.21
4.40
5.59
6.77
7.86
8.77
9.46
9.98
10.44
10.91
11.36
11.60
11.47
10.88
9.90
8.71
7.53
6.39
5.20
3.76
1.94
-0.22
-2.49
-4.55
-6.11
-7.07
-7.52
-7.62
-7.56
-7.50
-7.54
-7.77
-8.30
-9.17
-10.29
-11.45
-12.32
-12.59
-12.07
-10.78
-8.89
-6.70
-4.50
-2.52
-0.86
0.46
1.50
2.34
3.08
3.78
4.46
5.13
5.77
6.38
6.95
7.49
8.00
8.51
9.05
9.65
10.31
10.98
11.61
12.17
12.60
12.81
12.69
12.11
11.03
9.51
7.78
6.03
4.45
3.10
1.94
0.91
-0.01
-0.84
-1.59
-2.32
-3.12
-4.02
-5.01
-6.05
-7.16
-8.45
-10.03
-11.91
-13.85
-15.43
-16.17
-15.78
-14.33
-12.22
-10.01
-8.20
-7.02
-6.43
-6.19
-5.99
-5.56
-4.73
-3.40
-1.57
0.70
3.22
5.67
7.66
8.83
9.05
8.47
7.49
6.52
5.83
5.43
5.11
4.61
3.80
2.75
1.64
0.70
0.09
-0.16
-0.08
0.29
0.90
1.65
2.35
2.83
2.97
2.80
2.47
2.16
1.92
1.69
1.23
0.31
-1.15
-3.04
-5.10
-7.05
-8.74
-10.15
-11.29
-12.12
-12.53
-12.35
-11.55
-10.28
-8.81
-7.42
-6.24
-5.22
-4.18
-3.00
-1.65
-0.25
0.96
1.86
2.42
2.75
3.05
3.55
4.41
5.68
7.21
8.75
9.95
10.56
10.47
9.83
8.95
8.14
7.58
7.20
6.83
6.25
5.33
4.09
2.64
1.02
-0.77
-2.76
-4.90
-6.95
-8.57
-9.48
-9.63
-9.26
-8.78
-8.53
-8.58
-8.67
-8.40
-7.43
-5.70
-3.43
-0.95
1.41
3.45
5.10
6.40
7.33
7.92
8.21
8.25
8.17
8.14
8.25
8.60
9.19
9.99
10.83
11.59
12.09
12.25
12.08
11.73
11.40
11.26
11.32
11.43
11.36
10.85
9.80
8.29
6.49
4.67
2.98
1.47
0.12
-1.13
-2.31
-3.40
-4.41
-5.35
-6.30
-7.32
-8.45
-9.66
-10.83
-11.82
-12.46
-12.56
-12.05
-10.96
-9.43
-7.68
-5.92
-4.28
-2.77
-1.40
-0.12
1.06
2.13
3.11
4.06
5.02
5.97
6.86
7.61
8.22
8.78
9.46
10.41
11.64
12.95
14.01
14.48
14.19
13.17
11.69
10.08
8.62
7.41
6.39
5.33
4.07
2.49
0.64
-1.36
-3.38
-5.33
-7.19
-8.93
-10.47
-11.72
-12.53
-12.87
-12.82
-12.57
-12.33
-12.18
-12.02
-11.62
-10.73
-9.21
-7.19
-4.88
-2.58
-0.48
1.31
2.75
3.79
4.40
4.59
4.49
4.29
4.17
4.21
4.37
4.57
4.82
5.26
6.06
7.26
8.74
10.18
11.29
11.88
11.98
11.73
11.25
10.55
9.51
8.04
6.14
3.98
1.78
-0.19
-1.80
-3.03
-3.98
-4.81
-5.70
-6.76
-8.07
-9.56
-11.15
-12.64
-13.85
-14.58
-14.68
-14.08
-12.79
-10.85
-8.40
-5.57
-2.55
0.46
3.24
5.57
7.26
8.24
8.53
8.29
7.83
7.46
7.41
7.74
8.30
8.82
9.01
8.73
8.06
7.25
6.60
6.31
6.42
6.75
7.05
7.14
6.92
6.44
5.83
5.20
4.58
3.97
3.28
2.43
1.41
0.26
-0.93
-2.10
-3.19
-4.22
-5.23
-6.34
-7.60
-8.98
-10.37
-11.51
-12.14
-12.06
-11.25
-9.90
-8.31
-6.78
-5.47
-4.39
-3.44
-2.56
-1.78
-1.16
-0.77
-0.51
-0.17
0.53
1.72
3.36
5.17
6.81
7.99
8.60
8.74
8.64
8.58
8.77
9.31
10.12
10.94
11.42
11.20
10.15
8.34
6.11
3.86
1.96
0.54
-0.44
-1.14
-1.71
-2.22
-2.72
-3.22
-3.77
-4.41
-5.13
-5.86
-6.43
-6.74
-6.78
-6.71
-6.75
-7.07
-7.67
-8.35
-8.82
-8.79
-8.22
-7.30
-6.35
-5.66
-5.33
-5.20
-4.99
-4.44
-3.42
-2.03
-0.49
0.99
2.26
3.29
4.15
4.93
5.65
6.30
6.80
7.10
7.23
7.25
7.25
7.29
7.37
7.37
7.12
6.43
5.24
3.67
2.00
0.58
-0.38
-0.89
-1.13
-1.32
-1.57
-1.83
-1.99
-1.99
-2.00
-2.27
-3.02
-4.25
-5.72
-7.10
-8.17
-8.98
-9.74
-10.67
-11.76
-12.77
-13.36
-13.23
-12.29
-10.69
-8.67
-6.53
-4.55
-2.87
-1.59
-0.66
0.02
0.56
1.06
1.54
2.01
2.44
2.82
3.22
3.69
4.26
4.88
5.40
5.65
5.54
5.07
4.40
3.76
3.33
3.14
3.13
3.15
3.08
2.91
2.72
2.66
2.80
3.11
3.40
3.48
3.16
2.37
1.15
-0.31
-1.74
-2.93
-3.69
-4.07
-4.20
-4.33
-4.65
-5.23
-6.00
-6.84
-7.65
-8.41
-9.11
-9.68
-9.92
-9.60
-8.48
-6.57
-4.13
-1.59
0.58
2.06
2.77
2.87
2.63
2.28
1.98
1.76
1.56
1.36
1.21
1.21
1.41
1.82
2.33
2.79
3.10
3.23
3.26
3.31
3.43
3.62
3.78
3.81
3.71
3.56
3.43
3.35
3.24
2.93
2.29
1.30
0.03
-1.34
-2.61
-3.62
-4.25
-4.52
-4.52
-4.46
-4.52
-4.87
-5.53
-6.35
-7.12
-7.64
-7.81
-7.67
-7.29
-6.71
-5.91
-4.86
-3.57
-2.21
-0.99
-0.17
0.20
0.26
0.24
0.33
0.52
0.67
0.61
0.35
0.09
0.11
0.59
1.43
2.28
2.75
2.65
2.09
1.41
0.92
0.77
0.86
0.98
0.95
0.71
0.33
-0.11
-0.52
-0.93
-1.34
-1.76
-2.20
-2.69
-3.33
-4.19
-5.32
-6.63
-7.95
-9.09
-9.97
-10.60
-10.99
-11.10
-10.84
-10.09
-8.79
-7.09
-5.27
-3.63
-2.39
-1.57
-1.04
-0.63
-0.24
0.12
0.39
0.52
0.52
0.45
0.44
0.58
0.90
1.36
1.83
2.18
2.37
2.45
2.51
2.66
2.88
3.08
3.10
2.77
2.10
1.21
0.34
-0.33
-0.71
-0.90
-1.10
-1.51
-2.24
-3.24
-4.33
-5.34
-6.17
-6.84
-7.48
-8.16
-8.82
-9.30
-9.40
-9.05
-8.35
-7.54
-6.77
-6.05
-5.25
-4.16
-2.74
-1.11
0.43
1.61
2.28
2.49
2.38
2.05
1.61
1.05
0.53
0.28
0.59
1.63
3.30
5.22
6.88
7.88
8.10
7.74
7.15
6.66
6.40
6.26
6.02
5.44
4.51
3.31
2.03
0.81
-0.34
-1.55
-3.02
-4.80
-6.74
-8.49
-9.69
-10.11
-9.83
-9.22
-8.78
-8.90
-9.63
-10.70
-11.60
-11.88
-11.31
-9.98
-8.19
-6.29
-4.50
-2.87
-1.31
0.24
1.72
2.94
3.63
3.57
2.77
1.50
0.22
-0.61
-0.69
0.04
1.39
3.09
4.83
6.43
7.74
8.70
9.22
9.34
9.13
8.75
8.35
8.04
7.79
7.45
6.87
5.97
4.80
3.50
2.26
1.23
0.54
0.19
0.07
-0.09
-0.55
-1.54
-3.08
-4.96
-6.81
-8.26
-9.11
-9.34
-9.09
-8.54
-7.81
-6.92
-5.82
-4.45
-2.82
-1.01
0.84
2.59
4.06
5.19
5.94
6.40
6.67
6.88
7.08
7.29
7.48
7.62
7.71
7.74
7.70
7.56
7.28
6.79
6.09
5.21
4.25
3.32
2.48
1.74
1.03
0.23
-0.73
-1.79
-2.80
-3.53
-3.87
-3.84
-3.68
-3.70
-4.13
-5.02
-6.21
-7.48
-8.62
-9.55
-10.29
-10.77
-10.86
-10.39
-9.26
-7.50
-5.43
-3.44
-1.87
-0.90
-0.44
-0.24
-0.03
0.42
1.20
2.31
3.71
5.32
7.02
8.65
10.11
11.31
12.28
13.04
13.65
14.06
14.20
13.96
13.27
12.25
11.10
10.08
9.35
8.93
8.69
8.45
8.05
7.41
6.57
5.58
4.54
3.48
2.43
1.32
0.06
-1.50
-3.47
-5.87
-8.53
-11.14
-13.28
-14.63
-15.01
-14.47
-13.21
-11.52
-9.71
-8.05
-6.69
-5.64
-4.81
-4.00
-3.04
-1.87
-0.46
1.07
2.63
4.15
5.59
6.86
7.89
8.58
8.96
9.12
9.24
9.49
9.91
10.45
10.96
11.29
11.39
11.24
10.88
10.37
9.74
8.97
8.02
6.85
5.47
3.93
2.35
0.87
-0.44
-1.56
-2.58
-3.57
-4.58
-5.58
-6.58
-7.68
-9.00
-10.60
-12.37
-13.96
-14.92
-14.93
-13.96
-12.32
-10.49
-8.92
-7.80
-7.06
-6.44
-5.70
-4.76
-3.69
-2.64
-1.74
-1.03
-0.55
-0.26
-0.13
-0.07
0.07
0.50
1.35
2.64
4.18
5.62
6.61
6.89
6.45
5.45
4.23
3.06
2.20
1.72
1.60
1.72
1.93
2.11
2.16
2.07
1.88
1.65
1.37
1.05
0.62
0.02
-0.77
-1.76
-2.91
-4.21
-5.50
-6.58
-7.17
-6.99
-5.98
-4.26
-2.20
-0.16
1.57
2.99
4.22
5.36
6.41
7.14
7.34
6.89
5.92
4.72
3.62
2.85
2.47
2.41
2.58
2.91
3.40
4.05
4.80
5.55
6.10
6.33
6.18
5.70
5.06
4.45
4.02
3.81
3.76
3.75
3.67
3.44
3.04
2.47
1.67
0.63
-0.71
-2.34
-4.28
-6.50
-8.95
-11.55
-14.05
-16.21
-17.70
-18.32
-17.95
-16.65
-14.58
-12.00
-9.18
-6.36
-3.76
-1.50
0.42
2.06
3.53
4.94
6.29
7.50
8.39
8.84
8.84
8.51
8.12
7.94
8.09
8.52
9.01
9.29
9.19
8.77
8.25
7.87
7.70
7.62
7.34
6.65
5.54
4.25
3.12
2.39
2.03
1.79
1.34
0.49
-0.76
-2.20
-3.63
-4.96
-6.25
-7.61
-9.10
-10.64
-12.04
-13.09
-13.61
-13.48
-12.64
-11.05
-8.81
-6.10
-3.25
-0.62
1.48
2.91
3.71
4.09
4.27
4.44
4.71
5.13
5.74
6.58
7.62
8.70
9.63
10.23
10.48
10.49
10.45
10.52
10.62
10.53
9.97
8.86
7.32
5.73
4.44
3.62
3.14
2.68
1.91
0.67
-0.94
-2.66
-4.22
-5.49
-6.46
-7.21
-7.84
-8.36
-8.77
-9.08
-9.40
-9.83
-10.41
-10.98
-11.21
-10.74
-9.33
-7.02
-4.13
-1.09
1.65
3.85
5.47
6.65
7.51
8.09
8.37
8.29
7.90
7.35
6.84
6.48
6.29
6.15
5.89
5.46
4.92
4.47
4.31
4.58
5.22
6.05
6.78
7.21
7.27
7.08
6.81
6.61
6.46
6.19
5.58
4.54
3.17
1.72
0.49
-0.38
-0.97
-1.49
-2.16
-3.12
-4.33
-5.72
-7.22
-8.82
-10.46
-12.03
-13.28
-13.96
-13.84
-12.83
-10.99
-8.50
-5.62
-2.66
0.08
2.33
3.95
5.01
5.67
6.22
6.89
7.82
8.97
10.25
11.48
12.51
13.22
13.46
13.12
12.15
10.59
8.58
6.35
4.13
2.09
0.36
-1.01
-2.03
-2.75
-3.28
-3.76
-4.33
-5.09
-6.01
-6.97
-7.74
-8.12
-7.98
-7.40
-6.63
-6.02
-5.85
-6.26
-7.11
-8.07
-8.79
-8.98
-8.50
-7.41
-5.85
-4.00
-2.07
-0.25
1.28
2.31
2.76
2.65
2.13
1.45
0.83
0.43
0.27
0.32
0.50
0.77
1.12
1.56
2.10
2.72
3.42
4.12
4.78
5.28
5.54
5.48
5.09
4.42
3.55
2.61
1.71
0.99
0.52
0.30
0.21
0.05
-0.38
-1.21
-2.40
-3.84
-5.35
-6.79
-8.12
-9.35
-10.47
-11.38
-11.93
-11.92
-11.22
-9.83
-7.93
-5.76
-3.59
-1.65
-0.09
1.07
1.83
2.21
2.24
1.98
1.60
1.29
1.25
1.60
2.30
3.23
4.22
5.15
5.96
6.71
7.43
8.16
8.87
9.48
9.85
9.82
9.28
8.24
6.78
5.08
3.30
1.49
-0.34
-2.19
-4.07
-5.93
-7.75
-9.57
-11.40
-13.16
-14.60
-15.34
-15.08
-13.72
-11.49
-8.79
-6.05
-3.54
-1.30
0.70
2.44
3.87
4.91
5.50
5.74
5.73
5.56
5.26
4.82
4.28
3.70
3.17
2.78
2.57
2.48
2.49
2.58
2.74
2.94
3.07
3.03
2.71
2.13
1.40
0.69
0.07
-0.55
-1.33
-2.49
-4.07
-5.93
-7.85
-9.55
-10.88
-11.78
-12.25
-12.21
-11.57
-10.28
-8.41
-6.20
-3.94
-1.85
0.01
1.63
3.03
4.12
4.74
4.86
4.64
4.41
4.56
5.33
6.61
8.06
9.23
9.87
9.98
9.79
9.58
9.49
9.41
9.12
8.41
7.25
5.81
4.36
3.06
1.92
0.81
-0.40
-1.71
-2.98
-4.02
-4.77
-5.33
-5.97
-6.97
-8.45
-10.30
-12.19
-13.70
-14.42
-14.10
-12.72
-10.46
-7.67
-4.75
-2.03
0.30
2.21
3.80
5.14
6.29
7.27
8.09
8.82
9.56
10.40
11.30
12.09
12.53
12.46
11.92
11.14
10.48
10.21
10.40
10.87
11.29
11.38
11.00
10.20
9.15
7.99
6.80
5.56
4.27
2.92
1.55
0.19
-1.16
-2.51
-3.83
-5.04
-6.00
-6.57
-6.76
-6.73
-6.77
-7.27
-8.48
-10.44
-12.91
-15.38
-17.24
-17.95
-17.24
-15.17
-12.10
-8.59
-5.18
-2.28
-0.12
1.35
2.31
3.05
3.79
4.67
5.69
6.77
7.79
8.69
9.50
10.26
11.05
11.84
12.60
13.17
13.44
13.27
12.61
11.54
10.19
8.77
7.50
6.51
5.82
5.33
4.91
4.39
3.69
2.74
1.57
0.22
-1.21
-2.58
-3.71
-4.48
-4.82
-4.84
-4.74
-4.78
-5.17
-6.01
-7.30
-8.98
-10.92
-12.91
-14.71
-16.03
-16.60
-16.32
-15.27
-13.65
-11.71
-9.59
-7.26
-4.71
-2.02
0.54
2.62
3.95
4.56
4.77
5.06
5.71
6.76
7.94
8.95
9.61
9.95
10.11
10.21
10.21
9.99
9.52
8.89
8.36
8.09
8.03
7.88
7.24
5.93
4.14
2.39
1.28
1.19
2.06
3.43
4.68
5.28
4.97
3.77
1.94
-0.20
-2.40
-4.46
-6.31
-7.96
-9.48
-10.93
-12.32
-13.56
-14.46
-14.83
-14.51
-13.43
-11.63
-9.24
-6.48
-3.61
-0.87
1.52
3.49
5.11
6.51
7.78
8.86
9.47
9.28
8.06
5.88
3.11
0.33
-1.91
-3.33
-3.94
-3.97
-3.70
-3.36
-2.99
-2.60
-2.22
-1.94
-1.89
-2.14
-2.66
-3.30
-3.85
-4.18
-4.26
-4.15
-3.98
-3.88
-3.92
-4.14
-4.56
-5.17
-5.95
-6.88
-7.95
-9.18
-10.59
-12.18
-13.87
-15.43
-16.60
-17.08
-16.75
-15.66
-14.01
-12.08
-10.11
-8.16
-6.19
-4.14
-1.96
0.22
2.17
3.63
4.43
4.57
4.25
3.73
3.27
3.00
2.93
3.00
3.12
3.29
3.55
3.97
4.56
5.21
5.72
5.87
5.54
4.77
3.77
2.82
2.15
1.81
1.66
1.47
1.01
0.22
-0.78
-1.78
-2.61
-3.29
-3.96
-4.83
-5.97
-7.31
-8.59
-9.54
-9.95
-9.78
-9.12
-8.16
-7.04
-5.87
-4.73
-3.69
-2.82
-2.10
-1.44
-0.69
0.26
1.34
2.34
2.99
3.13
2.84
2.40
2.15
2.28
2.76
3.33
3.75
3.85
3.72
3.50
3.39
3.48
3.79
4.22
4.65
4.91
4.83
4.24
3.12
1.61
-0.01
-1.40
-2.40
-3.02
-3.48
-4.05
-4.91
-6.02
-7.20
-8.21
-8.85
-9.08
-8.89
-8.32
-7.39
-6.15
-4.68
-3.14
-1.73
-0.64
0.11
0.58
0.91
1.17
1.35
1.39
1.29
1.12
1.09
1.40
2.13
3.17
4.30
5.24
5.82
5.99
5.84
5.53
5.18
4.91
4.79
4.83
4.96
5.03
4.79
4.05
2.75
1.04
-0.86
-2.73
-4.48
-6.15
-7.74
-9.14
-10.15
-10.55
-10.28
-9.47
-8.35
-7.07
-5.58
-3.72
-1.39
1.27
3.84
5.86
7.05
7.42
7.27
6.93
6.64
6.49
6.52
6.71
7.10
7.66
8.24
8.64
8.64
8.21
7.46
6.61
5.88
5.32
4.87
4.42
3.89
3.26
2.58
1.90
1.20
0.50
-0.21
-0.88
-1.50
-2.08
-2.68
-3.44
-4.41
-5.61
-6.85
-7.89
-8.41
-8.21
-7.22
-5.54
-3.41
-1.11
1.10
3.04
4.64
5.89
6.88
7.69
8.41
9.00
9.38
9.44
9.14
8.59
8.05
7.82
8.09
8.86
9.92
11.00
11.89
12.56
13.07
13.50
13.87
14.02
13.75
12.90
11.43
9.54
7.56
5.81
4.46
3.51
2.78
2.07
1.27
0.35
-0.58
-1.40
-2.06
-2.52
-2.76
-2.65
-1.98
-0.59
1.56
4.22
6.99
9.39
11.03
11.69
11.29
9.89
7.62
4.67
1.37
-1.94
-4.91
-7.28
-8.97
-10.05
-10.69
-11.04
-11.24
-11.35
-11.41
-11.33
-11.02
-10.33
-9.20
-7.72
-6.20
-5.01
-4.45
-4.60
-5.27
-6.09
-6.67
-6.77
-6.37
-5.60
-4.69
-3.91
-3.50
-3.67
-4.54
-6.07
-8.05
-10.10
-11.81
-12.85
-13.10
-12.62
-11.56
-10.04
-8.10
-5.80
-3.27
-0.79
1.30
2.69
3.31
3.32
3.03
2.74
2.60
2.59
2.59
2.49
2.30
2.11
2.08
2.31
2.86
3.60
4.28
4.60
4.31
3.38
2.02
0.62
-0.40
-0.83
-0.73
-0.40
-0.21
-0.47
-1.27
-2.62
-4.48
-6.79
-9.36
-11.85
-13.74
-14.53
-13.92
-12.06
-9.48
-6.90
-4.86
-3.52
-2.62
-1.72
-0.50
1.03
2.59
3.80
4.38
4.35
3.93
3.39
2.96
2.69
2.54
2.48
2.49
2.58
2.74
2.85
2.73
2.21
1.27
0.06
-1.12
-1.96
-2.32
-2.29
-2.18
-2.35
-3.01
-4.18
-5.65
-7.11
-8.35
-9.31
-10.13
-11.00
-11.95
-12.85
-13.39
-13.24
-12.23
-10.38
-7.93
-5.23
-2.60
-0.24
1.73
3.26
4.28
4.76
4.76
4.47
4.20
4.22
4.72
5.62
6.71
7.66
8.23
8.33
7.99
7.35
6.56
5.70
4.85
4.04
3.33
2.73
2.24
1.77
1.30
0.81
0.35
-0.06
-0.46
-1.00
-1.83
-3.06
-4.64
-6.35
-7.92
-9.09
-9.70
-9.68
-9.05
-7.86
-6.13
-3.89
-1.23
1.67
4.52
6.98
8.77
9.74
10.01
9.89
9.69
9.64
9.72
9.75
9.52
8.92
8.08
7.22
6.56
6.22
6.13
6.17
6.23
6.26
6.25
6.18
5.92
5.33
4.28
2.79
1.00
-0.78
-2.23
-3.17
-3.54
-3.55
-3.52
-3.80
-4.60
-5.96
-7.66
-9.33
-10.56
-11.04
-10.66
-9.51
-7.83
-5.86
-3.78
-1.68
0.42
2.47
4.37
5.99
7.26
8.18
8.80
9.19
9.30
9.07
8.46
7.59
6.73
6.24
6.36
7.12
8.28
9.46
10.29
10.54
10.20
9.38
8.29
7.10
5.95
4.92
4.07
3.44
3.03
2.79
2.55
2.19
1.55
0.54
-0.85
-2.55
-4.44
-6.31
-7.92
-8.99
-9.34
-8.87
-7.69
-6.01
-4.10
-2.16
-0.30
1.44
3.00
4.24
4.99
5.08
4.52
3.50
2.36
1.49
1.13
1.37
2.08
2.99
3.82
4.36
4.50
4.30
3.88
3.40
3.00
2.81
2.85
3.12
3.54
4.01
4.46
4.76
4.80
4.45
3.69
2.54
1.13
-0.37
-1.82
-3.15
-4.41
-5.73
-7.21
-8.90
-10.70
-12.43
-13.84
-14.69
-14.82
-14.15
-12.73
-10.70
-8.29
-5.74
-3.28
-1.02
0.97
2.72
4.27
5.59
6.62
7.26
7.46
7.27
6.84
6.45
6.29
6.52
7.05
7.70
8.17
8.29
7.99
7.42
6.76
6.19
5.76
5.42
5.01
4.38
3.40
2.05
0.45
-1.24
-2.81
-4.11
-5.13
-5.97
-6.78
-7.62
-8.43
-9.00
-9.17
-8.88
-8.33
-7.83
-7.68
-7.96
-8.56
-9.18
-9.49
-9.30
-8.58
-7.44
-6.03
-4.39
-2.50
-0.27
2.31
5.13
7.90
10.28
11.93
12.66
12.48
11.56
10.14
8.48
6.79
5.20
3.84
2.74
1.93
1.34
0.86
0.38
-0.20
-0.88
-1.67
-2.48
-3.19
-3.69
-3.90
-3.77
-3.40
-2.92
-2.46
-2.13
-1.94
-1.83
-1.78
-1.79
-1.94
-2.29
-2.85
-3.52
-4.22
-4.87
-5.49
-6.08
-6.64
-7.05
-7.13
-6.73
-5.83
-4.51
-2.99
-1.48
-0.13
1.01
1.90
2.61
3.17
3.64
4.01
4.31
4.51
4.57
4.47
4.20
3.81
3.40
3.03
2.77
2.61
2.49
2.32
2.01
1.58
1.07
0.60
0.21
-0.08
-0.37
-0.76
-1.27
-1.85
-2.34
-2.60
-2.56
-2.31
-2.04
-2.02
-2.44
-3.39
-4.80
-6.46
-8.09
-9.42
-10.19
-10.33
-9.83
-8.81
-7.45
-5.93
-4.38
-2.90
-1.52
-0.28
0.75
1.55
2.17
2.72
3.35
4.10
4.90
5.57
5.93
5.96
5.81
5.68
5.72
5.85
5.81
5.41
4.57
3.47
2.37
1.46
0.78
0.18
-0.47
-1.21
-1.93
-2.47
-2.68
-2.57
-2.23
-1.84
-1.56
-1.50
-1.71
-2.21
-3.00
-4.03
-5.20
-6.36
-7.35
-8.02
-8.26
-8.10
-7.57
-6.77
-5.78
-4.61
-3.26
-1.75
-0.19
1.30
2.57
3.58
4.43
5.27
6.19
7.13
7.90
8.33
8.39
8.24
8.15
8.35
8.85
9.45
9.80
9.62
8.83
7.55
6.02
4.48
3.06
1.74
0.47
-0.78
-1.96
-2.94
-3.63
-4.04
-4.28
-4.53
-4.92
-5.46
-6.06
-6.57
-6.91
-7.12
-7.30
-7.56
-7.92
-8.22
-8.21
-7.66
-6.45
-4.69
-2.63
-0.60
1.13
2.45
3.42
4.17
4.83
5.42
5.80
5.82
5.38
4.55
3.52
2.57
1.90
1.60
1.64
1.89
2.23
2.54
2.77
2.94
3.09
3.26
3.48
3.72
3.92
4.06
4.13
4.18
4.21
4.17
3.89
3.21
2.08
0.63
-0.85
-2.02
-2.70
-2.96
-3.06
-3.33
-3.93
-4.82
-5.82
-6.73
-7.43
-7.94
-8.32
-8.54
-8.51
-8.08
-7.14
-5.77
-4.14
-2.52
-1.12
-0.02
0.77
1.32
1.70
1.96
2.11
2.14
1.97
1.51
0.71
-0.34
-1.43
-2.28
-2.60
-2.31
-1.49
-0.36
0.80
1.87
2.80
3.65
4.39
4.96
5.19
5.03
4.55
3.99
3.57
3.43
3.46
3.42
3.04
2.20
1.00
-0.32
-1.56
-2.67
-3.74
-4.91
-6.20
-7.45
-8.41
-8.82
-8.59
-7.80
-6.59
-5.12
-3.47
-1.72
0.00
1.52
2.66
3.32
3.55
3.54
3.54
3.69
4.05
4.51
4.97
5.32
5.54
5.64
5.65
5.52
5.18
4.51
3.45
2.09
0.62
-0.65
-1.47
-1.71
-1.41
-0.80
-0.13
0.39
0.67
0.68
0.43
-0.18
-1.19
-2.62
-4.31
-6.03
-7.55
-8.68
-9.35
-9.58
-9.38
-8.76
-7.76
-6.50
-5.15
-3.92
-2.94
-2.18
-1.51
-0.76
0.19
1.32
2.48
3.48
4.12
4.35
4.24
3.99
3.86
4.03
4.52
5.20
5.86
6.32
6.51
6.51
6.46
6.45
6.50
6.54
6.46
6.16
5.56
4.68
3.55
2.23
0.81
-0.60
-1.94
-3.15
-4.21
-5.12
-5.94
-6.72
-7.50
-8.32
-9.15
-9.93
-10.59
-11.02
-11.15
-10.86
-10.06
-8.70
-6.86
-4.71
-2.51
-0.53
1.08
2.24
2.99
3.34
3.35
3.05
2.53
1.97
1.58
1.58
2.01
2.78
3.66
4.39
4.81
4.90
4.75
4.47
4.17
3.93
3.78
3.73
3.71
3.62
3.36
2.86
2.18
1.42
0.68
-0.02
-0.73
-1.52
-2.43
-3.40
-4.33
-5.14
-5.88
-6.65
-7.57
-8.61
-9.57
-10.16
-10.13
-9.36
-7.92
-6.01
-3.87
-1.70
0.37
2.22
3.74
4.81
5.37
5.46
5.16
4.62
3.98
3.30
2.64
1.99
1.34
0.76
0.31
0.16
0.39
1.04
1.97
2.96
3.71
4.05
3.98
3.71
3.50
3.57
3.90
4.29
4.47
4.21
3.46
2.33
0.99
-0.37
-1.68
-2.93
-4.21
-5.58
-7.05
-8.57
-10.01
-11.18
-11.91
-12.05
-11.51
-10.28
-8.46
-6.26
-3.93
-1.77
0.02
1.32
2.12
2.50
2.58
2.53
2.52
2.70
3.17
3.92
4.78
5.53
5.97
6.03
5.82
5.61
5.61
5.88
6.24
6.43
6.24
5.61
4.66
3.60
2.59
1.68
0.83
0.02
-0.76
-1.43
-1.95
-2.32
-2.63
-2.98
-3.42
-3.96
-4.55
-5.12
-5.69
-6.33
-7.07
-7.92
-8.79
-9.49
-9.82
-9.61
-8.82
-7.53
-5.97
-4.41
-3.01
-1.87
-0.91
-0.03
0.88
1.86
2.85
3.75
4.45
4.94
5.27
5.56
5.90
6.31
6.71
6.93
6.85
6.37
5.55
4.54
3.52
2.64
2.01
1.73
1.87
2.50
3.65
5.23
7.00
8.64
9.87
10.49
10.49
9.91
8.85
7.36
5.47
3.28
0.98
-1.17
-2.89
-4.01
-4.54
-4.67
-4.63
-4.60
-4.67
-4.86
-5.15
-5.57
-6.17
-7.02
-8.05
-9.09
-9.88
-10.17
-9.76
-8.62
-6.84
-4.66
-2.32
-0.04
2.08
4.07
6.06
8.22
10.68
13.41
16.23
18.89
21.09
22.59
23.22
22.96
21.87
20.08
17.83
15.34
12.82
10.43
8.21
6.16
4.22
2.37
0.60
-1.03
-2.47
-3.65
-4.52
-5.04
-5.10
-4.61
-3.45
-1.66
0.59
2.86
4.62
5.32
4.65
2.67
-0.23
-3.47
-6.53
-9.05
-10.83
-11.77
-11.76
-10.75
-8.89
-6.58
-4.41
-2.96
-2.55
-3.04
-4.00
-4.91
-5.42
-5.50
-5.36
-5.29
-5.43
-5.85
-6.46
-7.18
-7.89
-8.52
-8.89
-8.87
-8.38
-7.59
-6.90
-6.90
-8.15
-10.93
-15.10
-20.12
-25.17
-29.42
-32.14
-32.87
-31.46
-28.12
-23.40
-18.13
-13.20
-9.30
-6.75
-5.39
-4.78
-4.38
-3.89
-3.23
-2.54
-1.89
-1.23
-0.33
1.08
3.06
5.45
7.87
9.89
11.22
11.75
11.59
10.90
9.84
8.60
7.37
6.36
5.81
5.84
6.41
7.25
7.92
8.02
7.29
5.76
3.74
1.67
-0.07
-1.28
-2.00
-2.47
-2.94
-3.57
-4.35
-5.17
-5.88
-6.33
-6.35
-5.67
-4.07
-1.43
2.03
5.78
9.08
11.37
12.45
12.64
12.58
12.90
13.93
15.57
17.37
18.80
19.51
19.42
18.68
17.44
15.78
13.60
10.81
7.40
3.64
0.01
-3.01
-5.10
-6.25
-6.71
-6.84
-6.90
-6.94
-6.92
-6.74
-6.44
-6.10
-5.84
-5.70
-5.62
-5.50
-5.24
-4.85
-4.44
-4.13
-4.06
-4.25
-4.67
-5.25
-5.91
-6.56
-7.08
-7.35
-7.27
-6.75
-5.79
-4.46
-2.89
-1.24
0.34
1.71
2.81
3.63
4.28
4.88
5.55
6.31
7.08
7.70
8.05
8.13
8.04
7.97
8.05
8.38
8.92
9.57
10.15
10.50
10.44
9.89
8.86
7.51
6.14
5.03
4.35
4.10
4.03
3.87
3.35
2.35
0.93
-0.78
-2.57
-4.28
-5.81
-7.13
-8.24
-9.18
-9.95
-10.56
-10.99
-11.14
-10.89
-10.15
-8.89
-7.18
-5.19
-3.11
-1.09
0.76
2.38
3.73
4.73
5.38
5.70
5.75
5.63
5.44
5.24
5.06
4.95
4.95
5.09
5.33
5.56
5.64
5.47
5.06
4.53
4.06
3.77
3.72
3.86
4.06
4.23
4.32
4.32
4.21
4.00
3.65
3.15
2.53
1.84
1.13
0.41
-0.42
-1.51
-2.96
-4.78
-6.73
-8.45
-9.49
-9.55
-8.60
-6.92
-5.00
-3.27
-1.99
-1.14
-0.55
-0.06
0.32
0.44
0.13
-0.60
-1.51
-2.17
-2.21
-1.54
-0.42
0.71
1.47
1.75
1.76
1.86
2.35
3.30
4.55
5.77
6.68
7.14
7.16
6.84
6.27
5.53
4.67
3.79
2.95
2.21
1.53
0.80
-0.14
-1.47
-3.25
-5.40
-7.68
-9.73
-11.19
-11.82
-11.62
-10.75
-9.47
-7.99
-6.42
-4.70
-2.78
-0.67
1.42
3.23
4.56
5.37
5.83
6.19
6.60
7.03
7.33
7.29
6.85
6.12
5.28
4.53
4.00
3.68
3.47
3.31
3.15
2.96
2.70
2.32
1.75
0.95
-0.04
-1.10
-2.05
-2.76
-3.18
-3.45
-3.86
-4.67
-6.01
-7.71
-9.40
-10.60
-11.03
-10.65
-9.63
-8.19
-6.50
-4.58
-2.45
-0.23
1.85
3.47
4.46
4.82
4.76
4.58
4.53
4.74
5.20
5.77
6.25
6.47
6.37
5.98
5.47
5.03
4.77
4.66
4.57
4.31
3.78
2.96
2.00
1.07
0.31
-0.26
-0.67
-1.07
-1.60
-2.34
-3.32
-4.54
-5.90
-7.33
-8.71
-9.86
-10.57
-10.62
-9.83
-8.19
-5.87
-3.27
-0.81
1.15
2.47
3.25
3.70
3.96
4.07
3.92
3.37
2.41
1.24
0.15
-0.56
-0.73
-0.42
0.11
0.57
0.78
0.72
0.55
0.45
0.52
0.68
0.73
0.50
-0.05
-0.75
-1.33
-1.58
-1.48
-1.19
-1.02
-1.19
-1.70
-2.42
-3.10
-3.55
-3.73
-3.60
-3.17
-2.40
-1.28
0.08
1.51
2.78
3.74
4.39
4.85
5.19
5.39
5.32
4.87
4.06
3.07
2.16
1.52
1.18
0.98
0.77
0.48
0.16
-0.04
-0.04
0.09
0.15
-0.10
-0.78
-1.82
-2.97
-3.95
-4.55
-4.77
-4.86
-5.16
-5.96
-7.31
-8.97
-10.48
-11.35
-11.35
-10.48
-9.02
-7.35
-5.78
-4.48
-3.47
-2.70
-2.07
-1.53
-1.00
-0.42
0.29
1.17
2.17
3.19
4.03
4.53
4.62
4.34
3.87
3.44
3.23
3.29
3.53
3.79
3.93
3.84
3.46
2.75
1.68
0.29
-1.26
-2.77
-4.05
-5.08
-6.04
-7.15
-8.53
-10.00
-11.25
-11.90
-11.76
-10.85
-9.37
-7.51
-5.38
-3.09
-0.75
1.38
2.98
3.84
3.97
3.69
3.42
3.48
3.98
4.78
5.63
6.35
6.90
7.37
7.88
8.49
9.17
9.78
10.16
10.21
9.88
9.20
8.25
7.08
5.74
4.26
2.70
1.16
-0.25
-1.43
-2.35
-3.12
-3.95
-5.09
-6.72
-8.82
-11.13
-13.20
-14.55
-14.83
-13.94
-12.07
-9.59
-6.92
-4.42
-2.27
-0.44
1.17
2.71
4.20
5.53
6.50
6.98
6.97
6.68
6.42
6.47
6.96
7.84
8.97
10.21
11.50
12.74
13.80
14.46
14.49
13.85
12.75
11.58
10.76
10.40
10.29
9.89
8.75
6.69
3.96
1.06
-1.55
-3.68
-5.43
-6.98
-8.42
-9.66
-10.59
-11.19
-11.70
-12.44
-13.63
-15.10
-16.34
-16.69
-15.66
-13.19
-9.65
-5.66
-1.81
1.45
3.93
5.63
6.67
7.24
7.54
7.82
8.23
8.79
9.43
10.04
10.59
11.10
11.70
12.41
13.19
13.87
14.26
14.29
14.00
13.54
13.06
12.66
12.31
11.90
11.30
10.41
9.16
7.59
5.82
4.01
2.34
0.92
-0.25
-1.26
-2.26
-3.31
-4.45
-5.65
-6.87
-8.13
-9.43
-10.76
-11.98
-12.88
-13.23
-12.88
-11.84
-10.31
-8.52
-6.63
-4.67
-2.57
-0.29
2.13
4.49
6.54
8.11
9.16
9.78
10.07
10.12
9.94
9.52
8.95
8.36
7.94
7.77
7.82
7.89
7.69
7.06
5.97
4.64
3.37
2.47
2.04
1.94
1.93
1.70
1.12
0.22
-0.81
-1.73
-2.42
-2.86
-3.15
-3.43
-3.83
-4.44
-5.34
-6.56
-8.07
-9.74
-11.33
-12.58
-13.27
-13.29
-12.71
-11.68
-10.35
-8.87
-7.23
-5.44
-3.43
-1.25
0.96
2.99
4.60
5.66
6.16
6.25
6.16
6.06
6.06
6.15
6.26
6.34
6.45
6.66
7.02
7.39
7.55
7.21
6.24
4.77
3.13
1.71
0.73
0.13
-0.30
-0.83
-1.56
-2.42
-3.22
-3.91
-4.55
-5.32
-6.40
-7.82
-9.47
-11.12
-12.52
-13.47
-13.78
-13.32
-12.06
-10.07
-7.60
-5.00
-2.58
-0.54
1.08
2.37
3.43
4.32
5.02
5.44
5.58
5.46
5.21
4.94
4.75
4.69
4.74
4.90
5.18
5.54
5.93
6.27
6.51
6.60
6.58
6.50
6.41
6.30
6.08
5.64
4.93
3.97
2.86
1.71
0.64
-0.37
-1.42
-2.66
-4.16
-5.93
-7.84
-9.64
-11.09
-11.98
-12.23
-11.85
-10.98
-9.73
-8.23
-6.57
-4.83
-3.07
-1.39
0.14
1.41
2.37
2.95
3.17
3.13
3.02
2.98
3.12
3.37
3.64
3.83
3.95
4.08
4.34
4.76
5.21
5.50
5.48
5.13
4.54
3.85
3.13
2.36
1.48
0.47
-0.56
-1.48
-2.17
-2.65
-3.03
-3.47
-4.03
-4.70
-5.39
-6.07
-6.81
-7.72
-8.91
-10.34
-11.84
-13.11
-13.85
-13.92
-13.30
-12.15
-10.70
-9.10
-7.43
-5.75
-4.12
-2.64
-1.44
-0.60
-0.12
0.09
0.14
0.12
0.05
-0.06
-0.14
-0.11
0.11
0.56
1.15
1.81
2.45
3.10
3.76
4.45
5.03
5.34
5.23
4.65
3.73
2.60
1.47
0.46
-0.35
-0.92
-1.26
-1.47
-1.72
-2.20
-3.00
-4.06
-5.19
-6.15
-6.75
-6.95
-6.79
-6.35
-5.60
-4.49
-3.03
-1.35
0.29
1.61
2.42
2.75
2.78
2.72
2.76
2.92
3.17
3.47
3.77
4.06
4.32
4.43
4.31
3.94
3.43
3.00
2.85
3.06
3.52
4.01
4.30
4.27
3.90
3.23
2.35
1.26
0.05
-1.18
-2.27
-3.13
-3.80
-4.47
-5.35
-6.50
-7.75
-8.77
-9.17
-8.80
-7.72
-6.16
-4.36
-2.46
-0.51
1.47
3.34
4.90
5.87
6.08
5.59
4.64
3.57
2.68
2.07
1.73
1.58
1.53
1.58
1.74
2.01
2.31
2.54
2.56
2.32
1.82
1.10
0.23
-0.73
-1.69
-2.53
-3.11
-3.38
-3.40
-3.35
-3.45
-3.82
-4.47
-5.28
-6.11
-6.84
-7.44
-7.92
-8.27
-8.39
-8.16
-7.45
-6.27
-4.69
-2.91
-1.13
0.52
1.94
3.04
3.77
4.12
4.15
4.03
4.01
4.25
4.75
5.37
5.82
5.91
5.54
4.78
3.77
2.63
1.43
0.21
-0.95
-1.93
-2.61
-2.91
-2.92
-2.87
-2.99
-3.46
-4.33
-5.51
-6.79
-7.93
-8.70
-8.89
-8.39
-7.19
-5.48
-3.54
-1.69
-0.19
0.87
1.55
2.04
2.50
3.06
3.70
4.31
4.79
5.06
5.09
4.91
4.55
4.02
3.39
2.75
2.23
1.94
1.93
2.10
2.25
2.15
1.64
0.75
-0.30
-1.21
-1.75
-1.84
-1.61
-1.30
-1.16
-1.34
-1.87
-2.65
-3.50
-4.26
-4.76
-4.84
-4.35
-3.20
-1.35
1.03
3.64
6.08
7.94
8.93
9.06
8.58
7.84
7.19
6.79
6.62
6.59
6.59
6.63
6.73
6.89
7.06
7.15
7.08
6.91
6.76
6.76
6.91
7.06
6.99
6.51
5.65
4.60
3.66
3.03
2.74
2.64
2.43
1.85
0.79
-0.69
-2.34
-3.89
-5.05
-5.63
-5.58
-4.93
-3.77
-2.30
-0.71
0.85
2.26
3.46
4.42
5.11
5.52
5.67
5.61
5.48
5.43
5.56
5.88
6.29
6.61
6.70
6.50
6.11
5.73
5.54
5.65
6.04
6.62
7.26
7.81
8.19
8.37
8.34
8.13
7.76
7.28
6.71
6.10
5.51
5.04
4.80
4.85
5.19
5.79
6.57
7.48
8.51
9.74
11.24
13.00
14.87
16.48
17.39
17.15
15.53
12.55
8.54
3.93
-0.87
-5.62
-10.27
-14.79
-19.04
-22.72
-25.51
-27.20
-27.83
-27.65
-26.94
-25.86
-24.36
-22.31
-19.68
-16.66
-13.63
-11.04
-9.17
-8.08
-7.60
-7.48
-7.53
-7.66
-7.82
-8.03
-8.23
-8.36
-8.34
-8.13
-7.70
-7.05
-6.18
-5.07
-3.77
-2.43
-1.25
-0.44
-0.11
-0.19
-0.42
-0.57
-0.48
-0.22
0.04
0.09
-0.09
-0.40
-0.61
-0.49
0.02
0.81
1.60
2.16
2.37
2.25
2.00
1.86
2.00
2.42
2.96
3.31
3.23
2.62
1.53
0.18
-1.21
-2.44
-3.41
-4.06
-4.32
-4.10
-3.34
-2.11
-0.59
0.91
2.15
3.02
3.60
4.09
4.58
5.05
5.33
5.30
4.99
4.60
4.42
4.60
5.07
5.56
5.77
5.59
5.16
4.73
4.54
4.60
4.74
4.69
4.26
3.49
2.58
1.82
1.34
1.11
0.93
0.55
-0.14
-1.10
-2.16
-3.10
-3.83
-4.30
-4.55
-4.63
-4.51
-4.15
-3.52
-2.63
-1.61
-0.60
0.21
0.68
0.78
0.55
0.12
-0.32
-0.57
-0.58
-0.44
-0.36
-0.52
-0.96
-1.56
-2.07
-2.29
-2.23
-2.04
-1.99
-2.20
-2.69
-3.31
-3.93
-4.51
-5.14
-5.87
-6.72
-7.56
-8.29
-8.86
-9.39
-10.05
-10.99
-12.19
-13.49
-14.63
-15.33
-15.43
-14.93
-13.94
-12.69
-11.45
-10.43
-9.73
-9.35
-9.13
-8.87
-8.36
-7.49
-6.29
-4.92
-3.57
-2.38
-1.45
-0.73
-0.16
0.29
0.68
1.04
1.46
2.02
2.75
3.57
4.28
4.66
4.55
3.99
3.16
2.30
1.56
0.93
0.27
-0.56
-1.61
-2.83
-4.03
-5.05
-5.80
-6.27
-6.47
-6.37
-5.88
-4.86
-3.29
-1.27
0.98
3.23
5.26
6.97
8.30
9.16
9.44
9.02
7.87
6.13
4.07
1.99
0.09
-1.53
-2.89
-3.98
-4.77
-5.22
-5.34
-5.23
-5.03
-4.91
-4.96
-5.19
-5.56
-5.99
-6.38
-6.61
-6.55
-6.11
-5.32
-4.31
-3.36
-2.71
-2.51
-2.77
-3.37
-4.18
-5.08
-5.99
-6.84
-7.48
-7.74
-7.44
-6.52
-5.06
-3.20
-1.10
1.17
3.61
6.19
8.81
11.26
13.30
14.70
15.47
15.78
15.95
16.32
17.12
18.41
20.11
22.05
24.10
26.14
28.10
29.82
31.07
31.53
31.00
29.46
27.12
24.36
21.55
18.88
16.34
13.86
11.37
8.93
6.68
4.74
3.08
1.59
0.05
-1.64
-3.49
-5.40
-7.19
-8.78
-10.11
-11.25
-12.24
-13.15
-14.03
-14.86
-15.60
-16.22
-16.76
-17.29
-17.94
-18.83
-20.04
-21.55
-23.33
-25.33
-27.55
-29.97
-32.48
-34.85
-36.75
-37.87
-38.08
-37.51
-36.43
-35.16
-33.87
-32.56
-31.14
-29.47
-27.49
-25.22
-22.67
-19.87
-16.83
-13.62
-10.38
-7.38
-4.89
-3.09
-1.98
-1.42
-1.17
-1.04
-0.92
-0.80
-0.71
-0.69
-0.70
-0.66
-0.44
0.07
0.99
2.35
4.16
6.29
8.51
10.59
12.29
13.55
14.43
15.07
15.56
15.88
15.91
15.53
14.76
13.74
12.78
12.17
12.12
12.64
13.50
14.36
14.84
14.65
13.74
12.33
10.76
9.43
8.55
8.12
7.97
7.86
7.62
7.16
6.52
5.76
4.94
4.03
3.03
1.88
0.55
-0.94
-2.54
-4.11
-5.46
-6.43
-6.92
-6.95
-6.56
-5.79
-4.61
-2.94
-0.81
1.56
3.77
5.38
6.12
6.07
5.60
5.24
5.40
6.21
7.49
8.91
10.11
10.89
11.19
11.17
11.01
10.85
10.74
10.59
10.25
9.58
8.54
7.23
5.84
4.58
3.60
2.95
2.54
2.25
1.97
1.56
0.98
0.23
-0.63
-1.49
-2.23
-2.79
-3.22
-3.63
-4.24
-5.16
-6.39
-7.79
-9.07
-9.94
-10.17
-9.72
-8.69
-7.28
-5.70
-4.11
-2.61
-1.28
-0.20
0.55
0.92
1.00
0.98
1.06
1.37
1.88
2.45
2.92
3.20
3.37
3.55
3.86
4.33
4.87
5.42
5.96
6.50
7.10
7.74
8.31
8.64
8.59
8.18
7.51
6.76
6.10
5.60
5.17
4.70
4.07
3.25
2.29
1.27
0.23
-0.91
-2.34
-4.23
-6.63
-9.32
-11.91
-13.92
-14.97
-14.96
-14.01
-12.39
-10.41
-8.28
-6.08
-3.84
-1.63
0.44
2.24
3.66
4.65
5.25
5.57
5.74
5.91
6.18
6.58
7.11
7.75
8.50
9.37
10.34
11.28
11.98
12.17
11.68
10.55
9.05
7.49
6.13
5.07
4.22
3.42
2.61
1.80
1.06
0.43
-0.18
-0.91
-1.84
-2.95
-4.12
-5.17
-6.01
-6.71
-7.43
-8.32
-9.34
-10.27
-10.71
-10.35
-9.05
-7.02
-4.65
-2.37
-0.46
0.99
2.09
2.93
3.55
3.94
4.04
3.90
3.65
3.44
3.39
3.54
3.85
4.31
4.92
5.66
6.51
7.37
8.12
8.70
9.12
9.41
9.62
9.73
9.66
9.37
8.85
8.19
7.51
6.87
6.18
5.29
4.06
2.43
0.47
-1.64
-3.70
-5.55
-7.06
-8.16
-8.83
-9.15
-9.27
-9.44
-9.85
-10.52
-11.25
-11.65
-11.35
-10.17
-8.24
-5.90
-3.52
-1.31
0.71
2.61
4.34
5.73
6.54
6.64
6.17
5.46
4.92
4.79
5.08
5.57
6.08
6.49
6.86
7.26
7.71
8.19
8.65
9.06
9.48
9.96
10.48
10.93
11.09
10.79
9.97
8.69
7.13
5.50
3.99
2.67
1.53
0.52
-0.44
-1.40
-2.38
-3.40
-4.48
-5.60
-6.73
-7.81
-8.75
-9.52
-10.21
-10.96
-11.93
-13.12
-14.32
-15.13
-15.10
-13.95
-11.69
-8.59
-5.11
-1.67
1.46
4.15
6.34
7.99
9.03
9.43
9.31
8.90
8.49
8.30
8.36
8.58
8.78
8.85
8.81
8.72
8.70
8.75
8.84
8.88
8.75
8.42
7.88
7.19
6.43
5.71
5.14
4.78
4.60
4.45
4.14
3.55
2.65
1.54
0.37
-0.73
-1.70
-2.50
-3.16
-3.72
-4.21
-4.74
-5.44
-6.40
-7.64
-9.08
-10.49
-11.57
-12.06
-11.83
-10.83
-9.16
-6.99
-4.56
-2.18
-0.12
1.42
2.37
2.86
3.11
3.31
3.58
3.87
4.10
4.21
4.26
4.37
4.67
5.18
5.74
6.21
6.50
6.70
6.99
7.51
8.23
8.92
9.30
9.16
8.55
7.72
6.98
6.52
6.29
6.08
5.62
4.73
3.42
1.88
0.33
-1.07
-2.25
-3.23
-4.11
-4.96
-5.89
-6.99
-8.33
-9.90
-11.56
-13.00
-13.88
-13.95
-13.12
-11.53
-9.46
-7.18
-4.88
-2.69
-0.73
0.86
1.97
2.55
2.70
2.62
2.48
2.34
2.22
2.07
1.96
2.07
2.58
3.54
4.78
5.97
6.81
7.15
7.12
6.98
6.96
7.14
7.37
7.47
7.30
6.83
6.14
5.30
4.27
2.95
1.22
-0.93
-3.42
-6.09
-8.76
-11.34
-13.78
-16.09
-18.25
-20.18
-21.74
-22.78
-23.13
-22.69
-21.39
-19.28
-16.51
-13.27
-9.82
-6.38
-3.13
-0.18
2.36
4.43
5.99
7.03
7.60
7.81
7.80
7.66
7.53
7.49
7.65
8.10
8.87
9.88
10.86
11.49
11.51
10.80
9.47
7.77
5.99
4.27
2.69
1.19
-0.21
-1.43
-2.31
-2.76
-2.84
-2.76
-2.83
-3.29
-4.16
-5.34
-6.66
-7.98
-9.25
-10.53
-11.77
-12.84
-13.47
-13.37
-12.34
-10.43
-7.90
-5.19
-2.75
-0.94
0.09
0.41
0.25
-0.09
-0.36
-0.47
-0.45
-0.39
-0.34
-0.21
0.19
1.06
2.47
4.29
6.18
7.80
8.91
9.50
9.71
9.79
9.92
10.11
10.29
10.26
9.89
9.07
7.80
6.15
4.23
2.23
0.32
-1.36
-2.78
-4.01
-5.28
-6.81
-8.78
-11.18
-13.75
-16.14
-17.92
-18.78
-18.59
-17.36
-15.28
-12.60
-9.62
-6.65
-3.95
-1.69
0.05
1.26
1.99
2.30
2.25
1.99
1.68
1.56
1.81
2.46
3.41
4.46
5.42
6.24
6.94
7.66
8.47
9.32
10.08
10.54
10.54
10.02
9.09
7.93
6.77
5.76
4.95
4.27
3.64
2.99
2.35
1.74
1.15
0.48
-0.47
-1.89
-3.88
-6.40
-9.22
-11.98
-14.33
-15.94
-16.60
-16.28
-15.10
-13.33
-11.26
-9.13
-7.08
-5.15
-3.34
-1.68
-0.21
1.04
2.11
3.08
4.02
4.93
5.75
6.36
6.72
6.87
6.94
7.08
7.33
7.66
7.91
7.97
7.78
7.36
6.84
6.32
5.90
5.59
5.31
4.95
4.39
3.59
2.58
1.44
0.25
-0.95
-2.19
-3.52
-4.91
-6.31
-7.55
-8.52
-9.16
-9.62
-10.12
-10.91
-12.09
-13.52
-14.81
-15.41
-14.90
-13.16
-10.53
-7.63
-5.09
-3.27
-2.15
-1.43
-0.76
0.03
0.90
1.65
2.19
2.62
3.16
4.03
5.25
6.64
7.92
8.88
9.49
9.93
10.38
10.97
11.64
12.19
12.34
11.93
10.93
9.51
7.96
6.51
5.34
4.44
3.73
3.08
2.35
1.45
0.33
-1.01
-2.50
-3.99
-5.34
-6.44
-7.34
-8.23
-9.31
-10.75
-12.50
-14.30
-15.75
-16.47
-16.21
-14.94
-12.79
-10.01
-6.97
-4.01
-1.46
0.48
1.79
2.63
3.24
3.84
4.54
5.34
6.16
6.92
7.56
8.05
8.35
8.42
8.28
7.99
7.66
7.37
7.20
7.13
7.13
7.14
7.14
7.04
6.80
6.39
5.85
5.25
4.69
4.19
3.72
3.25
2.73
2.20
1.68
1.13
0.44
-0.51
-1.78
-3.30
-4.96
-6.65
-8.32
-10.00
-11.69
-13.27
-14.48
-14.99
-14.56
-13.14
-10.88
-8.11
-5.17
-2.36
0.09
2.06
3.50
4.45
5.00
5.30
5.51
5.71
5.94
6.12
6.20
6.13
6.02
6.00
6.23
6.76
7.46
8.10
8.44
8.36
7.91
7.26
6.59
5.96
5.31
4.50
3.44
2.15
0.79
-0.46
-1.44
-2.19
-2.83
-3.54
-4.44
-5.52
-6.73
-8.03
-9.45
-11.08
-12.96
-15.03
-16.99
-18.47
-19.06
-18.58
-17.08
-14.82
-12.13
-9.25
-6.33
-3.36
-0.40
2.44
4.95
6.95
8.36
9.24
9.74
10.00
10.09
10.02
9.76
9.38
9.04
8.97
9.30
10.08
11.15
12.27
13.20
13.73
13.79
13.37
12.51
11.24
9.66
7.85
6.01
4.31
2.91
1.86
1.08
0.39
-0.43
-1.48
-2.76
-4.13
-5.44
-6.59
-7.64
-8.75
-10.07
-11.70
-13.54
-15.33
-16.73
-17.45
-17.26
-16.09
-14.06
-11.42
-8.47
-5.52
-2.83
-0.52
1.35
2.81
3.92
4.81
5.61
6.47
7.44
8.45
9.32
9.85
9.95
9.71
9.38
9.25
9.43
9.83
10.18
10.23
9.87
9.15
8.25
7.39
6.63
5.98
5.37
4.71
3.99
3.26
2.56
1.95
1.40
0.90
0.43
0.04
-0.24
-0.37
-0.46
-0.75
-1.55
-3.11
-5.41
-8.16
-10.83
-12.86
-13.94
-13.98
-13.18
-11.82
-10.15
-8.35
-6.56
-4.86
-3.40
-2.24
-1.40
-0.77
-0.18
0.50
1.34
2.26
3.15
3.93
4.60
5.22
5.87
6.61
7.46
8.42
9.46
10.50
11.39
11.95
12.02
11.55
10.62
9.39
8.06
6.76
5.54
4.44
3.47
2.62
1.89
1.19
0.42
-0.53
-1.65
-2.87
-4.02
-5.01
-5.81
-6.56
-7.48
-8.68
-10.15
-11.64
-12.81
-13.34
-13.02
-11.85
-9.97
-7.60
-4.93
-2.11
0.69
3.29
5.52
7.21
8.29
8.84
9.06
9.17
9.35
9.69
10.18
10.75
11.30
11.79
12.19
12.51
12.77
12.91
12.88
12.63
12.17
11.57
10.87
10.08
9.08
7.73
5.88
3.51
0.74
-2.17
-4.95
-7.37
-9.31
-10.76
-11.78
-12.47
-12.92
-13.24
-13.54
-13.95
-14.60
-15.52
-16.60
-17.57
-18.05
-17.68
-16.30
-14.04
-11.24
-8.33
-5.63
-3.27
-1.19
0.68
2.40
3.87
4.95
5.52
5.61
5.40
5.19
5.28
5.83
6.86
8.17
9.46
10.45
10.94
10.94
10.65
10.40
10.43
10.81
11.40
11.90
11.99
11.50
10.47
9.08
7.56
6.10
4.67
3.19
1.55
-0.23
-2.06
-3.70
-4.98
-5.88
-6.48
-7.03
-7.75
-8.82
-10.23
-11.83
-13.39
-14.64
-15.39
-15.48
-14.88
-13.65
-11.94
-9.97
-7.99
-6.19
-4.67
-3.41
-2.29
-1.19
-0.03
1.15
2.24
3.12
3.75
4.15
4.43
4.70
5.01
5.43
5.96
6.55
7.18
7.76
8.23
8.55
8.68
8.65
8.48
8.19
7.74
7.06
6.13
4.97
3.75
2.64
1.74
1.06
0.50
-0.07
-0.72
-1.42
-2.07
-2.56
-2.83
-2.97
-3.14
-3.53
-4.30
-5.50
-7.13
-9.04
-10.96
-12.61
-13.71
-14.10
-13.73
-12.72
-11.21
-9.42
-7.51
-5.68
-4.13
-3.02
-2.36
-2.01
-1.70
-1.13
-0.23
0.91
1.98
2.69
3.01
3.12
3.39
4.07
5.19
6.49
7.59
8.20
8.19
7.68
6.89
6.05
5.29
4.64
4.03
3.43
2.81
2.19
1.61
1.07
0.51
-0.20
-1.13
-2.29
-3.58
-4.81
-5.82
-6.54
-7.06
-7.52
-8.06
-8.74
-9.58
-10.56
-11.57
-12.46
-13.03
-13.03
-12.32
-10.89
-8.89
-6.56
-4.15
-1.89
0.05
1.50
2.34
2.55
2.26
1.75
1.36
1.34
1.74
2.42
3.14
3.70
3.99
4.00
3.82
3.54
3.29
3.20
3.34
3.71
4.23
4.71
5.00
5.01
4.73
4.24
3.59
2.81
1.93
1.00
0.09
-0.71
-1.37
-1.99
-2.77
-3.87
-5.36
-7.09
-8.77
-10.12
-11.09
-11.82
-12.59
-13.64
-14.93
-16.18
-16.95
-16.92
-16.03
-14.48
-12.56
-10.50
-8.36
-6.10
-3.77
-1.55
0.33
1.70
2.61
3.23
3.77
4.31
4.80
5.18
5.45
5.73
6.18
6.85
7.61
8.26
8.64
8.79
8.84
8.93
9.06
9.09
8.87
8.36
7.68
7.02
6.48
5.99
5.35
4.38
3.08
1.64
0.33
-0.62
-1.20
-1.58
-2.01
-2.74
-3.86
-5.32
-7.00
-8.70
-10.29
-11.66
-12.82
-13.81
-14.73
-15.58
-16.27
-16.54
-16.10
-14.74
-12.56
-9.87
-7.20
-4.98
-3.37
-2.27
-1.37
-0.36
0.86
2.19
3.38
4.24
4.69
4.87
4.96
5.11
5.35
5.59
5.72
5.66
5.47
5.27
5.21
5.38
5.76
6.18
6.45
6.38
5.89
5.01
3.88
2.70
1.67
0.89
0.37
0.01
-0.34
-0.77
-1.33
-2.02
-2.79
-3.64
-4.59
-5.68
-6.88
-8.11
-9.20
-9.93
-10.12
-9.69
-8.64
-7.05
-5.05
-2.83
-0.59
1.41
2.94
3.90
4.32
4.41
4.46
4.67
5.08
5.57
5.96
6.16
6.22
6.29
6.49
6.84
7.24
7.57
7.77
7.84
7.80
7.67
7.44
7.09
6.64
6.13
5.54
4.79
3.80
2.57
1.17
-0.17
-1.28
-2.12
-2.79
-3.47
-4.28
-5.20
-6.12
-6.97
-7.80
-8.75
-9.94
-11.29
-12.49
-13.11
-12.81
-11.50
-9.39
-6.84
-4.21
-1.77
0.38
2.21
3.71
4.85
5.66
6.20
6.61
7.02
7.45
7.81
7.97
7.86
7.59
7.35
7.31
7.54
7.97
8.45
8.92
9.36
9.79
10.19
10.44
10.35
9.80
8.80
7.53
6.23
5.09
4.19
3.49
2.87
2.21
1.46
0.66
-0.15
-0.93
-1.71
-2.59
-3.66
-5.00
-6.49
-7.95
-9.11
-9.71
-9.61
-8.79
-7.37
-5.57
-3.64
-1.80
-0.23
1.04
2.06
2.95
3.79
4.61
5.34
5.89
6.22
6.29
6.19
5.98
5.79
5.74
5.95
6.52
7.47
8.66
9.85
10.77
11.19
11.05
10.41
9.44
8.29
7.06
5.78
4.45
3.06
1.67
0.34
-0.86
-1.90
-2.76
-3.49
-4.09
-4.55
-4.92
-5.31
-5.90
-6.86
-8.22
-9.83
-11.36
-12.45
-12.83
-12.47
-11.51
-10.16
-8.57
-6.77
-4.75
-2.59
-0.47
1.34
2.68
3.55
4.17
4.76
5.39
5.92
6.10
5.76
4.95
3.98
3.21
2.89
3.07
3.57
4.20
4.81
5.33
5.74
5.98
5.96
5.63
5.02
4.24
3.46
2.75
2.10
1.47
0.83
0.24
-0.24
-0.57
-0.82
-1.11
-1.54
-2.12
-2.81
-3.54
-4.25
-4.95
-5.64
-6.29
-6.83
-7.13
-7.12
-6.73
-5.93
-4.72
-3.19
-1.45
0.28
1.74
2.77
3.27
3.33
3.09
2.73
2.41
2.19
2.07
2.04
2.07
2.10
2.12
2.11
2.07
2.04
2.07
2.17
2.28
2.31
2.08
1.42
0.23
-1.48
-3.53
-5.64
-7.51
-8.90
-9.77
-10.23
-10.54
-10.96
-11.71
-12.80
-14.14
-15.48
-16.53
-17.04
-16.87
-15.98
-14.44
-12.35
-9.86
-7.08
-4.12
-1.12
1.78
4.38
6.50
8.04
8.97
9.40
9.47
9.34
9.13
8.90
8.68
8.48
8.31
8.20
8.13
8.08
7.97
7.76
7.41
6.99
6.56
6.14
5.64
4.88
3.72
2.10
0.16
-1.87
-3.71
-5.23
-6.42
-7.40
-8.30
-9.20
-10.08
-10.84
-11.43
-11.79
-11.95
-11.87
-11.48
-10.67
-9.43
-7.85
-6.10
-4.35
-2.71
-1.12
0.45
2.03
3.56
4.95
6.17
7.26
8.33
9.46
10.69
11.87
12.89
13.69
14.26
14.64
14.74
14.38
13.35
11.57
9.17
6.47
3.85
1.65
-0.06
-1.34
-2.41
-3.44
-4.50
-5.57
-6.58
-7.55
-8.57
-9.72
-10.98
-12.22
-13.16
-13.52
-13.21
-12.33
-11.16
-9.94
-8.77
-7.51
-5.95
-3.98
-1.64
0.77
2.89
4.45
5.33
5.61
5.45
5.04
4.52
4.01
3.60
3.39
3.44
3.76
4.34
5.11
5.99
6.81
7.41
7.67
7.55
7.16
6.65
6.15
5.69
5.20
4.57
3.76
2.84
1.95
1.21
0.65
0.20
-0.26
-0.85
-1.62
-2.59
-3.74
-5.10
-6.67
-8.38
-10.09
-11.53
-12.46
-12.68
-12.18
-11.13
-9.78
-8.36
-7.00
-5.72
-4.44
-3.14
-1.84
-0.63
0.36
1.11
1.70
2.22
2.79
3.37
3.86
4.12
4.12
3.93
3.68
3.50
3.41
3.35
3.25
3.05
2.76
2.42
2.05
1.65
1.22
0.82
0.54
0.44
0.49
0.51
0.33
-0.16
-0.90
-1.73
-2.51
-3.22
-4.02
-5.11
-6.62
-8.45
-10.28
-11.66
-12.20
-11.76
-10.44
-8.58
-6.61
-4.84
-3.39
-2.19
-1.06
0.10
1.22
2.06
2.41
2.19
1.56
0.89
0.53
0.68
1.24
1.96
2.59
3.09
3.65
4.55
5.95
7.74
9.56
11.00
11.77
11.83
11.35
10.56
9.61
8.51
7.19
5.63
3.98
2.36
0.92
-0.40
-1.76
-3.33
-5.21
-7.30
-9.39
-11.24
-12.67
-13.55
-13.88
-13.65
-12.85
-11.49
-9.61
-7.32
-4.79
-2.18
0.32
2.58
4.45
5.83
6.64
6.97
6.98
6.94
7.11
7.61
8.39
9.18
9.74
9.93
9.80
9.52
9.33
9.28
9.27
9.14
8.75
8.14
7.40
6.69
6.01
5.28
4.36
3.22
1.94
0.73
-0.21
-0.88
-1.41
-2.09
-3.17
-4.78
-6.88
-9.28
-11.68
-13.78
-15.30
-15.96
-15.60
-14.15
-11.77
-8.77
-5.55
-2.56
-0.10
1.70
2.92
3.72
4.33
4.87
5.41
5.91
6.31
6.60
6.83
7.07
7.35
7.64
7.87
7.95
7.87
7.69
7.52
7.45
7.49
7.59
7.67
7.66
7.51
7.20
6.72
6.06
5.28
4.49
3.77
3.15
2.54
1.76
0.69
-0.74
-2.44
-4.28
-6.12
-7.85
-9.39
-10.58
-11.25
-11.22
-10.41
-8.90
-6.90
-4.67
-2.46
-0.47
1.15
2.30
2.92
3.00
2.66
2.15
1.76
1.74
2.21
3.04
3.97
4.65
4.80
4.37
3.55
2.73
2.33
2.58
3.45
4.57
5.47
5.77
5.31
4.29
3.05
1.93
1.10
0.54
0.05
-0.52
-1.27
-2.23
-3.39
-4.75
-6.26
-7.80
-9.17
-10.12
-10.43
-10.05
-9.07
-7.63
-5.91
-4.02
-2.05
-0.15
1.53
2.83
3.68
4.15
4.44
4.70
4.96
5.18
5.24
5.06
4.70
4.29
3.95
3.74
3.61
3.51
3.39
3.25
3.09
2.94
2.79
2.59
2.31
1.88
1.30
0.56
-0.28
-1.20
-2.17
-3.19
-4.26
-5.36
-6.49
-7.58
-8.57
-9.36
-9.91
-10.13
-9.95
-9.28
-8.11
-6.56
-4.86
-3.23
-1.84
-0.68
0.35
1.36
2.30
3.03
3.34
3.13
2.51
1.72
1.12
0.94
1.21
1.82
2.57
3.31
3.96
4.49
4.91
5.18
5.27
5.13
4.73
4.09
3.27
2.37
1.50
0.81
0.40
0.27
0.29
0.19
-0.31
-1.41
-3.11
-5.20
-7.29
-8.99
-10.05
-10.42
-10.17
-9.50
-8.48
-7.13
-5.42
-3.40
-1.23
0.83
2.52
3.74
4.53
5.00
5.25
5.28
5.02
4.43
3.61
2.77
2.18
1.99
2.17
2.53
2.83
2.95
2.91
2.82
2.81
2.89
2.96
2.83
2.34
1.49
0.41
-0.73
-1.78
-2.70
-3.58
-4.58
-5.81
-7.29
-8.94
-10.66
-12.35
-13.96
-15.40
-16.53
-17.19
-17.21
-16.53
-15.26
-13.59
-11.78
-10.00
-8.31
-6.65
-4.91
-3.05
-1.11
0.76
2.38
3.62
4.45
5.04
5.54
6.13
6.85
7.62
8.29
8.72
8.84
8.67
8.31
7.86
7.34
6.73
6.01
5.13
4.12
2.98
1.72
0.39
-0.98
-2.31
-3.50
-4.54
-5.43
-6.29
-7.14
-8.01
-8.84
-9.56
-10.15
-10.63
-11.03
-11.29
-11.27
-10.77
-9.70
-8.11
-6.26
-4.40
-2.69
-1.12
0.41
1.97
3.45
4.62
5.24
5.21
4.62
3.72
2.80
2.07
1.63
1.46
1.51
1.73
2.09
2.56
3.10
3.61
3.98
4.10
3.93
3.55
3.10
2.75
2.60
2.58
2.53
2.26
1.66
0.74
-0.34
-1.43
-2.39
-3.20
-3.95
-4.72
-5.65
-6.73
-7.88
-8.91
-9.60
-9.79
-9.43
-8.58
-7.33
-5.70
-3.74
-1.49
0.82
2.86
4.26
4.80
4.57
3.95
3.40
3.31
3.78
4.60
5.44
6.00
6.17
6.03
5.79
5.63
5.71
6.07
6.63
7.27
7.78
7.96
7.66
6.88
5.74
4.48
3.40
2.72
2.48
2.56
2.73
2.70
2.30
1.48
0.34
-0.98
-2.35
-3.72
-5.11
-6.56
-8.05
-9.49
-10.70
-11.50
-11.77
-11.42
-10.46
-8.96
-7.00
-4.74
-2.31
0.11
2.41
4.47
6.19
7.45
8.16
8.28
7.93
7.34
6.79
6.51
6.59
6.96
7.44
7.90
8.26
8.52
8.70
8.78
8.66
8.24
7.51
6.50
5.35
4.24
3.30
2.60
2.10
1.72
1.35
0.86
0.16
-0.77
-1.86
-2.97
-3.96
-4.78
-5.44
-6.11
-6.92
-7.97
-9.19
-10.37
-11.20
-11.41
-10.81
-9.39
-7.27
-4.67
-1.88
0.79
3.07
4.80
5.90
6.43
6.51
6.27
5.83
5.30
4.82
4.50
4.45
4.68
5.10
5.58
5.98
6.24
6.36
6.36
6.23
5.91
5.37
4.68
3.96
3.32
2.78
2.21
1.42
0.26
-1.22
-2.81
-4.22
-5.27
-5.91
-6.27
-6.56
-6.93
-7.43
-8.00
-8.52
-8.78
-8.65
-8.05
-7.00
-5.63
-4.11
-2.61
-1.25
-0.11
0.84
1.63
2.35
3.06
3.76
4.46
5.08
5.59
5.96
6.26
6.59
7.08
7.79
8.66
9.52
10.11
10.25
9.80
8.83
7.51
6.12
4.87
3.87
3.10
2.41
1.64
0.64
-0.60
-2.03
-3.51
-4.89
-6.08
-7.03
-7.85
-8.69
-9.76
-11.19
-12.97
-14.87
-16.50
-17.39
-17.16
-15.61
-12.83
-9.20
-5.24
-1.55
1.43
3.46
4.56
4.97
4.99
4.92
4.92
5.05
5.23
5.39
5.46
5.42
5.34
5.32
5.43
5.73
6.25
6.96
7.77
8.56
9.14
9.41
9.34
8.99
8.49
7.92
7.25
6.36
5.10
3.46
1.56
-0.29
-1.80
-2.82
-3.39
-3.76
-4.24
-5.07
-6.37
-8.12
-10.18
-12.32
-14.24
-15.60
-16.09
-15.50
-13.86
-11.42
-8.60
-5.83
-3.40
-1.38
0.26
1.63
2.81
3.83
4.74
5.60
6.51
7.46
8.37
9.09
9.50
9.60
9.55
9.54
9.71
10.05
10.43
10.69
10.73
10.56
10.24
9.82
9.32
8.72
8.04
7.28
6.46
5.53
4.45
3.16
1.67
0.08
-1.46
-2.81
-3.92
-4.84
-5.69
-6.62
-7.68
-8.84
-10.01
-11.03
-11.73
-11.94
-11.53
-10.47
-8.79
-6.65
-4.23
-1.75
0.65
2.78
4.53
5.78
6.51
6.81
6.90
7.02
7.33
7.83
8.37
8.76
8.88
8.79
8.59
8.41
8.23
7.93
7.37
6.48
5.42
4.43
3.79
3.56
3.60
3.63
3.32
2.49
1.21
-0.30
-1.72
-2.85
-3.60
-4.09
-4.50
-5.00
-5.72
-6.77
-8.18
-9.96
-12.04
-14.19
-16.02
-17.10
-17.05
-15.74
-13.32
-10.19
-6.82
-3.62
-0.78
1.60
3.53
5.01
6.04
6.65
6.96
7.14
7.37
7.75
8.28
8.82
9.25
9.48
9.53
9.49
9.45
9.51
9.69
9.93
10.10
10.05
9.60
8.72
7.43
5.91
4.36
2.91
1.61
0.43
-0.70
-1.84
-2.94
-3.95
-4.81
-5.50
-6.11
-6.75
-7.55
-8.55
-9.75
-11.13
-12.62
-14.16
-15.59
-16.67
-17.05
-16.40
-14.57
-11.72
-8.26
-4.81
-1.87
0.28
1.72
2.73
3.62
4.58
5.61
6.55
7.26
7.64
7.75
7.70
7.64
7.62
7.59
7.45
7.10
6.54
5.86
5.23
4.84
4.77
4.93
5.12
5.16
4.91
4.40
3.75
3.07
2.42
1.78
1.14
0.51
-0.06
-0.58
-1.15
-1.93
-3.09
-4.67
-6.54
-8.45
-10.12
-11.39
-12.24
-12.71
-12.79
-12.39
-11.38
-9.76
-7.70
-5.50
-3.47
-1.84
-0.61
0.34
1.13
1.83
2.45
2.98
3.41
3.79
4.16
4.54
4.92
5.34
5.85
6.51
7.32
8.16
8.85
9.19
9.10
8.67
8.09
7.53
7.09
6.67
6.12
5.29
4.13
2.70
1.11
-0.54
-2.16
-3.66
-4.93
-5.86
-6.40
-6.67
-6.89
-7.32
-8.05
-8.91
-9.55
-9.55
-8.70
-7.04
-4.91
-2.65
-0.53
1.38
3.11
4.65
5.82
6.37
6.03
4.75
2.73
0.32
-2.04
-4.01
-5.39
-6.11
-6.17
-5.58
-4.42
-2.87
-1.20
0.28
1.34
1.91
2.13
2.16
2.17
2.20
2.17
1.95
1.47
0.74
-0.17
-1.15
-2.11
-3.01
-3.83
-4.59
-5.30
-6.02
-6.79
-7.65
-8.61
-9.66
-10.74
-11.78
-12.66
-13.20
-13.24
-12.60
-11.23
-9.17
-6.66
-4.00
-1.44
0.86
2.88
4.70
6.34
7.79
8.91
9.56
9.71
9.39
8.78
8.09
7.47
7.01
6.79
6.85
7.19
7.70
8.19
8.42
8.21
7.55
6.59
5.57
4.69
4.04
3.56
3.12
2.58
1.87
0.89
-0.38
-1.92
-3.58
-5.17
-6.44
-7.29
-7.84
-8.36
-9.15
-10.31
-11.68
-12.91
-13.62
-13.66
-13.05
-11.99
-10.59
-8.83
-6.61
-3.87
-0.75
2.43
5.22
7.25
8.39
8.74
8.52
7.95
7.25
6.55
6.01
5.76
5.85
6.23
6.70
6.98
6.89
6.35
5.47
4.45
3.47
2.64
2.04
1.62
1.30
0.99
0.55
-0.11
-0.97
-1.94
-2.84
-3.55
-4.06
-4.46
-4.93
-5.66
-6.77
-8.25
-10.01
-11.84
-13.41
-14.38
-14.44
-13.46
-11.59
-9.18
-6.67
-4.43
-2.64
-1.26
-0.14
0.87
1.82
2.63
3.19
3.42
3.37
3.22
3.25
3.67
4.53
5.71
6.90
7.86
8.45
8.76
8.98
9.25
9.55
9.74
9.59
9.00
8.01
6.81
5.54
4.28
2.99
1.60
0.07
-1.55
-3.18
-4.69
-6.07
-7.32
-8.54
-9.81
-11.21
-12.70
-14.12
-15.20
-15.61
-15.13
-13.71
-11.57
-8.99
-6.29
-3.61
-0.98
1.61
4.07
6.19
7.74
8.51
8.57
8.13
7.53
7.01
6.64
6.34
6.03
5.74
5.62
5.86
6.51
7.39
8.20
8.62
8.48
7.85
6.93
5.97
5.15
4.54
4.12
3.89
3.78
3.70
3.52
3.08
2.24
1.02
-0.51
-2.20
-3.96
-5.80
-7.78
-9.94
-12.22
-14.39
-16.19
-17.41
-17.93
-17.72
-16.80
-15.17
-12.87
-10.01
-6.84
-3.68
-0.85
1.55
3.57
5.35
7.00
8.43
9.42
9.79
9.54
8.89
8.24
7.92
8.07
8.59
9.19
9.60
9.64
9.28
8.61
7.78
6.87
5.95
5.08
4.29
3.65
3.19
2.86
2.57
2.16
1.49
0.54
-0.67
-2.01
-3.40
-4.77
-6.12
-7.47
-8.80
-10.09
-11.24
-12.12
-12.52
-12.23
-11.11
-9.21
-6.71
-3.96
-1.27
1.17
3.32
5.20
6.77
7.92
8.46
8.34
7.66
6.74
5.91
5.42
5.30
5.43
5.62
5.74
5.79
5.83
5.95
6.13
6.29
6.33
6.12
5.64
4.90
3.99
3.02
2.10
1.34
0.81
0.52
0.39
0.23
-0.19
-0.98
-2.16
-3.57
-5.01
-6.30
-7.39
-8.28
-8.96
-9.39
-9.41
-8.89
-7.74
-5.98
-3.71
-1.09
1.75
4.70
7.62
10.37
12.76
14.57
15.59
15.65
14.66
12.69
9.94
6.72
3.43
0.42
-2.07
-3.93
-5.20
-5.99
-6.37
-6.41
-6.13
-5.60
-4.91
-4.24
-3.74
-3.50
-3.53
-3.69
-3.87
-3.98
-4.04
-4.13
-4.34
-4.68
-5.11
-5.50
-5.74
-5.82
-5.77
-5.73
-5.82
-6.16
-6.76
-7.60
-8.61
-9.64
-10.49
-10.87
-10.50
-9.21
-7.00
-4.12
-0.96
2.07
4.64
6.58
7.85
8.52
8.69
8.47
7.98
7.38
6.85
6.51
6.44
6.65
7.09
7.64
8.17
8.55
8.67
8.50
8.10
7.55
6.99
6.48
5.99
5.44
4.76
3.92
2.94
1.90
0.83
-0.23
-1.29
-2.35
-3.36
-4.25
-5.02
-5.75
-6.59
-7.70
-9.11
-10.69
-12.08
-12.90
-12.83
-11.77
-9.85
-7.34
-4.62
-1.98
0.41
2.45
4.11
5.36
6.15
6.49
6.44
6.13
5.73
5.38
5.18
5.16
5.31
5.62
6.00
6.38
6.64
6.75
6.69
6.53
6.32
6.07
5.76
5.36
4.88
4.38
3.88
3.32
2.59
1.53
0.13
-1.46
-2.94
-4.01
-4.55
-4.68
-4.72
-5.03
-5.83
-7.16
-8.92
-10.93
-12.98
-14.85
-16.23
-16.79
-16.27
-14.57
-11.83
-8.44
-4.87
-1.59
1.09
3.07
4.39
5.24
5.78
6.20
6.57
6.92
7.23
7.49
7.73
8.03
8.50
9.15
9.88
10.49
10.78
10.59
9.93
8.94
7.84
6.85
6.11
5.63
5.29
4.90
4.25
3.26
1.94
0.42
-1.14
-2.64
-4.06
-5.36
-6.51
-7.46
-8.20
-8.83
-9.55
-10.55
-11.94
-13.62
-15.30
-16.63
-17.31
-17.19
-16.25
-14.55
-12.21
-9.36
-6.24
-3.15
-0.36
1.94
3.72
5.06
6.12
6.95
7.56
7.84
7.73
7.25
6.53
5.73
5.01
4.46
4.11
4.01
4.21
4.78
5.70
6.80
7.81
8.43
8.45
7.87
6.86
5.67
4.46
3.27
2.05
0.77
-0.54
-1.73
-2.67
-3.32
-3.77
-4.24
-4.96
-6.11
-7.74
-9.72
-11.76
-13.48
-14.50
-14.58
-13.70
-12.08
-10.07
-8.00
-6.05
-4.25
-2.49
-0.66
1.23
3.05
4.64
5.82
6.55
6.86
6.86
6.65
6.36
6.09
5.92
5.92
6.09
6.38
6.69
6.90
6.96
6.85
6.61
6.24
5.74
5.06
4.19
3.13
1.98
0.81
-0.31
-1.36
-2.37
-3.35
-4.27
-5.16
-6.05
-7.07
-8.32
-9.85
-11.55
-13.18
-14.45
-15.22
-15.43
-15.15
-14.45
-13.29
-11.60
-9.31
-6.59
-3.75
-1.20
0.78
2.11
2.92
3.43
3.77
3.95
3.89
3.54
2.99
2.44
2.07
2.02
2.24
2.64
3.08
3.48
3.77
3.95
4.05
4.10
4.12
4.12
4.07
3.91
3.61
3.17
2.63
2.12
1.68
1.33
0.93
0.35
-0.53
-1.68
-3.00
-4.38
-5.74
-7.09
-8.47
-9.88
-11.26
-12.38
-13.00
-12.93
-12.10
-10.62
-8.73
-6.64
-4.54
-2.52
-0.60
1.22
2.88
4.25
5.19
5.61
5.59
5.30
4.97
4.81
4.88
5.10
5.33
5.42
5.32
5.06
4.76
4.49
4.32
4.27
4.32
4.45
4.60
4.66
4.52
4.06
3.25
2.17
0.98
-0.18
-1.19
-2.02
-2.75
-3.51
-4.40
-5.53
-6.94
-8.60
-10.37
-12.00
-13.15
-13.55
-13.07
-11.83
-10.07
-8.08
-6.07
-4.12
-2.29
-0.67
0.61
1.39
1.66
1.51
1.16
0.82
0.68
0.79
1.20
1.90
2.84
3.91
4.87
5.54
5.87
5.97
6.07
6.36
6.81
7.19
7.21
6.67
5.65
4.40
3.22
2.26
1.49
0.72
-0.22
-1.37
-2.73
-4.19
-5.68
-7.15
-8.52
-9.62
-10.22
-10.08
-9.10
-7.39
-5.26
-3.06
-1.12
0.46
1.71
2.80
3.89
5.09
6.36
7.58
8.62
9.37
9.76
9.82
9.65
9.41
9.25
9.32
9.66
10.18
10.68
10.93
10.75
10.09
9.02
7.70
6.30
4.95
3.76
2.77
1.99
1.32
0.64
-0.23
-1.36
-2.73
-4.17
-5.55
-6.72
-7.69
-8.53
-9.30
-9.95
-10.33
-10.25
-9.53
-8.10
-6.04
-3.55
-0.92
1.54
3.63
5.26
6.49
7.51
8.44
9.25
9.73
9.57
8.61
6.99
5.16
3.79
3.42
4.21
5.84
7.68
9.10
9.77
9.77
9.48
9.25
9.24
9.30
9.18
8.74
7.99
7.09
6.17
5.24
4.23
3.07
1.79
0.51
-0.61
-1.56
-2.40
-3.25
-4.20
-5.24
-6.34
-7.48
-8.62
-9.67
-10.42
-10.61
-10.04
-8.69
-6.77
-4.63
-2.60
-0.92
0.34
1.23
1.79
2.10
2.15
2.05
1.91
1.91
2.12
2.53
2.98
3.29
3.35
3.25
3.20
3.44
4.05
4.92
5.76
6.27
6.29
5.90
5.32
4.77
4.32
3.90
3.37
2.68
1.91
1.21
0.68
0.31
-0.07
-0.61
-1.42
-2.52
-3.84
-5.29
-6.76
-8.04
-8.88
-9.04
-8.39
-7.04
-5.27
-3.35
-1.48
0.35
2.22
4.13
5.89
7.20
7.80
7.69
7.10
6.37
5.73
5.23
4.78
4.28
3.75
3.37
3.30
3.63
4.27
4.99
5.55
5.79
5.66
5.19
4.45
3.51
2.48
1.47
0.61
-0.01
-0.42
-0.78
-1.29
-2.09
-3.19
-4.43
-5.58
-6.51
-7.22
-7.82
-8.38
-8.82
-8.93
-8.43
-7.18
-5.26
-2.94
-0.57
1.61
3.46
4.94
6.00
6.58
6.64
6.20
5.45
4.65
4.13
4.06
4.47
5.17
5.90
6.38
6.46
6.14
5.58
4.95
4.42
4.04
3.79
3.58
3.31
2.93
2.42
1.77
0.99
0.11
-0.80
-1.65
-2.38
-2.92
-3.30
-3.60
-3.97
-4.59
-5.55
-6.85
-8.27
-9.53
-10.28
-10.29
-9.54
-8.21
-6.55
-4.78
-3.01
-1.25
0.50
2.16
3.55
4.46
4.81
4.66
4.23
3.77
3.44
3.26
3.14
2.97
2.73
2.49
2.32
2.26
2.26
2.27
2.26
2.23
2.19
2.15
2.08
1.92
1.64
1.23
0.70
0.03
-0.80
-1.78
-2.83
-3.85
-4.69
-5.31
-5.74
-6.08
-6.42
-6.82
-7.27
-7.75
-8.28
-8.89
-9.59
-10.35
-11.08
-11.61
-11.77
-11.37
-10.31
-8.61
-6.42
-4.04
-1.84
-0.11
0.97
1.45
1.53
1.48
1.48
1.63
1.86
2.10
2.26
2.32
2.33
2.35
2.44
2.62
2.84
3.03
3.08
2.95
2.65
2.29
1.95
1.68
1.44
1.10
0.61
-0.04
-0.73
-1.35
-1.80
-2.14
-2.49
-3.00
-3.76
-4.75
-5.89
-7.09
-8.24
-9.21
-9.85
-9.97
-9.45
-8.33
-6.80
-5.14
-3.60
-2.27
-1.13
-0.07
0.90
1.69
2.16
2.24
2.05
1.82
1.78
1.96
2.26
2.47
2.45
2.26
2.06
1.98
2.01
2.04
1.92
1.67
1.48
1.55
1.94
2.44
2.72
2.49
1.69
0.57
-0.52
-1.35
-1.87
-2.28
-2.78
-3.49
-4.35
-5.26
-6.13
-7.00
-7.93
-8.97
-10.05
-10.97
-11.47
-11.36
-10.55
-9.12
-7.29
-5.36
-3.57
-2.08
-0.89
0.06
0.92
1.76
2.61
3.40
4.04
4.45
4.56
4.38
3.99
3.53
3.12
2.89
2.86
3.02
3.30
3.63
3.95
4.15
4.14
3.84
3.23
2.35
1.41
0.60
0.05
-0.24
-0.35
-0.45
-0.66
-1.04
-1.60
-2.30
-3.08
-3.90
-4.70
-5.47
-6.17
-6.78
-7.32
-7.81
-8.32
-8.93
-9.70
-10.61
-11.52
-12.13
-12.13
-11.30
-9.65
-7.45
-5.16
-3.20
-1.82
-1.04
-0.68
-0.52
-0.39
-0.23
-0.05
0.13
0.34
0.66
1.17
1.86
2.65
3.35
3.81
3.96
3.90
3.81
3.84
4.03
4.26
4.33
4.07
3.48
2.73
2.04
1.58
1.31
1.07
0.69
0.11
-0.61
-1.33
-1.96
-2.51
-3.06
-3.67
-4.32
-4.94
-5.44
-5.87
-6.36
-7.03
-7.88
-8.74
-9.30
-9.35
-8.84
-7.95
-6.94
-6.01
-5.19
-4.34
-3.29
-1.96
-0.47
0.92
2.03
2.77
3.23
3.58
3.92
4.25
4.50
4.63
4.68
4.76
4.98
5.40
5.95
6.56
7.13
7.65
8.13
8.52
8.76
8.74
8.41
7.78
6.93
5.94
4.83
3.65
2.42
1.23
0.17
-0.67
-1.34
-1.93
-2.58
-3.35
-4.23
-5.15
-6.00
-6.78
-7.51
-8.29
-9.14
-9.97
-10.59
-10.74
-10.26
-9.15
-7.63
-5.99
-4.46
-3.07
-1.73
-0.24
1.43
3.17
4.73
5.86
6.41
6.41
6.02
5.45
4.89
4.49
4.40
4.66
5.23
6.00
6.74
7.27
7.49
7.40
7.11
6.69
6.24
5.82
5.54
5.51
5.75
6.20
6.61
6.67
6.16
5.04
3.52
1.93
0.60
-0.34
-0.91
-1.29
-1.74
-2.46
-3.53
-4.94
-6.59
-8.37
-10.18
-11.87
-13.28
-14.18
-14.34
-13.57
-11.85
-9.34
-6.44
-3.56
-1.07
0.90
2.39
3.60
4.65
5.57
6.25
6.56
6.48
6.07
5.55
5.05
4.65
4.32
4.01
3.71
3.52
3.53
3.78
4.22
4.70
5.04
5.14
5.03
4.85
4.75
4.82
5.01
5.17
5.14
4.79
4.12
3.26
2.38
1.61
0.94
0.27
-0.56
-1.63
-2.92
-4.30
-5.62
-6.79
-7.80
-8.73
-9.65
-10.64
-11.67
-12.60
-13.20
-13.16
-12.25
-10.45
-8.00
-5.37
-3.05
-1.29
-0.06
0.89
1.85
2.93
4.03
5.02
5.76
6.32
6.86
7.48
8.15
8.69
8.95
8.86
8.53
8.10
7.68
7.24
6.63
5.75
4.62
3.44
2.44
1.82
1.60
1.65
1.66
1.35
0.56
-0.73
-2.32
-3.96
-5.38
-6.37
-6.85
-6.81
-6.42
-5.94
-5.69
-5.98
-6.99
-8.54
-10.27
-11.57
-11.88
-10.89
-8.66
-5.61
-2.31
0.69
3.05
4.66
5.61
6.10
6.33
6.41
6.39
6.27
6.05
5.77
5.57
5.59
5.99
6.76
7.75
8.66
9.18
9.16
8.66
7.94
7.25
6.76
6.40
6.02
5.50
4.85
4.17
3.54
2.92
2.14
1.08
-0.25
-1.67
-2.95
-3.98
-4.79
-5.61
-6.63
-7.93
-9.34
-10.61
-11.52
-11.95
-11.89
-11.31
-10.16
-8.35
-5.89
-2.98
0.01
2.69
4.73
6.05
6.65
6.64
6.14
5.28
4.25
3.31
2.72
2.66
3.10
3.85
4.59
5.13
5.39
5.50
5.61
5.83
6.08
6.20
6.01
5.43
4.54
3.50
2.54
1.75
1.13
0.56
-0.11
-0.96
-1.98
-3.13
-4.40
-5.83
-7.49
-9.40
-11.45
-13.41
-14.93
-15.71
-15.53
-14.39
-12.49
-10.12
-7.62
-5.23
-3.03
-1.01
0.83
2.43
3.59
4.09
3.85
3.04
2.07
1.46
1.59
2.54
4.02
5.54
6.58
6.84
6.32
5.30
4.19
3.29
2.76
2.51
2.38
2.19
1.90
1.58
1.33
1.20
1.14
1.02
0.73
0.24
-0.35
-0.92
-1.42
-1.90
-2.53
-3.48
-4.77
-6.26
-7.70
-8.76
-9.16
-8.79
-7.62
-5.81
-3.56
-1.09
1.37
3.66
5.69
7.36
8.56
9.23
9.36
9.10
8.73
8.56
8.80
9.42
10.18
10.71
10.76
10.29
9.48
8.55
7.64
6.74
5.74
4.55
3.25
2.02
1.03
0.41
0.12
0.04
0.05
0.08
0.14
0.27
0.45
0.56
0.41
-0.24
-1.59
-3.64
-6.16
-8.70
-10.65
-11.50
-11.02
-9.35
-6.92
-4.28
-1.83
0.26
2.02
3.55
4.90
6.06
6.96
7.61
8.14
8.72
9.48
10.40
11.32
11.99
12.21
11.88
11.04
9.78
8.18
6.29
4.08
1.56
-1.18
-3.92
-6.39
-8.36
-9.75
-10.59
-10.98
-11.02
-10.70
-10.05
-9.10
-7.98
-6.85
-5.88
-5.11
-4.49
-3.95
-3.47
-3.10
-2.97
-3.10
-3.43
-3.73
-3.76
-3.34
-2.44
-1.10
0.60
2.60
4.86
7.28
9.62
11.57
12.81
13.20
12.86
12.07
11.15
10.28
9.48
8.64
7.76
6.98
6.52
6.60
7.18
8.03
8.81
9.28
9.37
9.23
9.07
8.99
8.98
8.94
8.81
8.58
8.32
8.04
7.67
7.11
6.24
5.09
3.79
2.50
1.30
0.13
-1.17
-2.73
-4.55
-6.46
-8.11
-9.21
-9.52
-9.02
-7.82
-6.17
-4.35
-2.57
-1.02
0.20
1.06
1.60
1.94
2.18
2.43
2.73
3.10
3.49
3.86
4.13
4.28
4.25
4.01
3.55
2.92
2.28
1.81
1.68
1.88
2.23
2.43
2.23
1.59
0.64
-0.30
-1.03
-1.47
-1.76
-2.06
-2.53
-3.22
-4.11
-5.16
-6.33
-7.61
-8.95
-10.27
-11.40
-12.14
-12.34
-11.82
-10.51
-8.48
-5.90
-3.12
-0.52
1.61
3.12
4.03
4.48
4.63
4.60
4.49
4.37
4.32
4.39
4.53
4.67
4.71
4.59
4.36
4.16
4.12
4.33
4.72
5.11
5.31
5.18
4.70
3.89
2.86
1.62
0.19
-1.38
-2.99
-4.43
-5.59
-6.44
-7.15
-7.98
-9.19
-10.79
-12.54
-14.01
-14.73
-14.41
-12.96
-10.59
-7.59
-4.29
-0.94
2.25
5.09
7.43
9.06
9.86
9.80
9.08
8.02
7.04
6.47
6.44
6.87
7.52
8.12
8.51
8.68
8.66
8.49
8.14
7.52
6.64
5.58
4.53
3.65
2.95
2.32
1.54
0.46
-0.95
-2.54
-4.10
-5.46
-6.56
-7.53
-8.55
-9.74
-11.08
-12.40
-13.46
-14.05
-14.10
-13.63
-12.76
-11.56
-10.08
-8.29
-6.18
-3.81
-1.36
0.97
3.00
4.62
5.80
6.57
7.00
7.16
7.20
7.28
7.50
7.85
8.22
8.39
8.19
7.60
6.71
5.66
4.57
3.48
2.44
1.52
0.85
0.54
0.55
0.70
0.68
0.30
-0.50
-1.58
-2.75
-3.87
-4.90
-5.87
-6.78
-7.55
-8.10
-8.41
-8.59
-8.92
-9.62
-10.76
-12.17
-13.47
-14.28
-14.34
-13.63
-12.31
-10.61
-8.64
-6.43
-3.95
-1.29
1.30
3.43
4.82
5.41
5.43
5.25
5.18
5.34
5.66
6.01
6.27
6.47
6.61
6.68
6.67
6.56
6.43
6.46
6.76
7.33
7.94
8.28
8.10
7.31
6.07
4.71
3.55
2.82
2.56
2.62
2.73
2.56
1.85
0.49
-1.40
-3.54
-5.58
-7.23
-8.36
-9.01
-9.34
-9.59
-9.97
-10.68
-11.79
-13.22
-14.75
-16.02
-16.67
-16.41
-15.11
-12.84
-9.84
-6.52
-3.39
-0.89
0.71
1.45
1.65
1.73
2.01
2.58
3.26
3.79
4.00
3.89
3.63
3.40
3.29
3.25
3.24
3.22
3.20
3.18
3.07
2.75
2.15
1.32
0.41
-0.35
-0.87
-1.15
-1.33
-1.54
-1.90
-2.45
-3.20
-4.11
-5.18
-6.32
-7.42
-8.33
-8.94
-9.30
-9.60
-10.06
-10.79
-11.65
-12.26
-12.11
-10.82
-8.32
-4.94
-1.27
2.00
4.44
5.93
6.68
7.03
7.23
7.39
7.41
7.20
6.75
6.20
5.73
5.46
5.35
5.27
5.05
4.60
4.01
3.51
3.31
3.51
4.04
4.66
5.08
5.11
