1568073326.00
64.000000
-0.00
-0.00
-0.00
-0.00
-0.00
-0.00
-0.00
-0.00
-0.00
-0.00
0.00
0.01
0.01
-0.00
-0.03
-0.05
-0.05
0.00
0.13
0.36
0.66
1.01
1.37
1.72
2.06
2.40
2.79
3.24
3.80
4.42
5.06
5.66
6.20
6.68
7.15
7.68
8.31
9.14
10.09
11.04
11.88
12.56
13.14
13.76
14.65
15.96
17.91
20.32
22.90
25.38
27.58
29.57
31.68
34.32
37.81
42.54
48.15
54.10
59.83
64.97
69.58
74.14
79.34
85.71
93.76
103.00
112.62
121.73
129.77
136.75
143.30
150.75
157.77
166.64
177.95
191.79
206.97
220.57
228.25
225.36
208.53
176.87
132.76
80.05
23.07
-34.94
-92.44
-149.16
-205.23
-260.37
-313.74
-363.87
-409.83
-450.91
-486.50
-515.74
-537.23
-549.22
-549.96
-538.37
-514.21
-478.67
-433.88
-382.45
-327.02
-269.84
-212.63
-156.66
-102.95
-52.37
-5.90
35.58
71.43
101.35
125.50
144.38
158.69
169.15
176.37
180.75
182.57
182.07
179.51
175.23
169.65
163.17
156.14
148.81
141.31
133.71
126.05
118.36
110.68
103.08
95.65
88.45
81.53
74.93
68.64
62.65
56.96
51.54
46.40
41.56
37.04
32.86
29.01
25.50
22.27
19.28
16.49
13.88
11.49
9.37
7.56
6.07
4.87
3.84
2.87
1.84
0.75
-0.34
-1.29
-1.97
-2.31
-2.38
-2.39
-2.58
-3.14
-4.09
-5.26
-6.36
-7.09
-7.31
-7.12
-6.85
-6.92
-7.61
-8.95
-10.66
-12.26
-13.34
-13.74
-13.59
-13.27
-13.22
-13.73
-14.93
-16.91
-19.63
-22.79
-25.56
-26.61
-24.46
-18.21
-8.18
3.97
15.74
24.82
29.99
31.44
30.41
28.34
26.25
24.40
22.65
20.87
19.25
18.20
18.01
18.57
19.29
19.33
18.04
15.30
11.79
8.70
7.30
8.32
11.59
16.02
20.05
22.35
22.39
20.64
18.17
16.11
15.07
14.94
15.16
15.12
14.58
13.73
13.10
13.13
13.88
14.92
15.55
15.12
13.31
10.33
6.55
2.46
-1.57
-5.40
-9.05
-12.43
-15.24
-17.00
-17.33
-16.26
-14.23
-11.99
-10.20
-9.15
-8.67
-8.32
-7.68
-6.64
-5.20
-3.27
-0.60
2.97
7.02
10.45
11.66
9.22
2.54
-7.56
-19.07
-29.71
-37.40
-41.55
-42.72
-42.54
-42.13
-42.69
-45.38
-51.20
-60.63
-72.99
-86.18
-96.88
-101.63
-98.30
-87.24
-71.13
-53.82
-38.80
-27.79
-20.33
-15.04
-10.08
-4.50
1.35
6.47
10.60
13.38
15.02
16.11
17.22
18.86
21.20
24.04
26.95
29.65
31.79
33.17
33.71
32.89
30.00
24.08
14.71
2.76
-9.34
-19.22
-25.98
-31.07
-37.64
-48.27
-62.78
-77.27
-87.14
-86.71
-73.64
-50.70
-24.75
-3.38
8.73
11.37
7.89
2.61
-1.55
-4.31
-7.01
-10.71
-15.02
-18.18
-18.28
-14.47
-7.42
1.05
8.74
14.05
16.70
17.53
17.96
19.13
21.32
23.90
25.79
25.90
23.65
19.26
13.62
7.84
2.82
-1.12
-4.30
-7.43
-11.37
-16.71
-23.56
-31.49
-39.65
-46.97
-52.45
-55.30
-55.09
-51.70
-45.39
-36.62
-25.99
-14.20
-1.93
10.12
21.31
31.10
39.05
44.91
48.67
50.57
51.02
50.49
49.39
47.97
46.30
44.35
42.03
39.33
36.26
32.89
29.30
25.53
21.66
17.79
14.08
10.75
8.01
6.00
4.75
4.17
4.13
4.49
5.15
6.06
7.17
8.41
9.55
10.27
10.20
8.94
6.24
2.07
-3.21
-8.94
-14.14
-17.79
-19.09
-17.71
-13.85
-8.14
-1.40
5.60
12.31
18.35
23.37
26.97
28.74
28.41
26.04
22.13
17.53
13.20
9.93
8.04
7.33
7.21
6.94
5.96
4.10
1.73
-0.56
-1.82
-1.09
2.35
8.76
17.65
27.65
36.64
42.24
42.64
37.44
27.97
17.00
7.58
1.87
0.24
1.37
3.07
3.46
1.74
-1.73
-5.87
-9.56
-12.18
-13.50
-13.53
-12.24
-9.49
-5.25
0.19
6.26
12.26
17.36
20.93
22.64
22.52
21.01
18.73
16.24
13.76
11.08
7.72
3.40
-1.62
-6.42
-9.67
-10.19
-7.46
-1.79
5.83
14.17
22.17
29.09
34.49
38.10
39.72
39.14
36.35
31.67
25.84
19.97
15.14
12.11
10.96
11.13
11.63
11.48
10.18
7.83
5.05
2.73
1.63
2.17
4.44
8.17
12.90
18.10
23.26
28.02
32.23
35.84
38.86
41.15
42.42
42.31
40.60
37.41
33.24
28.87
25.11
22.45
20.96
20.31
19.99
19.51
18.58
17.11
15.12
12.63
9.65
6.24
2.55
-1.12
-4.49
-7.36
-9.69
-11.53
-12.96
-14.02
-14.76
-15.29
-15.86
-16.83
-18.49
-20.93
-23.88
-26.75
-28.77
-29.20
-27.60
-23.88
-18.35
-11.60
-4.36
2.70
9.07
14.48
18.79
21.97
23.96
24.72
24.21
22.59
20.20
17.53
15.14
13.37
12.30
11.71
11.31
10.94
10.71
10.93
11.81
13.16
14.34
14.49
12.89
9.39
4.51
-0.79
-5.50
-9.00
-11.22
-12.67
-14.15
-16.52
-20.51
-26.48
-34.29
-43.13
-51.58
-57.91
-60.64
-59.03
-53.37
-44.87
-35.24
-26.04
-18.31
-12.41
-8.18
-5.21
-3.12
-1.66
-0.74
-0.27
-0.08
0.12
0.68
1.88
3.73
5.95
8.02
9.43
9.94
9.65
8.97
8.40
8.23
8.41
8.61
8.39
7.49
5.88
3.85
1.73
-0.17
-1.73
-3.02
-4.21
-5.49
-6.99
-8.83
-11.07
-13.74
-16.72
-19.71
-22.19
-23.56
-23.33
-21.24
-17.40
-12.21
-6.22
-0.01
5.99
11.46
16.21
20.11
23.07
25.00
25.89
25.80
24.88
23.42
21.74
20.18
18.96
18.17
17.71
17.42
17.11
16.64
15.99
15.13
14.08
12.83
11.37
9.72
7.92
6.07
4.21
2.40
0.58
-1.28
-3.21
-5.18
-7.11
-8.92
-10.64
-12.41
-14.43
-16.89
-19.74
-22.66
-25.07
-26.29
-25.77
-23.26
-18.89
-13.13
-6.57
0.17
6.59
12.30
17.03
20.59
22.89
23.93
23.87
22.96
21.48
19.75
18.03
16.48
15.21
14.24
13.53
12.97
12.43
11.80
10.96
9.88
8.55
7.01
5.36
3.68
2.04
0.49
-1.00
-2.51
-4.13
-5.90
-7.78
-9.60
-11.20
-12.49
-13.57
-14.67
-16.02
-17.78
-19.95
-22.43
-25.03
-27.55
-29.69
-31.00
-30.85
-28.62
-23.95
-17.03
-8.61
0.18
8.19
14.65
19.25
22.14
23.63
24.06
23.66
22.63
21.16
19.48
17.85
16.48
15.47
14.85
14.55
14.45
14.42
14.26
13.82
12.99
11.73
10.09
8.15
6.02
3.80
1.54
-0.73
-2.98
-5.17
-7.22
-9.07
-10.70
-12.13
-13.51
-15.03
-16.86
-19.08
-21.62
-24.28
-26.81
-28.97
-30.51
-31.19
-30.77
-29.01
-25.81
-21.27
-15.73
-9.66
-3.59
2.05
6.92
10.85
13.70
15.40
16.02
15.73
14.85
13.78
12.83
12.20
11.90
11.80
11.75
11.64
11.40
11.01
10.50
9.86
9.14
8.35
7.48
6.49
5.32
3.96
2.43
0.85
-0.63
-1.93
-3.07
-4.19
-5.42
-6.85
-8.47
-10.13
-11.72
-13.18
-14.63
-16.26
-18.23
-20.56
-23.08
-25.43
-27.25
-28.17
-27.95
-26.43
-23.60
-19.53
-14.43
-8.66
-2.70
2.90
7.67
11.32
13.78
15.18
15.72
15.64
15.11
14.27
13.26
12.23
11.34
10.73
10.39
10.22
10.05
9.78
9.42
9.05
8.73
8.43
7.97
7.14
5.82
4.07
2.11
0.25
-1.30
-2.52
-3.53
-4.58
-5.82
-7.31
-8.98
-10.67
-12.26
-13.64
-14.81
-15.84
-16.81
-17.84
-19.03
-20.44
-22.08
-23.85
-25.51
-26.68
-26.93
-25.82
-23.09
-18.70
-12.97
-6.46
0.08
5.92
10.49
13.57
15.24
15.81
15.70
15.27
14.82
14.54
14.58
15.00
15.76
16.63
17.24
17.31
16.76
15.79
14.82
14.19
13.90
13.61
12.80
11.09
8.49
5.50
2.87
1.21
0.83
1.60
3.07
4.69
5.99
6.69
6.69
6.05
5.01
3.84
2.76
1.85
0.98
-0.12
-1.78
-4.16
-7.13
-10.30
-13.15
-15.17
-15.99
-15.40
-13.27
-9.62
-4.61
1.29
7.35
12.66
16.41
18.16
17.93
16.16
13.49
10.51
7.65
5.15
3.17
1.88
1.48
2.07
3.65
5.95
8.50
10.76
12.23
12.63
11.99
10.63
8.98
7.41
6.12
5.08
4.14
3.09
1.79
0.20
-1.63
-3.57
-5.49
-7.31
-9.04
-10.72
-12.48
-14.51
-17.04
-20.24
-24.14
-28.44
-32.54
-35.63
-36.97
-36.14
-33.21
-28.71
-23.39
-18.00
-13.06
-8.82
-5.23
-2.11
0.85
3.87
7.07
10.36
13.59
16.61
19.44
22.14
24.70
26.87
28.22
28.34
27.29
25.72
24.66
24.97
26.78
29.32
31.25
31.33
29.12
25.06
20.14
15.22
10.58
5.98
1.10
-3.99
-8.71
-12.40
-14.80
-16.36
-17.85
-19.74
-21.72
-22.79
-21.91
-18.80
-14.17
-9.38
-5.58
-2.96
-0.76
2.24
6.76
12.54
18.30
22.38
23.45
21.05
15.71
8.69
1.52
-4.44
-8.42
-10.37
-10.95
-11.32
-12.71
-16.01
-21.41
-28.25
-35.20
-40.71
-43.63
-43.68
-41.44
-37.93
-33.88
-29.18
-23.07
-14.84
-4.87
4.89
11.35
11.76
5.14
-6.89
-20.73
-32.38
-39.22
-40.95
-39.16
-36.15
-33.70
-32.51
-32.63
-34.03
-36.81
-40.81
-44.97
-47.14
-44.82
-36.63
-23.46
-8.65
3.40
9.30
8.39
3.12
-2.27
-3.81
0.38
9.64
21.56
33.53
43.76
51.49
56.42
58.06
55.73
49.06
38.69
26.41
14.49
4.85
-1.76
-5.67
-7.75
-8.68
-8.64
-7.60
-5.88
-4.40
-4.34
-6.55
-10.95
-16.49
-21.71
-25.48
-27.46
-28.10
-28.22
-28.43
-28.87
-29.35
-29.65
-29.93
-30.66
-32.45
-35.57
-39.77
-44.29
-48.24
-50.96
-52.21
-52.12
-50.88
-48.47
-44.63
-39.02
-31.60
-22.77
-13.30
-4.05
4.42
11.93
18.56
24.34
29.02
32.23
33.75
33.81
33.02
32.05
31.28
30.65
29.85
28.78
27.81
27.64
28.88
31.50
34.73
37.36
38.49
37.91
36.37
35.13
35.22
36.90
39.49
41.76
42.41
40.52
35.70
28.17
18.71
8.55
-0.92
-8.45
-13.33
-15.73
-16.67
-17.87
-20.77
-25.81
-32.11
-37.91
-41.35
-41.27
-37.63
-31.52
-25.16
-20.61
-18.85
-19.59
-21.62
-23.55
-24.45
-24.24
-23.81
-25.77
-32.26
-43.56
-57.69
-71.33
-81.42
-86.34
-86.49
-83.96
-83.11
-86.94
-95.46
-106.02
-115.31
-121.27
-123.71
-123.68
-122.49
-123.19
-127.36
-134.53
-142.90
-150.91
-157.96
-163.82
-167.77
-154.85
-117.64
-60.04
4.50
62.43
106.55
135.64
151.64
157.45
156.67
149.73
137.11
120.95
104.82
92.02
84.21
81.38
82.65
85.99
87.99
86.38
80.89
73.03
64.82
57.68
52.20
48.44
46.17
44.04
41.09
37.29
33.36
30.04
27.59
25.82
24.34
22.86
20.80
17.94
14.53
11.12
8.25
6.18
4.92
4.37
4.39
4.72
5.23
5.90
6.78
7.87
8.98
9.76
9.75
8.42
5.56
1.32
-3.80
-9.00
-13.33
-15.95
-16.18
-13.88
-9.46
-3.19
4.40
12.52
20.18
26.48
30.63
32.62
32.81
31.67
30.76
31.41
34.10
38.28
42.86
46.40
48.63
49.62
49.58
50.39
53.70
59.97
68.22
76.77
83.50
88.20
91.28
93.48
97.59
106.07
119.50
136.35
154.18
170.03
183.50
194.92
192.06
167.57
122.71
67.41
13.57
-25.06
-51.50
-70.05
-84.00
-95.10
-103.47
-107.52
-106.40
-100.70
-91.81
-82.13
-72.25
-64.06
-59.65
-59.29
-62.00
-66.65
-72.65
-79.71
-88.06
-96.48
-104.19
-110.19
-112.75
-110.67
-104.12
-94.57
-83.96
-73.91
-65.09
-57.73
-51.68
-46.22
-40.66
-34.85
-29.18
-24.25
-20.77
-18.85
-18.34
-18.74
-19.42
-19.78
-19.57
-18.85
-17.81
-16.68
-15.48
-14.06
-12.23
-9.96
-7.46
-5.13
-3.45
-2.74
-3.07
-4.21
-5.67
-6.84
-7.17
-6.27
-4.01
-0.52
3.88
8.68
13.34
17.42
20.65
22.98
24.49
25.33
25.57
25.26
24.41
23.07
21.33
19.37
17.32
15.27
13.26
11.30
9.45
7.81
6.56
5.86
5.80
6.29
7.16
8.16
9.08
9.77
10.19
10.31
10.15
9.71
8.99
7.99
6.72
5.16
3.28
1.02
-1.70
-4.94
-8.70
-12.83
-17.02
-20.84
-23.81
-25.49
-25.59
-24.07
-21.07
-16.93
-12.03
-6.82
-1.72
2.96
6.97
10.23
12.81
14.88
16.66
18.39
20.21
22.18
24.25
26.32
28.21
29.80
31.03
31.84
32.24
32.21
31.71
30.70
29.21
27.31
25.14
22.86
20.61
18.44
16.33
14.21
12.00
9.70
7.36
5.07
2.89
0.81
-1.24
-3.41
-5.78
-8.41
-11.17
-13.84
-16.11
-17.67
-18.26
-17.76
-16.15
-13.53
-10.15
-6.41
-2.78
0.26
2.34
3.29
3.17
2.21
0.75
-0.88
-2.41
-3.58
-4.17
-3.97
-2.85
-0.85
1.87
5.01
8.24
11.31
14.06
16.41
18.29
19.68
20.54
20.82
20.51
19.60
18.11
16.15
13.85
11.43
9.10
6.94
4.90
2.77
0.35
-2.39
-5.27
-7.91
-9.83
-10.63
-10.10
-8.23
-5.22
-1.39
2.83
6.99
10.66
13.55
15.50
16.55
16.84
16.54
15.80
14.71
13.34
11.80
10.23
8.79
7.61
6.74
6.12
5.68
5.34
5.04
4.74
4.43
4.09
3.69
3.22
2.66
2.00
1.23
0.31
-0.76
-1.98
-3.32
-4.81
-6.46
-8.32
-10.39
-12.54
-14.53
-15.99
-16.56
-15.99
-14.18
-11.26
-7.51
-3.33
0.87
4.69
7.83
10.07
11.34
11.72
11.40
10.64
9.76
9.00
8.51
8.29
8.23
8.22
8.12
7.85
7.36
6.70
5.95
5.18
4.36
3.44
2.30
0.82
-1.02
-3.11
-5.11
-6.61
-7.36
-7.38
-6.90
-6.32
-5.98
-6.05
-6.43
-6.46
-5.45
-2.97
1.02
6.21
12.12
18.27
24.22
29.68
35.17
41.16
47.82
54.85
61.82
68.36
74.19
79.02
82.46
85.04
87.13
88.70
89.54
89.62
89.31
89.01
88.58
87.22
85.10
82.21
78.46
73.88
68.95
64.54
61.43
59.81
51.47
32.16
2.95
-30.01
-59.94
-83.15
-99.24
-109.48
-115.15
-118.06
-117.62
-113.17
-105.03
-94.81
-84.72
-76.76
-71.86
-70.43
-72.21
-75.13
-77.29
-77.75
-76.68
-74.78
-72.56
-71.17
-70.35
-69.62
-67.91
-64.70
-60.16
-55.05
-50.23
-46.31
-42.65
-38.91
-35.09
-31.02
-26.83
-22.89
-19.59
-17.18
-15.61
-14.64
-14.05
-13.74
-13.48
-13.07
-12.27
-10.84
-8.66
-5.78
-2.57
0.38
2.44
3.18
2.56
0.92
-1.17
-3.11
-4.45
-4.95
-4.52
-3.15
-0.91
1.98
5.09
7.96
10.16
11.47
11.92
11.83
11.68
11.87
12.58
13.68
15.11
16.82
18.74
20.67
22.39
23.69
24.43
24.47
23.78
22.86
22.34
22.76
24.26
26.61
29.29
31.63
32.91
32.66
31.47
30.58
31.45
35.10
41.84
51.21
62.17
73.45
80.26
78.81
67.60
48.14
23.81
-1.59
-24.31
-40.82
-48.52
-46.97
-37.88
-25.28
-14.05
-8.13
-9.03
-15.64
-25.32
-35.50
-44.63
-51.79
-56.36
-57.67
-55.06
-48.32
-38.16
-26.42
-15.74
-8.56
-5.91
-7.09
-10.14
-12.78
-13.28
-11.06
-6.63
-1.31
3.40
6.44
7.45
6.59
4.45
1.83
-0.42
-1.68
-1.72
-0.69
0.91
2.46
3.24
2.39
-0.90
-6.99
-15.08
-23.15
-28.10
-26.89
-17.93
-2.17
16.74
33.71
44.18
45.87
39.33
27.28
13.19
-0.73
-13.27
-24.09
-32.95
-39.27
-42.29
-41.77
-37.90
-32.58
-27.30
-22.40
-16.96
-9.58
0.61
13.10
26.03
37.21
45.21
50.19
53.40
55.89
57.46
56.56
51.27
40.66
25.84
9.65
-4.32
-13.39
-16.84
-15.97
-13.09
-10.35
-8.78
-8.29
-8.26
-8.12
-7.92
-8.20
-9.53
-12.08
-15.39
-18.65
-20.95
-21.84
-21.47
-20.35
-19.26
-18.80
-19.14
-19.99
-20.76
-20.88
-20.06
-18.35
-16.14
-13.78
-11.58
-9.65
-7.88
-6.08
-4.13
-1.97
0.31
2.56
4.57
6.12
7.02
7.18
6.62
5.56
4.36
3.48
3.36
4.23
6.05
8.52
11.15
13.44
15.00
15.60
15.23
13.98
12.04
9.61
6.93
4.28
1.94
0.15
-1.00
-1.57
-1.75
-1.77
-1.82
-1.95
-2.16
-2.44
-2.81
-3.35
-4.13
-5.17
-6.40
-7.72
-9.03
-10.29
-11.53
-12.78
-14.05
-15.27
-16.34
-17.12
-17.57
-17.77
-17.96
-18.45
-19.48
-21.10
-23.11
-25.11
-26.66
-27.27
-26.56
-24.31
-20.47
-15.17
-8.73
-1.66
5.39
11.81
17.12
21.07
23.59
24.82
24.94
24.19
22.83
21.13
19.37
17.76
16.42
15.29
14.27
13.24
12.14
11.01
9.94
8.99
8.15
7.28
6.22
4.80
2.95
0.74
-1.66
-4.09
-6.47
-8.81
-11.18
-13.65
-16.27
-18.99
-21.78
-24.54
-27.13
-29.25
-30.48
-30.30
-28.28
-24.26
-18.46
-11.46
-4.03
3.09
9.30
14.26
17.88
20.18
21.30
21.40
20.70
19.47
18.01
16.63
15.58
14.94
14.65
14.49
14.20
13.58
12.60
11.39
10.13
8.98
7.97
6.97
5.81
4.35
2.53
0.44
-1.78
-3.96
-5.99
-7.88
-9.75
-11.78
-14.14
-16.91
-19.94
-22.88
-25.20
-26.32
-25.80
-23.41
-19.25
-13.70
-7.38
-0.93
5.02
10.01
13.82
16.36
17.76
18.19
17.84
16.90
15.59
14.11
12.74
11.69
11.06
10.84
10.83
10.81
10.59
10.08
9.35
8.55
7.84
7.28
6.84
6.36
5.67
4.62
3.14
1.28
-0.79
-2.84
-4.66
-6.13
-7.30
-8.36
-9.61
-11.29
-13.50
-16.08
-18.62
-20.57
-21.37
-20.57
-17.95
-13.56
-7.67
-0.81
6.39
13.25
19.20
23.89
27.20
29.26
30.26
30.42
29.91
28.90
27.59
26.21
24.99
24.09
23.51
23.16
22.89
22.58
22.15
21.59
20.89
20.04
19.03
17.82
16.35
14.54
12.27
9.46
6.13
2.39
-1.54
-5.46
-9.27
-12.99
-16.71
-20.57
-24.64
-28.91
-33.27
-37.45
-41.03
-43.43
-44.08
-42.61
-38.99
-33.63
-27.24
-20.63
-14.45
-9.13
-4.84
-1.68
0.37
1.37
1.48
1.07
0.56
0.35
0.65
1.44
2.50
3.59
4.55
5.39
6.24
7.23
8.47
9.90
11.35
12.55
13.23
13.22
12.47
11.13
9.44
7.66
5.96
4.41
3.02
1.73
0.55
-0.55
-1.63
-2.83
-4.33
-6.22
-8.38
-10.48
-11.97
-12.31
-11.15
-8.44
-4.46
0.29
5.25
9.91
13.89
16.97
19.05
20.09
20.16
19.36
17.91
16.08
14.21
12.57
11.35
10.63
10.32
10.27
10.29
10.26
10.11
9.84
9.44
8.86
8.04
6.93
5.53
3.94
2.30
0.73
-0.70
-2.00
-3.26
-4.53
-5.84
-7.15
-8.45
-9.76
-11.19
-12.85
-14.74
-16.76
-18.56
-19.73
-19.83
-18.56
-15.89
-12.03
-7.42
-2.55
2.13
6.29
9.73
12.33
14.06
14.92
15.00
14.44
13.46
12.31
11.21
10.34
9.78
9.55
9.56
9.67
9.71
9.48
8.92
8.04
6.97
5.90
4.94
4.11
3.35
2.52
1.50
0.23
-1.27
-2.96
-4.77
-6.63
-8.47
-10.19
-11.74
-13.07
-14.23
-15.34
-16.56
-18.01
-19.66
-21.31
-22.56
-22.90
-21.90
-19.38
-15.47
-10.62
-5.40
-0.36
4.15
7.95
11.00
13.29
14.81
15.54
15.51
14.88
13.89
12.79
11.81
11.07
10.56
10.20
9.86
9.42
8.88
8.27
7.67
7.12
6.57
5.87
4.88
3.58
2.07
0.58
-0.68
-1.63
-2.37
-3.10
-4.01
-5.20
-6.65
-8.20
-9.68
-10.98
-12.09
-13.10
-14.20
-15.57
-17.30
-19.29
-21.25
-22.71
-23.20
-22.34
-20.03
-16.38
-11.73
-6.53
-1.25
3.64
7.82
11.06
13.33
14.71
15.37
15.51
15.26
14.74
14.05
13.32
12.70
12.33
12.26
12.45
12.76
13.06
13.23
13.24
13.10
12.80
12.25
11.38
10.15
8.62
6.97
5.43
4.18
3.22
2.39
1.46
0.26
-1.25
-2.89
-4.43
-5.67
-6.56
-7.24
-7.92
-8.82
-10.08
-11.70
-13.55
-15.42
-17.07
-18.22
-18.58
-17.85
-15.86
-12.56
-8.19
-3.22
1.74
6.10
9.46
11.70
12.93
13.41
13.35
12.92
12.21
11.35
10.50
9.83
9.44
9.31
9.32
9.26
9.04
8.60
7.99
7.24
6.41
5.52
4.60
3.71
2.90
2.16
1.44
0.63
-0.31
-1.42
-2.64
-3.91
-5.20
-6.47
-7.70
-8.85
-9.85
-10.66
-11.30
-11.87
-12.52
-13.38
-14.46
-15.63
-16.62
-17.09
-16.72
-15.30
-12.80
-9.34
-5.21
-0.82
3.40
7.05
9.88
11.84
13.01
13.57
13.67
13.37
12.73
11.81
10.77
9.84
9.22
8.98
9.02
9.14
9.15
8.95
8.57
8.14
7.74
7.36
6.88
6.18
5.21
4.03
2.76
1.53
0.41
-0.65
-1.73
-2.89
-4.14
-5.41
-6.59
-7.61
-8.45
-9.20
-10.04
-11.11
-12.54
-14.33
-16.36
-18.38
-19.99
-20.80
-20.46
-18.82
-15.92
-12.03
-7.56
-2.97
1.33
5.03
7.94
9.99
11.16
11.54
11.26
10.51
9.50
8.44
7.48
6.73
6.25
6.04
6.08
6.26
6.49
6.59
6.47
6.06
5.38
4.51
3.51
2.45
1.33
0.15
-1.06
-2.27
-3.44
-4.58
-5.74
-6.98
-8.33
-9.71
-10.98
-11.99
-12.72
-13.24
-13.76
-14.49
-15.52
-16.80
-18.06
-18.95
-19.12
-18.27
-16.30
-13.27
-9.40
-5.02
-0.53
3.68
7.29
10.06
11.89
12.83
13.00
12.61
11.86
10.91
9.90
8.94
8.12
7.54
7.23
7.14
7.16
7.18
7.10
6.88
6.51
5.99
5.29
4.38
3.25
1.97
0.66
-0.57
-1.68
-2.66
-3.60
-4.55
-5.55
-6.61
-7.70
-8.80
-9.88
-10.94
-12.00
-13.15
-14.47
-15.97
-17.53
-18.83
-19.48
-19.11
-17.52
-14.76
-11.11
-7.00
-2.85
1.01
4.38
7.14
9.21
10.55
11.10
10.91
10.06
8.77
7.32
5.92
4.72
3.71
2.80
1.86
0.88
-0.11
-1.01
-1.76
-2.38
-2.95
-3.56
-4.25
-4.98
-5.62
-6.08
-6.22
-6.01
-5.42
-4.54
-3.56
-2.73
-2.27
-2.31
-2.80
-3.52
-4.26
-4.94
-5.61
-6.46
-7.59
-8.92
-10.08
-10.53
-9.80
-7.68
-4.29
-0.07
4.39
8.55
12.04
14.68
16.50
17.60
18.09
18.03
17.46
16.44
15.08
13.55
12.06
10.80
9.84
9.17
8.67
8.22
7.73
7.24
6.80
6.46
6.18
5.85
5.35
4.61
3.63
2.53
1.45
0.47
-0.39
-1.23
-2.14
-3.21
-4.44
-5.78
-7.18
-8.62
-10.11
-11.73
-13.49
-15.30
-16.96
-18.14
-18.51
-17.77
-15.84
-12.87
-9.21
-5.30
-1.58
1.63
4.17
5.94
6.90
7.01
6.25
4.69
2.52
0.04
-2.41
-4.56
-6.31
-7.71
-8.88
-9.97
-11.03
-11.96
-12.63
-12.86
-12.54
-11.62
-10.10
-8.08
-5.70
-3.19
-0.77
1.27
2.78
3.65
3.94
3.82
3.42
2.84
2.07
1.05
-0.28
-1.93
-3.74
-5.45
-6.71
-7.15
-6.46
-4.52
-1.41
2.59
7.03
11.41
15.28
18.37
20.58
21.96
22.60
22.62
22.11
21.20
20.01
18.71
17.43
16.25
15.14
14.05
12.91
11.76
10.70
9.84
9.24
8.86
8.57
8.18
7.52
6.44
4.93
3.09
1.10
-0.77
-2.31
-3.47
-4.36
-5.26
-6.48
-8.20
-10.42
-12.98
-15.61
-18.03
-19.98
-21.21
-21.50
-20.73
-18.93
-16.38
-13.52
-10.82
-8.61
-7.01
-5.95
-5.29
-4.95
-4.93
-5.23
-5.83
-6.64
-7.47
-8.13
-8.48
-8.43
-7.91
-6.92
-5.51
-3.77
-1.83
0.23
2.32
4.41
6.47
8.42
10.15
11.53
12.49
12.99
13.04
12.63
11.79
10.54
8.95
7.15
5.25
3.28
1.23
-0.94
-3.21
-5.36
-7.04
-7.83
-7.43
-5.75
-2.96
0.67
4.80
9.14
13.47
17.60
21.29
24.33
26.47
27.60
27.74
27.05
25.84
24.41
23.06
22.00
21.32
20.99
20.85
20.73
20.45
19.84
18.86
17.59
16.20
14.91
13.86
13.00
12.28
11.54
10.66
9.70
9.00
9.06
10.29
12.75
16.04
19.70
23.05
25.40
26.18
25.22
22.79
19.56
16.45
14.37
14.48
17.33
22.57
29.04
35.25
39.95
42.39
42.46
40.53
37.80
35.20
33.11
31.32
29.48
27.50
25.59
24.08
19.42
9.80
-4.40
-20.94
-37.17
-51.38
-62.72
-71.08
-77.06
-81.71
-85.53
-88.74
-91.21
-92.58
-92.55
-90.98
-87.97
-83.79
-78.65
-72.20
-64.29
-55.26
-45.78
-36.66
-28.14
-19.98
-11.75
-3.28
5.26
13.04
18.97
22.60
24.17
25.21
27.98
34.36
44.90
58.31
71.53
80.00
80.96
73.51
59.39
41.79
24.03
8.45
-3.86
-12.73
-18.45
-21.40
-22.99
-24.26
-26.77
-31.82
-39.62
-48.96
-57.60
-63.25
-63.51
-59.20
-52.00
-44.01
-36.78
-31.02
-26.73
-23.56
-21.23
-19.61
-18.95
-19.26
-20.39
-21.94
-23.16
-23.17
-21.17
-16.67
-9.61
-0.43
10.39
22.08
33.39
42.63
47.86
47.49
40.90
28.77
12.92
-4.13
-20.00
-32.78
-41.16
-44.23
-41.68
-33.53
-20.75
-5.26
10.64
24.79
35.78
43.17
47.08
48.38
47.88
46.12
43.46
40.25
36.85
33.67
31.13
29.56
29.27
30.44
33.15
36.92
40.73
42.93
41.59
35.26
23.84
8.88
-6.84
-20.34
-29.64
-34.31
-35.35
-34.30
-32.39
-30.05
-27.20
-23.80
-20.28
-17.45
-16.11
-16.53
-18.36
-20.79
-22.98
-24.35
-24.81
-24.59
-24.03
-23.40
-22.73
-21.90
-20.69
-18.80
-16.08
-12.69
-8.97
-5.41
-2.44
-0.27
1.16
2.12
2.97
3.92
4.98
5.96
6.57
6.62
6.08
5.17
4.22
3.54
3.31
3.47
3.77
3.93
3.71
3.01
1.92
0.66
-0.46
-1.11
-1.03
-0.06
1.77
4.23
6.90
9.32
11.07
11.88
11.70
10.69
9.07
7.12
5.08
3.12
1.35
-0.15
-1.37
-2.29
-2.93
-3.33
-3.54
-3.62
-3.63
-3.70
-3.95
-4.44
-5.11
-5.78
-6.30
-6.60
-6.77
-7.01
-7.53
-8.35
-9.49
-10.70
-11.72
-12.39
-12.80
-13.19
-13.82
-14.80
-16.04
-17.31
-18.36
-19.14
-19.80
-20.64
-21.96
-23.93
-26.45
-29.18
-31.65
-33.29
-33.63
-32.34
-29.30
-24.60
-18.51
-11.44
-3.92
3.49
10.28
16.02
20.45
23.47
25.13
25.69
25.48
24.92
24.38
24.11
24.24
24.71
25.43
26.26
27.06
27.76
28.30
28.63
28.77
28.80
28.80
28.84
28.90
28.81
28.31
27.19
25.42
23.14
20.64
18.20
15.95
13.82
11.70
9.46
7.09
4.67
2.33
0.14
-1.92
-3.94
-6.07
-8.46
-11.22
-14.42
-18.02
-21.75
-25.18
-27.68
-28.65
-27.67
-24.70
-20.02
-14.21
-7.91
-1.75
3.81
8.44
11.88
14.02
14.81
14.38
13.04
11.24
9.41
7.86
6.66
5.69
4.73
3.59
2.16
0.45
-1.49
-3.59
-5.82
-8.18
-10.64
-13.15
-15.66
-18.10
-20.45
-22.68
-24.82
-26.90
-28.92
-30.81
-32.48
-33.79
-34.64
-35.01
-35.01
-34.87
-34.82
-35.03
-35.56
-36.39
-37.39
-38.44
-39.32
-39.75
-39.34
-37.69
-34.51
-29.73
-23.59
-16.58
-9.32
-2.42
3.68
8.73
12.62
15.37
17.06
17.83
17.86
17.41
16.75
16.18
15.92
16.06
16.56
17.27
17.96
18.44
18.61
18.47
18.10
17.58
17.00
16.42
15.83
15.17
14.33
13.19
11.65
9.70
7.45
5.13
2.94
0.98
-0.74
-2.36
-4.05
-5.98
-8.25
-10.89
-13.79
-16.66
-19.02
-20.29
-19.92
-17.61
-13.47
-7.98
-1.93
3.91
8.94
12.87
15.69
17.56
18.64
19.06
18.87
18.14
16.95
15.51
14.11
13.02
12.43
12.37
12.72
13.25
13.73
14.00
14.01
13.78
13.39
12.88
12.25
11.44
10.40
9.08
7.54
5.88
4.21
2.61
1.10
-0.41
-2.01
-3.80
-5.80
-8.01
-10.41
-12.93
-15.45
-17.70
-19.27
-19.67
-18.53
-15.72
-11.47
-6.26
-0.69
4.74
9.64
13.79
17.06
19.30
20.44
20.50
19.68
18.35
16.89
15.64
14.75
14.23
13.93
13.70
13.43
13.07
12.61
12.09
11.55
10.99
10.39
9.70
8.86
7.81
6.52
4.96
3.18
1.29
-0.56
-2.23
-3.63
-4.79
-5.89
-7.15
-8.78
-10.88
-13.31
-15.73
-17.71
-18.77
-18.56
-16.90
-13.84
-9.60
-4.55
0.86
6.16
10.94
14.85
17.68
19.32
19.79
19.26
18.03
16.44
14.88
13.67
12.98
12.83
13.04
13.33
13.42
13.14
12.50
11.63
10.73
9.92
9.18
8.40
7.38
6.01
4.27
2.29
0.25
-1.68
-3.37
-4.81
-6.02
-7.09
-8.19
-9.50
-11.16
-13.25
-15.63
-17.94
-19.68
-20.27
-19.30
-16.64
-12.47
-7.25
-1.55
4.11
9.29
13.66
17.02
19.27
20.42
20.60
20.09
19.21
18.27
17.45
16.83
16.36
15.98
15.62
15.23
14.80
14.31
13.76
13.13
12.40
11.56
10.59
9.45
8.15
6.68
5.09
3.40
1.68
0.00
-1.58
-3.03
-4.33
-5.57
-6.86
-8.38
-10.21
-12.30
-14.41
-16.16
-17.12
-16.96
-15.50
-12.79
-9.07
-4.70
-0.09
4.34
8.29
11.52
13.86
15.26
15.74
15.44
14.58
13.43
12.21
11.11
10.22
9.59
9.25
9.21
9.42
9.76
10.05
10.11
9.83
9.25
8.49
7.71
6.94
6.15
5.22
4.08
2.76
1.37
0.07
-1.08
-2.10
-3.12
-4.29
-5.76
-7.58
-9.68
-11.83
-13.72
-14.95
-15.16
-14.09
-11.69
-8.16
-3.87
0.66
4.97
8.69
11.62
13.68
14.90
15.35
15.11
14.31
13.13
11.82
10.61
9.69
9.11
8.83
8.68
8.50
8.19
7.69
7.04
6.29
5.48
4.60
3.58
2.39
0.99
-0.59
-2.24
-3.86
-5.35
-6.70
-7.99
-9.30
-10.72
-12.27
-13.89
-15.47
-16.83
-17.78
-18.15
-17.79
-16.59
-14.51
-11.58
-7.93
-3.81
0.39
4.20
7.18
9.04
9.75
9.53
8.76
7.82
6.95
6.23
5.66
5.17
4.76
4.47
4.34
4.37
4.49
4.54
4.38
3.90
3.10
2.04
0.88
-0.26
-1.32
-2.35
-3.45
-4.72
-6.18
-7.76
-9.40
-11.03
-12.69
-14.40
-16.05
-17.38
-18.03
-17.61
-15.94
-13.07
-9.30
-5.06
-0.78
3.16
6.52
9.15
10.95
11.94
12.17
11.80
11.02
10.03
9.01
8.09
7.35
6.82
6.47
6.24
6.02
5.72
5.26
4.64
3.88
3.00
1.99
0.79
-0.65
-2.31
-4.06
-5.70
-7.06
-8.10
-8.98
-9.99
-11.41
-13.27
-15.34
-17.08
-17.94
-17.48
-15.62
-12.58
-8.83
-4.84
-0.99
2.49
5.46
7.82
9.42
10.19
10.15
9.47
8.45
7.39
6.48
5.75
5.12
4.46
3.72
2.92
2.19
1.64
1.29
1.09
0.90
0.58
0.02
-0.79
-1.78
-2.83
-3.84
-4.77
-5.68
-6.71
-7.99
-9.58
-11.35
-12.99
-14.09
-14.28
-13.36
-11.39
-8.59
-5.31
-1.89
1.38
4.30
6.73
8.55
9.72
10.27
10.30
9.91
9.23
8.32
7.26
6.14
5.09
4.24
3.69
3.42
3.33
3.24
2.94
2.31
1.31
-0.02
-1.52
-3.04
-4.44
-5.67
-6.72
-7.67
-8.61
-9.61
-10.75
-12.01
-13.29
-14.34
-14.82
-14.37
-12.77
-10.07
-6.58
-2.79
0.81
3.86
6.22
7.92
9.06
9.73
10.01
9.90
9.42
8.62
7.54
6.28
4.94
3.62
2.43
1.43
0.66
0.05
-0.48
-1.04
-1.73
-2.58
-3.53
-4.46
-5.23
-5.76
-6.02
-6.10
-6.16
-6.42
-7.04
-8.13
-9.65
-11.38
-12.98
-14.01
-14.11
-13.04
-10.80
-7.65
-3.98
-0.25
3.15
5.98
8.08
9.42
10.05
10.07
9.63
8.92
8.15
7.49
7.02
6.75
6.60
6.46
6.26
6.00
5.73
5.43
5.07
4.49
3.57
2.27
0.67
-1.02
-2.63
-4.01
-5.16
-6.15
-7.09
-8.10
-9.27
-10.69
-12.41
-14.42
-16.60
-18.67
-20.27
-21.04
-20.72
-19.24
-16.72
-13.42
-9.68
-5.85
-2.23
0.92
3.38
5.03
5.80
5.75
5.00
3.80
2.40
1.06
-0.06
-0.91
-1.56
-2.10
-2.67
-3.30
-4.03
-4.85
-5.76
-6.77
-7.85
-8.92
-9.82
-10.35
-10.37
-9.77
-8.60
-6.96
-5.00
-2.92
-0.90
0.85
2.13
2.80
2.78
2.23
1.47
1.00
1.32
2.76
5.36
8.84
12.67
16.32
19.38
21.67
23.23
24.10
24.32
23.83
22.62
20.75
18.52
16.27
14.36
12.98
12.07
11.39
10.64
9.61
8.25
6.69
5.10
3.61
2.26
1.00
-0.24
-1.49
-2.74
-3.98
-5.22
-6.48
-7.81
-9.24
-10.78
-12.41
-14.13
-15.90
-17.61
-19.12
-20.26
-20.84
-20.71
-19.71
-17.78
-14.91
-11.19
-6.90
-2.39
1.91
5.68
8.69
10.89
12.30
13.00
13.07
12.62
11.80
10.84
9.95
9.31
8.95
8.80
8.70
8.47
8.00
7.27
6.30
5.19
4.01
2.83
1.67
0.57
-0.49
-1.56
-2.69
-3.96
-5.39
-6.93
-8.48
-9.91
-11.19
-12.35
-13.56
-15.00
-16.81
-19.01
-21.41
-23.61
-25.10
-25.34
-24.02
-21.10
-16.87
-11.87
-6.68
-1.80
2.45
5.94
8.63
10.56
11.78
12.36
12.44
12.21
11.83
11.46
11.16
10.97
10.89
10.89
10.92
10.88
10.62
10.00
8.98
7.61
6.08
4.57
3.21
2.02
0.93
-0.13
-1.20
-2.29
-3.38
-4.50
-5.66
-6.88
-8.15
-9.44
-10.72
-12.03
-13.45
-15.08
-16.94
-18.85
-20.50
-21.43
-21.25
-19.72
-16.89
-13.11
-8.92
-4.90
-1.48
1.13
2.98
4.25
5.12
5.67
5.89
5.72
5.16
4.32
3.37
2.54
1.94
1.59
1.33
0.96
0.33
-0.61
-1.77
-3.01
-4.17
-5.21
-6.10
-6.87
-7.51
-7.94
-8.06
-7.75
-6.99
-5.83
-4.39
-2.83
-1.34
-0.09
0.75
1.02
0.63
-0.44
-2.11
-4.19
-6.35
-8.21
-9.32
-9.38
-8.25
-6.06
-3.14
0.04
3.06
5.69
7.82
9.46
10.62
11.25
11.25
10.57
9.24
7.46
5.55
3.85
2.67
2.19
2.43
3.30
4.62
6.18
7.82
9.38
10.73
11.79
12.48
12.77
12.68
12.28
11.64
10.86
10.01
9.14
8.31
7.58
6.99
6.50
5.96
5.15
3.81
1.78
-0.90
-3.93
-6.82
-8.98
-9.90
-9.29
-7.17
-3.83
0.20
4.36
8.15
11.25
13.55
15.04
15.79
15.82
15.15
13.83
12.05
10.08
8.27
6.90
6.01
5.46
4.95
4.19
3.00
1.39
-0.51
-2.50
-4.47
-6.36
-8.16
-9.89
-11.53
-13.05
-14.43
-15.70
-16.90
-18.16
-19.54
-21.12
-22.89
-24.82
-26.79
-28.67
-30.24
-31.27
-31.42
-30.38
-27.88
-23.83
-18.38
-11.93
-5.02
1.74
7.86
13.01
17.06
20.03
21.98
23.02
23.24
22.72
21.65
20.28
18.86
17.63
16.67
15.95
15.36
14.77
14.07
13.22
12.24
11.15
10.02
8.92
7.89
6.95
6.04
5.10
4.06
2.88
1.59
0.23
-1.15
-2.57
-4.05
-5.55
-6.93
-7.90
-8.14
-7.40
-5.65
-3.10
-0.15
2.79
5.36
7.37
8.76
9.56
9.79
9.52
8.79
7.76
6.59
5.44
4.46
3.72
3.23
2.96
2.90
2.97
3.09
3.14
3.00
2.63
2.07
1.43
0.83
0.36
0.06
-0.12
-0.31
-0.67
-1.35
-2.42
-3.83
-5.37
-6.65
-7.21
-6.66
-4.82
-1.79
2.01
6.06
9.86
13.05
15.51
17.25
18.31
18.71
18.40
17.37
15.65
13.40
10.79
8.00
5.17
2.42
-0.08
-2.13
-3.48
-3.97
-3.65
-2.71
-1.51
-0.42
0.28
0.48
0.26
-0.25
-0.89
-1.59
-2.45
-3.60
-5.19
-7.29
-9.74
-12.22
-14.26
-15.40
-15.27
-13.76
-10.98
-7.23
-2.96
1.37
5.30
8.46
10.59
11.60
11.54
10.62
9.14
7.41
5.66
4.08
2.72
1.59
0.65
-0.12
-0.77
-1.34
-1.85
-2.32
-2.73
-3.09
-3.45
-3.85
-4.39
-5.18
-6.26
-7.67
-9.35
-11.23
-13.20
-15.15
-16.93
-18.34
-19.13
-19.06
-17.96
-15.83
-12.86
-9.40
-5.87
-2.65
-0.02
1.90
3.09
3.60
3.55
3.02
2.14
1.04
-0.11
-1.12
-1.84
-2.18
-2.14
-1.83
-1.42
-1.09
-0.96
-1.10
-1.51
-2.15
-2.95
-3.82
-4.70
-5.53
-6.31
-7.14
-8.15
-9.51
-11.29
-13.39
-15.48
-17.08
-17.67
-16.89
-14.66
-11.25
-7.15
-2.92
0.96
4.20
6.67
8.38
9.37
9.68
9.38
8.55
7.32
5.86
4.34
2.92
1.73
0.86
0.29
-0.09
-0.43
-0.90
-1.56
-2.40
-3.34
-4.27
-5.15
-6.02
-6.94
-7.99
-9.22
-10.62
-12.13
-13.68
-15.15
-16.31
-16.89
-16.57
-15.14
-12.51
-8.80
-4.28
0.63
5.51
9.93
13.55
16.15
17.68
18.22
17.99
17.22
16.13
14.91
13.75
12.75
12.02
11.57
11.31
11.10
10.75
10.15
9.27
8.20
7.05
5.95
4.95
4.00
3.00
1.84
0.44
-1.22
-3.14
-5.26
-7.53
-9.82
-11.95
-13.63
-14.49
-14.25
-12.76
-10.14
-6.72
-2.97
0.65
3.79
6.26
7.98
8.93
9.14
8.67
7.66
6.35
4.99
3.81
2.97
2.49
2.28
2.20
2.10
1.87
1.43
0.84
0.17
-0.50
-1.11
-1.68
-2.24
-2.83
-3.44
-4.03
-4.55
-4.96
-5.31
-5.69
-6.18
-6.85
-7.75
-8.81
-9.87
-10.68
-10.83
-9.94
-7.76
-4.25
0.31
5.46
10.63
15.36
19.28
22.19
23.94
24.49
23.88
22.29
20.01
17.39
14.79
12.47
10.59
9.20
8.25
7.62
7.17
6.74
6.20
5.48
4.57
3.50
2.33
1.11
-0.13
-1.39
-2.69
-4.04
-5.46
-6.90
-8.29
-9.56
-10.65
-11.56
-12.36
-13.16
-14.09
-15.21
-16.50
-17.79
-18.76
-19.04
-18.26
-16.22
-12.95
-8.69
-3.85
1.10
5.71
9.59
12.53
14.41
15.33
15.49
15.16
14.60
13.96
13.33
12.69
12.05
11.39
10.68
9.89
8.98
7.96
6.91
5.92
5.10
4.43
3.82
3.14
2.32
1.38
0.45
-0.39
-1.14
-1.92
-2.87
-4.07
-5.43
-6.79
-7.93
-8.75
-9.31
-9.82
-10.49
-11.47
-12.77
-14.25
-15.68
-16.75
-17.17
-16.61
-14.90
-11.98
-8.07
-3.55
1.09
5.38
8.96
11.68
13.57
14.75
15.39
15.63
15.54
15.24
14.84
14.45
14.18
14.05
13.99
13.86
13.48
12.77
11.70
10.36
8.86
7.29
5.71
4.16
2.66
1.26
-0.04
-1.29
-2.58
-3.98
-5.55
-7.23
-8.92
-10.50
-11.87
-13.02
-13.97
-14.81
-15.64
-16.54
-17.58
-18.77
-20.02
-21.15
-21.92
-22.01
-21.18
-19.31
-16.48
-12.92
-9.00
-5.12
-1.60
1.30
3.47
4.87
5.57
5.69
5.39
4.91
4.50
4.38
4.71
5.55
6.80
8.27
9.73
10.97
11.80
12.15
12.07
11.66
11.04
10.28
9.38
8.28
6.96
5.45
3.87
2.36
0.99
-0.26
-1.47
-2.75
-4.10
-5.43
-6.66
-7.79
-8.90
-10.15
-11.61
-13.17
-14.55
-15.34
-15.19
-13.87
-11.40
-8.01
-4.11
-0.19
3.25
5.86
7.51
8.28
8.38
8.06
7.52
6.87
6.19
5.57
5.16
5.04
5.24
5.64
6.01
6.17
6.00
5.53
4.88
4.19
3.57
3.02
2.52
2.03
1.50
0.92
0.25
-0.53
-1.47
-2.57
-3.83
-5.17
-6.52
-7.80
-8.98
-10.05
-11.08
-12.15
-13.31
-14.54
-15.70
-16.53
-16.69
-15.88
-13.91
-10.80
-6.88
-2.60
1.50
5.04
7.79
9.75
10.98
11.56
11.55
11.02
10.08
8.94
7.86
7.08
6.68
6.61
6.69
6.71
6.51
6.08
5.43
4.66
3.84
2.99
2.09
1.10
-0.01
-1.22
-2.47
-3.69
-4.81
-5.80
-6.68
-7.48
-8.28
-9.10
-9.97
-10.89
-11.81
-12.71
-13.56
-14.38
-15.19
-15.97
-16.63
-16.96
-16.67
-15.47
-13.24
-10.06
-6.17
-1.93
2.33
6.30
9.74
12.42
14.13
14.75
14.33
13.15
11.64
10.26
9.34
8.99
9.15
9.60
10.13
10.60
10.90
11.02
10.94
10.66
10.20
9.62
9.02
8.52
8.17
7.97
7.83
7.64
7.30
6.84
6.36
5.99
5.83
5.87
6.01
6.12
6.08
5.85
5.53
5.30
5.43
6.24
8.03
11.03
15.29
20.62
26.57
32.49
37.63
41.30
43.02
42.58
40.06
35.74
30.01
23.28
15.93
8.28
0.66
-6.58
-13.09
-18.55
-22.73
-25.57
-27.17
-27.74
-27.61
-27.11
-26.63
-26.49
-26.90
-27.93
-29.45
-31.19
-32.85
-34.18
-35.09
-35.59
-35.78
-35.75
-35.57
-35.25
-34.86
-34.44
-34.10
-33.92
-33.96
-34.21
-34.67
-35.23
-35.73
-35.89
-35.30
-33.55
-30.36
-25.69
-19.82
-13.24
-6.58
-0.36
5.07
9.51
12.90
15.22
16.52
16.94
16.71
16.18
15.71
15.54
15.72
16.16
16.65
17.02
17.19
17.18
17.04
16.78
16.37
15.76
14.91
13.83
12.56
11.15
9.60
7.92
6.10
4.19
2.28
0.50
-1.03
-2.28
-3.28
-4.11
-4.92
-5.83
-6.99
-8.47
-10.29
-12.32
-14.27
-15.77
-16.44
-15.96
-14.19
-11.21
-7.28
-2.79
1.84
6.18
9.89
12.71
14.52
15.36
15.39
14.88
14.07
13.15
12.26
11.48
10.89
10.53
10.39
10.37
10.30
10.05
9.52
8.76
7.91
7.15
6.56
6.11
5.64
4.97
3.97
2.63
1.06
-0.60
-2.19
-3.62
-4.86
-5.93
-6.86
-7.69
-8.45
-9.16
-9.92
-10.82
-12.00
-13.55
-15.48
-17.64
-19.69
-21.15
-21.50
-20.38
-17.69
-13.69
-8.89
-3.87
0.84
4.98
8.40
11.07
12.96
14.04
14.33
13.96
13.19
12.29
11.50
10.94
10.61
10.38
10.15
9.82
9.36
8.83
8.29
7.82
7.41
6.97
6.33
5.33
3.90
2.14
0.29
-1.35
-2.60
-3.47
-4.14
-4.83
-5.73
-6.87
-8.13
-9.32
-10.32
-11.08
-11.66
-12.15
-12.67
-13.36
-14.35
-15.72
-17.49
-19.49
-21.38
-22.63
-22.73
-21.30
-18.28
-13.95
-8.85
-3.62
1.21
5.28
8.47
10.76
12.18
12.75
12.54
11.72
10.58
9.49
8.77
8.59
8.90
9.49
10.11
10.53
10.68
10.61
10.44
10.27
10.14
9.98
9.68
9.12
8.29
7.29
6.28
5.40
4.66
3.99
3.26
2.37
1.34
0.24
-0.81
-1.78
-2.69
-3.62
-4.64
-5.75
-6.93
-8.18
-9.54
-11.08
-12.79
-14.54
-16.04
-16.89
-16.69
-15.15
-12.16
-7.89
-2.73
2.82
8.20
13.02
17.05
20.23
22.63
24.32
25.32
25.62
25.24
24.28
22.90
21.30
19.60
17.79
15.77
13.40
10.57
7.29
3.61
-0.31
-4.27
-8.05
-11.38
-14.05
-15.89
-16.90
-17.17
-16.94
-16.44
-15.85
-15.27
-14.72
-14.24
-13.85
-13.59
-13.47
-13.41
-13.28
-12.96
-12.45
-11.85
-11.43
-11.49
-12.19
-13.52
-15.21
-16.80
-17.77
-17.65
-16.12
-13.10
-8.78
-3.57
1.99
7.39
12.22
16.22
19.29
21.39
22.55
22.83
22.38
21.46
20.38
19.44
18.80
18.48
18.37
18.33
18.23
18.04
17.75
17.38
16.89
16.25
15.42
14.35
13.04
11.52
9.85
8.13
6.49
5.05
3.86
2.93
2.19
1.55
0.91
0.19
-0.67
-1.64
-2.67
-3.65
-4.49
-5.17
-5.75
-6.40
-7.29
-8.53
-10.09
-11.74
-13.17
-14.03
-14.01
-12.95
-10.84
-7.81
-4.11
-0.09
3.89
7.46
10.37
12.45
13.69
14.12
13.82
12.88
11.45
9.75
8.06
6.64
5.68
5.19
5.05
5.09
5.14
5.14
5.05
4.90
4.62
4.18
3.52
2.67
1.68
0.66
-0.30
-1.17
-1.94
-2.62
-3.24
-3.85
-4.53
-5.32
-6.23
-7.23
-8.22
-9.13
-9.90
-10.52
-11.07
-11.66
-12.41
-13.44
-14.78
-16.32
-17.77
-18.70
-18.69
-17.42
-14.82
-11.11
-6.71
-2.15
2.11
5.76
8.62
10.67
11.96
12.57
12.56
12.04
11.15
10.05
8.97
8.07
7.47
7.19
7.16
7.27
7.42
7.50
7.50
7.39
7.19
6.90
6.51
5.94
5.15
4.09
2.79
1.33
-0.18
-1.63
-2.95
-4.11
-5.13
-6.03
-6.85
-7.63
-8.41
-9.32
-10.42
-11.77
-13.27
-14.67
-15.65
-15.82
-14.94
-12.90
-9.83
-6.04
-1.91
2.15
5.83
8.83
11.01
12.27
12.66
12.31
11.42
10.23
8.98
7.84
6.95
6.36
6.07
6.02
6.13
6.29
6.41
6.44
6.35
6.11
5.67
4.96
3.92
2.52
0.85
-0.94
-2.60
-3.96
-4.94
-5.61
-6.12
-6.64
-7.27
-8.02
-8.87
-9.83
-10.98
-12.36
-13.92
-15.40
-16.40
-16.44
-15.19
-12.63
-9.04
-4.93
-0.86
2.77
5.77
8.11
9.84
10.95
11.42
11.24
10.52
9.49
8.47
7.72
7.35
7.32
7.51
7.74
7.92
8.01
7.96
7.74
7.30
6.59
5.64
4.51
3.33
2.19
1.13
0.14
-0.86
-1.95
-3.21
-4.59
-5.99
-7.26
-8.28
-9.03
-9.66
-10.43
-11.62
-13.31
-15.33
-17.26
-18.57
-18.79
-17.62
-15.08
-11.39
-6.94
-2.17
2.51
6.74
10.23
12.77
14.25
14.67
14.19
13.08
11.74
10.55
9.79
9.56
9.73
10.03
10.18
10.04
9.59
8.97
8.30
7.63
6.94
6.15
5.25
4.31
3.39
2.54
1.67
0.65
-0.64
-2.19
-3.90
-5.56
-7.02
-8.23
-9.23
-10.10
-10.91
-11.70
-12.52
-13.47
-14.62
-16.01
-17.50
-18.77
-19.42
-19.03
-17.39
-14.50
-10.64
-6.19
-1.57
2.85
6.84
10.22
12.87
14.71
15.68
15.76
15.05
13.76
12.17
10.61
9.32
8.46
8.02
7.94
8.08
8.29
8.42
8.35
8.00
7.35
6.44
5.35
4.17
2.97
1.79
0.66
-0.42
-1.44
-2.40
-3.32
-4.25
-5.18
-6.12
-7.08
-8.05
-9.06
-10.15
-11.32
-12.56
-13.84
-15.13
-16.42
-17.68
-18.84
-19.72
-20.06
-19.56
-17.99
-15.32
-11.68
-7.42
-2.98
1.20
4.74
7.41
9.16
10.11
10.51
10.58
10.53
10.47
10.46
10.55
10.79
11.21
11.76
12.29
12.59
12.52
12.02
11.22
10.32
9.47
8.72
7.98
7.13
6.10
4.89
3.63
2.42
1.33
0.30
-0.73
-1.85
-3.09
-4.40
-5.70
-6.94
-8.08
-9.19
-10.34
-11.61
-13.08
-14.72
-16.45
-18.06
-19.27
-19.82
-19.48
-18.15
-15.86
-12.75
-9.03
-4.96
-0.84
3.00
6.24
8.68
10.28
11.14
11.47
11.47
11.25
10.87
10.38
9.93
9.72
9.92
10.53
11.39
12.17
12.59
12.49
11.98
11.27
10.59
10.01
9.43
8.65
7.50
5.95
4.12
2.23
0.46
-1.06
-2.33
-3.40
-4.36
-5.22
-6.00
-6.69
-7.31
-7.94
-8.69
-9.68
-11.01
-12.73
-14.76
-16.87
-18.70
-19.78
-19.73
-18.33
-15.65
-12.01
-7.84
-3.55
0.58
4.41
7.82
10.67
12.75
13.90
14.12
13.65
12.84
12.10
11.64
11.47
11.44
11.37
11.19
10.95
10.74
10.64
10.64
10.64
10.54
10.26
9.77
9.04
8.06
6.85
5.41
3.79
2.11
0.47
-0.99
-2.16
-3.02
-3.64
-4.21
-4.95
-6.04
-7.55
-9.36
-11.27
-13.12
-14.81
-16.42
-18.06
-19.76
-21.36
-22.50
-22.78
-21.87
-19.67
-16.34
-12.26
-7.92
-3.76
-0.14
2.76
4.82
6.05
6.50
6.29
5.62
4.73
3.89
3.36
3.30
3.72
4.49
5.34
5.99
6.24
6.05
5.57
5.01
4.56
4.29
4.13
3.90
3.47
2.76
1.83
0.79
-0.23
-1.15
-1.95
-2.64
-3.22
-3.68
-4.00
-4.24
-4.50
-4.88
-5.48
-6.30
-7.28
-8.26
-9.05
-9.45
-9.28
-8.36
-6.57
-3.85
-0.20
4.27
9.35
14.76
20.14
25.08
29.13
31.90
33.13
32.74
30.91
28.00
24.44
20.63
16.81
13.08
9.44
5.87
2.41
-0.83
-3.70
-6.06
-7.90
-9.32
-10.58
-11.95
-13.60
-15.57
-17.69
-19.73
-21.51
-22.97
-24.20
-25.32
-26.38
-27.31
-27.99
-28.31
-28.32
-28.21
-28.22
-28.55
-29.22
-30.07
-30.82
-31.11
-30.63
-29.13
-26.51
-22.79
-18.16
-12.96
-7.60
-2.49
2.03
5.78
8.68
10.76
12.10
12.79
12.94
12.68
12.20
11.68
11.28
11.09
11.14
11.35
11.61
11.80
11.80
11.54
11.00
10.24
9.35
8.47
7.69
7.06
6.51
5.93
5.20
4.25
3.12
1.88
0.59
-0.71
-2.08
-3.53
-5.09
-6.75
-8.53
-10.48
-12.63
-14.93
-17.13
-18.79
-19.40
-18.52
-15.97
-11.95
-6.92
-1.51
3.68
8.22
11.91
14.70
16.65
17.82
18.29
18.10
17.34
16.18
14.83
13.56
12.54
11.89
11.55
11.41
11.30
11.09
10.70
10.12
9.38
8.47
7.38
6.10
4.60
2.94
1.22
-0.44
-1.95
-3.29
-4.49
-5.64
-6.80
-7.97
-9.08
-10.10
-11.06
-12.06
-13.20
-14.48
-15.74
-16.64
-16.79
-15.90
-13.86
-10.77
-6.91
-2.67
1.59
5.51
8.83
11.32
12.89
13.60
13.59
13.14
12.51
11.90
11.42
11.04
10.70
10.33
9.88
9.36
8.80
8.20
7.53
6.79
5.97
5.11
4.27
3.46
2.67
1.85
0.94
-0.05
-1.10
-2.16
-3.21
-4.27
-5.37
-6.55
-7.81
-9.18
-10.68
-12.38
-14.26
-16.23
-18.06
-19.40
-19.90
-19.28
-17.45
-14.51
-10.75
-6.59
-2.48
1.16
4.04
5.96
6.91
6.94
6.21
4.94
3.38
1.80
0.46
-0.49
-0.97
-1.06
-0.93
-0.77
-0.73
-0.89
-1.21
-1.57
-1.82
-1.88
-1.72
-1.44
-1.19
-1.05
-1.07
-1.21
-1.37
-1.50
-1.59
-1.68
-1.87
-2.27
-2.92
-3.86
-5.03
-6.34
-7.66
-8.89
-9.90
-10.58
-10.76
-10.26
-8.90
-6.56
-3.31
0.61
4.78
8.78
12.24
14.97
16.95
18.24
18.92
19.08
18.74
17.91
16.67
15.18
13.68
12.40
11.48
10.92
10.60
10.30
9.87
9.26
8.53
7.76
7.02
6.25
5.32
4.09
2.51
0.65
-1.33
-3.25
-4.94
-6.36
-7.52
-8.49
-9.37
-10.23
-11.13
-12.05
-12.89
-13.47
-13.60
-13.11
-11.90
-10.02
-7.57
-4.71
-1.59
1.67
4.93
8.07
10.91
13.34
15.25
16.66
17.64
18.31
18.80
19.20
19.61
20.12
20.87
21.94
23.30
24.79
26.08
26.74
26.37
24.72
21.77
17.75
13.07
8.21
3.60
-0.47
-3.83
-6.47
-8.48
-10.01
-11.23
-12.27
-13.22
-14.12
-14.92
-15.55
-15.86
-15.74
-15.12
-14.00
-12.48
-10.70
-8.76
-6.71
-4.48
-1.95
0.91
4.01
7.08
9.74
11.67
12.77
13.19
13.28
13.45
14.00
15.03
16.38
17.75
18.82
19.32
19.16
18.35
17.02
15.25
13.12
10.65
7.88
4.91
1.92
-0.94
-3.55
-5.83
-7.76
-9.33
-10.58
-11.60
-12.60
-13.91
-15.84
-18.60
-22.15
-26.20
-30.24
-33.69
-35.97
-36.66
-35.52
-32.53
-27.98
-22.41
-16.54
-11.17
-6.97
-4.27
-3.10
-3.17
-4.05
-5.25
-6.41
-7.29
-7.71
-7.60
-6.88
-5.55
-3.65
-1.32
1.18
3.57
5.56
6.94
7.60
7.52
6.78
5.53
3.95
2.24
0.65
-0.60
-1.33
-1.46
-1.04
-0.24
0.70
1.58
2.30
2.94
3.65
4.58
5.80
7.21
8.60
9.72
10.43
10.69
10.64
10.42
10.14
9.78
9.20
8.27
6.91
5.14
3.10
0.93
-1.23
-3.28
-5.06
-6.42
-7.20
-7.30
-6.78
-5.85
-4.82
-3.94
-3.39
-3.21
-3.34
-3.72
-4.30
-5.03
-5.86
-6.68
-7.44
-8.14
-8.89
-9.84
-11.09
-12.55
-13.96
-14.92
-15.00
-13.92
-11.61
-8.25
-4.20
0.12
4.24
7.80
10.54
12.35
13.26
13.44
13.10
12.46
11.67
10.84
10.04
9.31
8.70
8.20
7.78
7.35
6.81
6.09
5.20
4.19
3.09
1.92
0.63
-0.83
-2.46
-4.16
-5.78
-7.19
-8.38
-9.46
-10.62
-12.05
-13.78
-15.65
-17.31
-18.27
-18.09
-16.47
-13.37
-9.05
-3.98
1.20
5.93
9.82
12.72
14.73
16.05
16.87
17.29
17.29
16.82
15.87
14.55
13.07
11.62
10.32
9.17
8.07
6.89
5.55
4.03
2.38
0.69
-0.96
-2.50
-3.93
-5.27
-6.57
-7.86
-9.19
-10.58
-12.05
-13.62
-15.26
-16.84
-18.12
-18.75
-18.35
-16.67
-13.68
-9.61
-4.92
-0.10
4.42
8.44
11.88
14.76
17.04
18.66
19.52
19.65
19.19
18.36
17.40
16.44
15.47
14.41
13.14
11.64
9.97
8.28
6.75
5.49
4.53
3.79
3.09
2.23
1.11
-0.24
-1.70
-3.10
-4.38
-5.55
-6.72
-8.03
-9.56
-11.30
-13.17
-14.99
-16.54
-17.50
-17.56
-16.45
-14.08
-10.57
-6.24
-1.58
2.92
6.81
9.84
11.87
12.96
13.27
12.99
12.33
11.40
10.29
9.02
7.63
6.19
4.80
3.56
2.51
1.65
0.95
0.34
-0.22
-0.80
-1.48
-2.38
-3.58
-5.13
-6.95
-8.89
-10.77
-12.50
-14.08
-15.66
-17.39
-19.36
-21.49
-23.50
-24.97
-25.46
-24.60
-22.18
-18.26
-13.14
-7.35
-1.52
3.79
8.23
11.68
14.18
15.88
16.88
17.24
17.02
16.27
15.10
13.64
12.06
10.51
9.17
8.17
7.65
7.60
7.86
8.16
8.18
7.74
6.79
5.42
3.75
1.90
-0.11
-2.27
-4.48
-6.64
-8.60
-10.28
-11.75
-13.22
-14.87
-16.75
-18.65
-20.08
-20.45
-19.28
-16.46
-12.23
-7.12
-1.78
3.28
7.74
11.47
14.39
16.43
17.49
17.57
16.77
15.35
13.65
11.97
10.53
9.36
8.44
7.66
6.92
6.19
5.44
4.71
4.05
3.52
3.09
2.65
2.05
1.13
-0.18
-1.84
-3.70
-5.57
-7.37
-9.05
-10.65
-12.22
-13.80
-15.40
-17.02
-18.66
-20.31
-21.88
-23.16
-23.80
-23.40
-21.66
-18.49
-14.10
-8.93
-3.58
1.43
5.75
9.22
11.83
13.59
14.52
14.63
14.02
12.91
11.64
10.53
9.76
9.29
8.97
8.60
8.13
7.63
7.21
6.94
6.76
6.48
5.95
5.09
4.00
2.82
1.71
0.73
-0.17
-1.09
-2.10
-3.21
-4.35
-5.44
-6.41
-7.22
-7.87
-8.44
-9.04
-9.81
-10.80
-11.92
-12.94
-13.46
-13.03
-11.30
-8.13
-3.67
1.70
7.38
12.81
17.53
21.28
24.02
25.85
26.91
27.38
27.38
27.02
26.42
25.71
25.03
24.51
24.22
24.23
24.52
25.07
25.79
26.57
27.32
27.96
28.48
28.91
29.36
29.95
30.79
31.86
33.02
33.90
33.95
32.62
29.48
24.39
17.53
9.33
0.26
-9.31
-19.12
-29.05
-38.91
-48.44
-57.27
-64.91
-70.83
-74.54
-75.68
-74.04
-69.73
-63.14
-54.91
-45.90
-36.93
-28.68
-21.61
-15.90
-11.54
-8.36
-6.09
-4.41
-2.99
-1.59
-0.10
1.43
2.78
3.70
4.01
3.71
2.98
2.12
1.46
1.19
1.29
1.55
1.70
1.49
0.85
-0.10
-1.11
-1.89
-2.26
-2.21
-1.85
-1.44
-1.22
-1.41
-2.10
-3.28
-4.74
-6.15
-7.07
-7.10
-5.98
-3.70
-0.49
3.25
7.08
10.59
13.54
15.76
17.17
17.68
17.24
15.92
13.90
11.52
9.15
7.13
5.66
4.75
4.32
4.24
4.34
4.48
4.50
4.24
3.61
2.57
1.19
-0.43
-2.14
-3.87
-5.55
-7.11
-8.43
-9.43
-10.07
-10.47
-10.82
-11.37
-12.28
-13.59
-15.10
-16.53
-17.52
-17.75
-16.98
-15.14
-12.33
-8.80
-4.91
-1.00
2.65
5.94
8.85
11.37
13.43
14.90
15.61
15.53
14.76
13.54
12.17
10.90
9.88
9.12
8.52
8.00
7.48
6.93
6.37
5.81
5.26
4.62
3.81
2.73
1.36
-0.20
-1.74
-3.01
-3.85
-4.29
-4.49
-4.75
-5.32
-6.32
-7.66
-9.07
-10.17
-10.61
-10.11
-8.53
-5.94
-2.54
1.31
5.23
8.83
11.78
13.88
15.08
15.47
15.30
14.92
14.68
14.80
15.32
16.09
16.81
17.19
17.04
16.37
15.27
13.93
12.48
10.96
9.33
7.58
5.66
3.62
1.52
-0.56
-2.52
-4.29
-5.80
-7.07
-8.18
-9.27
-10.48
-11.92
-13.53
-15.14
-16.41
-17.00
-16.59
-15.07
-12.49
-9.09
-5.27
-1.45
1.98
4.73
6.65
7.70
7.97
7.60
6.80
5.78
4.73
3.77
2.97
2.30
1.73
1.25
0.87
0.60
0.43
0.33
0.15
-0.22
-0.91
-1.92
-3.19
-4.61
-6.02
-7.34
-8.53
-9.66
-10.85
-12.22
-13.88
-15.78
-17.69
-19.20
-19.87
-19.34
-17.45
-14.34
-10.40
-6.11
-1.93
1.80
4.89
7.30
9.06
10.22
10.82
10.91
10.51
9.71
8.63
7.43
6.26
5.27
4.50
3.92
3.45
2.97
2.42
1.79
1.13
0.48
-0.10
-0.64
-1.20
-1.86
-2.66
-3.61
-4.70
-5.95
-7.42
-9.15
-11.05
-12.87
-14.20
-14.53
-13.52
-11.10
-7.54
-3.34
0.93
4.86
8.23
11.00
13.20
14.84
15.85
16.17
15.79
14.80
13.37
11.75
10.14
8.66
7.39
6.36
5.56
4.98
4.56
4.23
3.84
3.27
2.39
1.16
-0.39
-2.12
-3.85
-5.39
-6.67
-7.72
-8.72
-9.89
-11.40
-13.22
-15.10
-16.63
-17.35
-16.95
-15.31
-12.56
-8.97
-4.83
-0.44
3.92
7.99
11.46
14.06
15.61
16.13
15.82
15.04
14.10
13.19
12.35
11.47
10.47
9.40
8.40
7.64
7.20
7.01
6.85
6.48
5.74
4.57
3.04
1.24
-0.70
-2.72
-4.72
-6.62
-8.33
-9.80
-11.05
-12.19
-13.38
-14.82
-16.59
-18.65
-20.72
-22.34
-22.96
-22.14
-19.69
-15.77
-10.88
-5.62
-0.54
4.02
7.96
11.33
14.18
16.50
18.19
19.12
19.25
18.66
17.61
16.37
15.18
14.14
13.26
12.46
11.70
11.01
10.40
9.88
9.37
8.72
7.79
6.50
4.93
3.26
1.71
0.43
-0.56
-1.36
-2.16
-3.12
-4.31
-5.73
-7.27
-8.83
-10.32
-11.73
-13.14
-14.67
-16.45
-18.51
-20.71
-22.72
-24.10
-24.44
-23.42
-21.03
-17.46
-13.09
-8.37
-3.67
0.71
4.59
7.82
10.31
11.99
12.89
13.17
13.04
12.73
12.38
12.07
11.77
11.46
11.15
10.89
10.74
10.67
10.58
10.34
9.81
8.95
7.82
6.50
5.10
3.68
2.24
0.78
-0.70
-2.18
-3.61
-4.93
-6.13
-7.23
-8.30
-9.41
-10.62
-11.95
-13.40
-14.98
-16.70
-18.48
-20.15
-21.37
-21.70
-20.78
-18.45
-14.86
-10.41
-5.59
-0.84
3.58
7.54
10.94
13.69
15.63
16.68
16.87
16.35
15.40
14.26
13.17
12.24
11.56
11.14
10.91
10.78
10.64
10.38
9.98
9.46
8.82
8.07
7.17
6.10
4.90
3.67
2.51
1.51
0.64
-0.23
-1.25
-2.51
-4.05
-5.77
-7.51
-9.11
-10.47
-11.57
-12.55
-13.59
-14.90
-16.55
-18.47
-20.40
-21.99
-22.88
-22.73
-21.35
-18.65
-14.75
-9.95
-4.72
0.38
4.86
8.42
11.02
12.79
13.93
14.60
14.81
14.56
13.90
13.00
12.11
11.44
11.05
10.86
10.69
10.40
9.95
9.44
8.97
8.58
8.20
7.67
6.86
5.73
4.36
2.91
1.55
0.37
-0.64
-1.59
-2.66
-3.98
-5.61
-7.45
-9.33
-11.06
-12.56
-13.86
-15.10
-16.43
-17.90
-19.50
-21.09
-22.47
-23.46
-23.80
-23.28
-21.68
-18.92
-15.12
-10.60
-5.83
-1.29
2.71
6.04
8.77
11.04
12.92
14.39
15.35
15.76
15.67
15.28
14.87
14.70
14.86
15.25
15.66
15.86
15.76
15.40
14.92
14.45
14.01
13.50
12.73
11.58
10.00
8.13
6.16
4.31
2.73
1.44
0.38
-0.61
-1.65
-2.82
-4.14
-5.54
-6.94
-8.29
-9.57
-10.83
-12.15
-13.60
-15.20
-16.86
-18.46
-19.83
-20.79
-21.13
-20.66
-19.23
-16.75
-13.28
-9.07
-4.48
0.05
4.16
7.57
10.18
11.94
12.93
13.21
12.93
12.29
11.58
11.08
10.97
11.32
12.01
12.78
13.41
13.70
13.65
13.33
12.88
12.36
11.79
11.07
10.11
8.87
7.36
5.66
3.86
2.06
0.35
-1.16
-2.36
-3.21
-3.76
-4.14
-4.56
-5.23
-6.23
-7.54
-9.02
-10.49
-11.78
-12.81
-13.61
-14.26
-14.92
-15.71
-16.70
-17.82
-18.96
-19.86
-20.27
-19.91
-18.59
-16.23
-12.93
-8.92
-4.57
-0.27
3.64
6.95
9.57
11.46
12.67
13.22
13.16
12.58
11.62
10.47
9.32
8.36
7.67
7.25
7.01
6.82
6.54
6.09
5.46
4.71
3.93
3.18
2.47
1.78
1.09
0.33
-0.48
-1.34
-2.19
-2.99
-3.73
-4.44
-5.17
-6.00
-6.92
-7.85
-8.64
-9.17
-9.41
-9.47
-9.54
-9.80
-10.34
-11.10
-11.96
-12.82
-13.67
-14.53
-15.30
-15.74
-15.45
-14.05
-11.37
-7.54
-3.03
1.61
5.90
9.54
12.47
14.72
16.28
17.13
17.21
16.58
15.40
13.93
12.50
11.35
10.63
10.37
10.47
10.76
11.03
11.14
10.99
10.57
9.93
9.15
8.28
7.36
6.41
5.42
4.41
3.36
2.26
1.11
-0.12
-1.41
-2.71
-3.97
-5.13
-6.17
-7.11
-8.01
-8.97
-10.08
-11.42
-12.98
-14.72
-16.50
-18.10
-19.27
-19.74
-19.27
-17.73
-15.14
-11.62
-7.45
-2.98
1.42
5.40
8.70
11.16
12.74
13.50
13.60
13.21
12.53
11.71
10.85
10.00
9.20
8.49
7.93
7.56
7.39
7.37
7.38
7.27
6.96
6.42
5.67
4.78
3.84
2.85
1.85
0.83
-0.22
-1.27
-2.30
-3.31
-4.31
-5.33
-6.45
-7.67
-9.01
-10.41
-11.80
-13.15
-14.51
-15.97
-17.63
-19.43
-21.11
-22.25
-22.42
-21.31
-18.90
-15.43
-11.31
-6.92
-2.53
1.70
5.64
9.13
11.92
13.75
14.53
14.37
13.58
12.54
11.59
10.93
10.63
10.66
10.92
11.27
11.53
11.52
11.13
10.36
9.35
8.28
7.26
6.31
5.34
4.21
2.89
1.42
-0.10
-1.65
-3.26
-5.01
-6.93
-8.95
-10.90
-12.61
-14.06
-15.36
-16.69
-18.18
-19.75
-21.09
-21.80
-21.53
-20.08
-17.45
-13.83
-9.50
-4.80
-0.08
4.28
7.96
10.74
12.55
13.47
13.63
13.19
12.31
11.12
9.80
8.57
7.60
6.96
6.67
6.62
6.74
7.00
7.35
7.74
8.06
8.15
7.90
7.29
6.41
5.38
4.26
3.07
1.72
0.17
-1.58
-3.46
-5.38
-7.30
-9.21
-11.10
-12.97
-14.71
-16.12
-16.92
-16.82
-15.60
-13.22
-9.85
-5.84
-1.67
2.26
5.62
8.23
10.02
10.98
11.12
10.53
9.39
7.96
6.49
5.23
4.27
3.56
2.99
2.50
2.04
1.68
1.48
1.46
1.55
1.58
1.37
0.82
-0.09
-1.23
-2.42
-3.47
-4.30
-4.91
-5.35
-5.76
-6.20
-6.74
-7.39
-8.13
-8.87
-9.48
-9.73
-9.34
-8.10
-5.92
-2.95
0.51
4.07
7.36
10.17
12.32
13.73
14.31
13.98
12.76
10.84
8.57
6.42
4.79
3.85
3.54
3.63
3.87
4.12
4.35
4.63
5.01
5.50
6.00
6.41
6.62
6.56
6.23
5.66
4.91
3.98
2.89
1.60
0.04
-1.83
-4.04
-6.51
-9.11
-11.57
-13.57
-14.78
-14.85
-13.54
-10.77
-6.70
-1.73
3.58
8.64
12.99
16.34
18.62
19.91
20.36
20.14
19.45
18.48
17.42
16.47
15.75
15.31
15.12
15.15
15.38
15.84
16.61
17.66
18.93
20.21
21.22
21.64
21.17
19.62
16.94
13.23
8.74
3.78
-1.33
-6.38
-11.31
-16.16
-21.02
-25.87
-30.57
-34.82
-38.30
-40.73
-41.97
-41.96
-40.70
-38.21
-34.52
-29.77
-24.27
-18.50
-12.98
-8.14
-4.18
-1.10
1.23
2.96
4.14
4.79
4.97
4.83
4.58
4.45
4.57
4.94
5.45
5.91
6.17
6.12
5.75
5.13
4.32
3.40
2.40
1.29
0.03
-1.42
-3.02
-4.68
-6.29
-7.73
-8.96
-10.01
-10.98
-12.02
-13.26
-14.80
-16.62
-18.60
-20.50
-21.98
-22.68
-22.30
-20.66
-17.75
-13.76
-9.01
-3.92
1.09
5.66
9.54
12.58
14.71
15.92
16.23
15.77
14.77
13.52
12.36
11.55
11.23
11.34
11.72
12.12
12.34
12.23
11.77
10.99
10.00
8.92
7.80
6.65
5.40
3.98
2.37
0.63
-1.12
-2.74
-4.15
-5.35
-6.43
-7.51
-8.68
-9.99
-11.42
-12.99
-14.61
-16.14
-17.32
-17.80
-17.25
-15.44
-12.40
-8.40
-3.88
0.63
4.72
8.15
10.85
12.82
14.14
14.83
14.92
14.48
13.67
12.75
11.98
11.56
11.55
11.82
12.16
12.38
12.34
12.05
11.60
11.05
10.42
9.64
8.65
7.38
5.83
4.05
2.11
0.13
-1.80
-3.56
-5.07
-6.29
-7.27
-8.12
-9.00
-10.00
-11.17
-12.47
-13.82
-15.11
-16.24
-17.05
-17.34
-16.85
-15.33
-12.67
-9.00
-4.64
-0.10
4.11
7.59
10.18
11.89
12.87
13.24
13.09
12.44
11.34
9.94
8.51
7.35
6.73
6.71
7.15
7.73
8.08
7.97
7.37
6.42
5.37
4.42
3.59
2.76
1.76
0.51
-0.90
-2.27
-3.35
-4.07
-4.52
-4.99
-5.74
-6.91
-8.44
-10.12
-11.75
-13.22
-14.60
-15.97
-17.35
-18.57
-19.26
-19.03
-17.54
-14.73
-10.81
-6.22
-1.46
2.95
6.66
9.45
11.30
12.26
12.50
12.21
11.60
10.89
10.26
9.83
9.66
9.71
9.87
10.04
10.14
10.21
10.31
10.51
10.81
11.06
11.07
10.65
9.79
8.59
7.26
5.99
4.86
3.80
2.65
1.29
-0.26
-1.87
-3.32
-4.45
-5.28
-5.98
-6.87
-8.23
-10.22
-12.74
-15.48
-18.00
-19.77
-20.36
-19.51
-17.19
-13.65
-9.33
-4.74
-0.38
3.45
6.56
8.94
10.58
11.50
11.74
11.41
10.71
9.90
9.21
8.78
8.63
8.68
8.84
9.09
9.43
9.90
10.46
11.01
11.38
11.43
11.07
10.36
9.40
8.39
7.45
6.66
5.96
5.20
4.22
2.91
1.28
-0.51
-2.23
-3.67
-4.74
-5.51
-6.16
-6.96
-8.09
-9.66
-11.57
-13.58
-15.35
-16.52
-16.74
-15.80
-13.63
-10.35
-6.33
-2.06
1.88
4.98
6.92
7.67
7.45
6.64
5.64
4.75
4.11
3.68
3.38
3.14
2.96
2.93
3.14
3.66
4.38
5.10
5.57
5.57
5.07
4.19
3.16
2.19
1.37
0.66
-0.05
-0.84
-1.76
-2.84
-4.13
-5.69
-7.61
-9.81
-12.08
-14.08
-15.53
-16.36
-16.73
-16.92
-17.14
-17.35
-17.24
-16.35
-14.35
-11.22
-7.26
-3.03
0.91
4.16
6.60
8.29
9.40
10.08
10.39
10.36
10.02
9.47
8.88
8.44
8.29
8.43
8.76
9.03
8.99
8.40
7.17
5.35
3.10
0.67
-1.71
-3.89
-5.80
-7.38
-8.63
-9.50
-9.96
-10.00
-9.69
-9.13
-8.49
-7.93
-7.59
-7.55
-7.87
-8.52
-9.40
-10.32
-11.02
-11.17
-10.49
-8.79
-6.02
-2.29
2.14
6.91
11.59
15.77
19.14
21.52
22.93
23.55
23.62
23.43
23.15
22.89
22.68
22.48
22.21
21.82
21.20
20.27
18.97
17.26
15.16
12.75
10.10
7.30
4.38
1.35
-1.75
-4.84
-7.73
-10.23
-12.17
-13.52
-14.40
-15.07
-15.76
-16.60
-17.54
-18.41
-18.98
-19.05
-18.56
-17.48
-15.84
-13.68
-11.00
-7.82
-4.28
-0.62
2.77
5.48
7.20
7.77
7.30
6.12
4.69
3.43
2.62
2.33
2.46
2.81
3.22
3.54
3.75
3.80
3.68
3.32
2.68
1.72
0.44
-1.03
-2.51
-3.74
-4.52
-4.72
-4.38
-3.70
-2.97
-2.45
-2.35
-2.74
-3.57
-4.72
-5.95
-7.01
-7.59
-7.45
-6.43
-4.47
-1.67
1.75
5.45
9.00
11.98
14.02
14.94
14.75
13.62
11.81
9.55
7.03
4.45
2.03
0.01
-1.38
-2.08
-2.22
-2.06
-1.86
-1.77
-1.76
-1.68
-1.45
-1.10
-0.78
-0.71
-0.99
-1.55
-2.21
-2.75
-3.00
-2.96
-2.70
-2.33
-2.00
-1.80
-1.81
-2.06
-2.54
-3.10
-3.49
-3.40
-2.56
-0.87
1.56
4.46
7.48
10.30
12.69
14.49
15.60
15.99
15.66
14.78
13.57
12.36
11.40
10.85
10.73
10.93
11.23
11.42
11.30
10.73
9.73
8.39
6.90
5.42
4.01
2.58
0.94
-1.06
-3.43
-6.03
-8.60
-10.96
-13.00
-14.83
-16.61
-18.52
-20.61
-22.82
-24.89
-26.52
-27.38
-27.20
-25.84
-23.32
-19.82
-15.66
-11.23
-6.92
-3.03
0.28
2.93
4.96
6.39
7.20
7.33
6.78
5.62
4.06
2.39
0.91
-0.22
-0.98
-1.47
-1.79
-2.04
-2.25
-2.37
-2.42
-2.43
-2.48
-2.68
-3.13
-3.89
-4.93
-6.16
-7.44
-8.58
-9.47
-10.08
-10.49
-10.89
-11.48
-12.40
-13.70
-15.28
-16.92
-18.32
-19.14
-19.07
-17.90
-15.60
-12.29
-8.24
-3.84
0.54
4.56
8.03
10.84
13.00
14.55
15.55
16.08
16.21
16.00
15.53
14.89
14.16
13.40
12.68
11.98
11.30
10.59
9.81
8.94
7.98
6.90
5.68
4.32
2.80
1.15
-0.61
-2.43
-4.23
-5.93
-7.40
-8.53
-9.34
-9.92
-10.51
-11.33
-12.53
-14.10
-15.84
-17.47
-18.70
-19.22
-18.81
-17.30
-14.66
-11.02
-6.68
-2.09
2.31
6.15
9.24
11.53
13.14
14.19
14.83
15.13
15.13
14.86
14.36
13.74
13.13
12.67
12.42
12.34
12.29
12.06
11.50
10.55
9.32
7.96
6.65
5.46
4.36
3.30
2.21
1.07
-0.09
-1.25
-2.39
-3.57
-4.84
-6.20
-7.61
-8.97
-10.18
-11.20
-12.08
-12.95
-13.95
-15.19
-16.63
-18.04
-19.06
-19.26
-18.33
-16.17
-12.95
-9.07
-4.96
-0.99
2.64
5.85
8.62
10.84
12.40
13.17
13.20
12.65
11.80
10.94
10.23
9.70
9.30
8.95
8.61
8.28
7.95
7.60
7.18
6.65
6.01
5.26
4.39
3.39
2.20
0.80
-0.73
-2.30
-3.73
-4.93
-5.90
-6.73
-7.56
-8.49
-9.51
-10.56
-11.55
-12.45
-13.27
-14.08
-14.95
-15.93
-17.01
-18.16
-19.29
-20.27
-20.90
-20.97
-20.24
-18.57
-15.98
-12.66
-8.93
-5.18
-1.72
1.24
3.64
5.49
6.85
7.75
8.17
8.15
7.75
7.13
6.51
6.08
5.92
6.03
6.28
6.54
6.74
6.87
6.95
7.03
7.07
7.01
6.74
6.20
5.40
4.46
3.54
2.75
2.10
1.52
0.90
0.16
-0.69
-1.58
-2.41
-3.14
-3.82
-4.53
-5.40
-6.49
-7.82
-9.28
-10.66
-11.65
-11.91
-11.15
-9.27
-6.38
-2.81
1.00
4.65
7.81
10.32
12.11
13.18
13.61
13.53
13.14
12.65
12.20
11.86
11.61
11.40
11.20
10.98
10.77
10.57
10.33
9.98
9.46
8.77
7.96
7.10
6.25
5.43
4.60
3.65
2.51
1.08
-0.64
-2.58
-4.62
-6.59
-8.34
-9.77
-10.90
-11.79
-12.58
-13.36
-14.17
-15.01
-15.82
-16.57
-17.23
-17.75
-18.01
-17.81
-16.93
-15.15
-12.40
-8.79
-4.59
-0.19
4.00
7.65
10.51
12.49
13.59
13.91
13.60
12.84
11.82
10.72
9.67
8.75
8.00
7.43
7.03
6.78
6.66
6.59
6.45
6.12
5.51
4.60
3.52
2.41
1.43
0.61
-0.11
-0.85
-1.72
-2.79
-4.02
-5.32
-6.57
-7.70
-8.68
-9.56
-10.42
-11.33
-12.37
-13.55
-14.82
-16.01
-16.90
-17.20
-16.63
-15.04
-12.46
-9.09
-5.23
-1.22
2.68
6.30
9.56
12.35
14.54
15.98
16.54
16.22
15.18
13.74
12.26
11.07
10.28
9.86
9.62
9.33
8.88
8.28
7.63
7.06
6.57
6.04
5.28
4.14
2.63
0.94
-0.70
-2.07
-3.10
-3.90
-4.67
-5.57
-6.68
-7.96
-9.32
-10.68
-12.05
-13.45
-14.89
-16.25
-17.31
-17.78
-17.36
-15.90
-13.42
-10.09
-6.19
-2.04
2.10
5.93
9.21
11.67
13.15
13.58
13.04
11.83
10.30
8.89
7.90
7.54
7.78
8.40
9.12
9.65
9.82
9.62
9.16
8.59
7.99
7.38
6.71
5.95
5.11
4.22
3.31
2.39
1.42
0.37
-0.68
-1.62
-2.33
-2.80
-3.22
-3.91
-5.23
-7.35
-10.10
-13.00
-15.39
-16.64
-16.43
-14.78
-12.07
-8.80
-5.42
-2.26
0.55
2.91
4.76
6.01
6.58
6.51
5.94
5.11
4.30
3.71
3.44
3.45
3.63
3.86
4.04
4.13
4.12
4.01
3.83
3.59
3.25
2.76
2.10
1.24
0.20
-0.94
-2.09
-3.15
-4.06
-4.85
-5.62
-6.52
-7.67
-9.14
-10.91
-12.88
-14.90
-16.72
-18.05
-18.59
-18.08
-16.42
-13.66
-10.03
-5.87
-1.54
2.62
6.38
9.53
11.93
13.50
14.25
14.25
13.69
12.76
11.66
10.53
9.48
8.59
7.90
7.40
7.08
6.86
6.64
6.33
5.88
5.29
4.59
3.81
2.96
2.00
0.95
-0.19
-1.33
-2.41
-3.37
-4.24
-5.14
-6.21
-7.56
-9.20
-11.09
-13.17
-15.34
-17.49
-19.41
-20.70
-20.92
-19.66
-16.75
-12.37
-7.04
-1.48
3.66
7.97
11.32
13.80
15.54
16.65
17.17
17.14
16.66
15.94
15.20
14.61
14.21
13.92
13.61
13.14
12.45
11.56
10.52
9.38
8.21
7.06
5.95
4.87
3.75
2.48
0.96
-0.85
-2.85
-4.88
-6.77
-8.44
-9.92
-11.38
-13.02
-15.01
-17.34
-19.88
-22.34
-24.38
-25.63
-25.79
-24.69
-22.30
-18.83
-14.68
-10.33
-6.24
-2.70
0.24
2.73
4.97
7.12
9.21
11.15
12.85
14.30
15.59
16.80
17.99
19.08
19.89
20.23
19.98
19.17
17.94
16.47
14.89
13.29
11.68
10.08
8.49
6.95
5.47
4.10
2.91
1.96
1.32
0.95
0.66
0.15
-0.97
-2.97
-5.83
-9.25
-12.66
-15.42
-17.01
-17.13
-15.73
-12.98
-9.18
-4.71
-0.00
4.48
8.34
11.29
13.20
14.17
14.45
14.31
14.03
13.76
13.52
13.26
12.91
12.47
12.02
11.71
11.66
11.93
12.41
12.93
13.34
13.52
13.49
13.31
13.04
12.64
11.99
10.98
9.60
7.93
6.13
4.29
2.35
0.11
-2.68
-6.18
-10.28
-14.63
-18.65
-21.78
-23.56
-23.80
-22.55
-20.08
-16.72
-12.83
-8.76
-4.90
-1.62
0.73
1.94
2.07
1.39
0.37
-0.55
-1.14
-1.39
-1.46
-1.59
-1.86
-2.20
-2.39
-2.23
-1.64
-0.73
0.29
1.16
1.70
1.85
1.66
1.20
0.51
-0.44
-1.69
-3.24
-5.01
-6.83
-8.53
-10.01
-11.27
-12.39
-13.47
-14.52
-15.40
-15.84
-15.48
-14.05
-11.41
-7.73
-3.36
1.19
5.37
8.73
10.96
11.97
11.83
10.81
9.30
7.75
6.50
5.75
5.49
5.53
5.66
5.74
5.75
5.76
5.85
6.03
6.19
6.18
5.85
5.13
4.06
2.73
1.31
-0.04
-1.17
-1.99
-2.53
-2.88
-3.24
-3.79
-4.72
-6.10
-7.93
-10.10
-12.40
-14.55
-16.16
-16.84
-16.25
-14.26
-11.01
-6.89
-2.43
1.88
5.66
8.71
10.98
12.47
13.22
13.29
12.80
11.89
10.76
9.56
8.41
7.39
6.54
5.90
5.48
5.22
5.05
4.90
4.76
4.65
4.61
4.68
4.83
4.99
5.05
4.91
4.48
3.72
2.67
1.44
0.18
-0.89
-1.60
-1.86
-1.67
-1.06
-0.07
1.26
2.92
4.81
6.76
8.50
9.74
10.28
10.03
9.06
7.57
5.86
4.20
2.77
1.63
0.75
0.08
-0.39
-0.61
-0.43
0.20
1.21
2.34
3.24
3.58
3.22
2.29
1.09
-0.07
-1.01
-1.81
-2.73
-4.02
-5.83
-8.09
-10.64
-13.34
-16.18
-19.26
-22.62
-26.13
-29.32
-31.49
-31.85
-29.90
-25.61
-19.48
-12.45
-5.60
0.15
4.28
6.73
7.78
7.89
7.46
6.78
5.98
5.13
4.33
3.73
3.46
3.60
4.06
4.69
5.29
5.79
6.16
6.49
6.78
6.92
6.65
5.75
4.06
1.71
-0.97
-3.54
-5.63
-7.16
-8.29
-9.34
-10.56
-11.93
-13.11
-13.61
-12.98
-11.13
-8.27
-4.92
-1.61
1.29
3.59
5.30
6.46
7.07
7.14
6.68
5.79
4.63
3.37
2.13
0.99
-0.00
-0.87
-1.62
-2.29
-2.93
-3.56
-4.17
-4.75
-5.27
-5.74
-6.20
-6.72
-7.33
-8.04
-8.79
-9.51
-10.20
-10.92
-11.71
-12.60
-13.48
-14.10
-14.12
-13.21
-11.20
-8.12
-4.23
0.03
4.15
7.73
10.49
12.39
13.49
13.95
13.92
13.53
12.86
11.97
10.94
9.85
8.75
7.69
6.71
5.87
5.20
4.72
4.36
4.00
3.48
2.66
1.45
-0.09
-1.83
-3.58
-5.17
-6.43
-7.33
-7.93
-8.42
-9.04
-9.98
-11.28
-12.69
-13.81
-14.14
-13.33
-11.24
-8.06
-4.19
-0.09
3.82
7.25
10.02
12.07
13.36
13.91
13.76
13.02
11.91
10.64
9.43
8.41
7.58
6.85
6.13
5.35
4.58
3.90
3.36
2.87
2.24
1.25
-0.17
-1.96
-3.85
-5.60
-7.02
-8.08
-8.91
-9.65
-10.47
-11.41
-12.50
-13.71
-14.92
-15.94
-16.46
-16.08
-14.48
-11.54
-7.45
-2.72
2.04
6.23
9.53
11.83
13.30
14.17
14.71
15.10
15.46
15.80
16.10
16.27
16.20
15.76
14.90
13.63
12.08
10.43
8.85
7.42
6.14
4.90
3.58
2.08
0.39
-1.41
-3.22
-4.92
-6.49
-7.95
-9.37
-10.78
-12.19
-13.56
-14.86
-15.98
-16.76
-16.95
-16.29
-14.56
-11.73
-8.02
-3.83
0.37
4.20
7.41
9.94
11.77
12.93
13.41
13.25
12.54
11.47
10.24
9.03
7.96
7.02
6.18
5.40
4.65
3.94
3.24
2.51
1.68
0.69
-0.48
-1.84
-3.31
-4.81
-6.20
-7.36
-8.16
-8.57
-8.68
-8.62
-8.61
-8.81
-9.34
-10.28
-11.64
-13.35
-15.24
-16.97
-18.09
-18.08
-16.60
-13.60
-9.38
-4.48
0.50
5.11
9.10
12.44
15.13
17.20
18.58
19.18
19.00
18.15
16.85
15.44
14.19
13.28
12.77
12.54
12.36
12.07
11.57
10.92
10.29
9.83
9.61
9.56
9.44
9.02
8.14
6.78
5.06
3.17
1.28
-0.55
-2.32
-4.08
-5.90
-7.80
-9.83
-11.99
-14.26
-16.51
-18.52
-19.98
-20.56
-20.02
-18.26
-15.37
-11.62
-7.36
-2.99
1.16
4.85
7.96
10.50
12.52
14.10
15.30
16.12
16.56
16.63
16.34
15.78
14.96
13.95
12.74
11.37
9.87
8.30
6.70
5.10
3.51
1.94
0.41
-1.04
-2.34
-3.45
-4.39
-5.20
-6.00
-6.90
-8.00
-9.32
-10.80
-12.32
-13.74
-14.91
-15.78
-16.37
-16.76
-17.13
-17.66
-18.49
-19.64
-20.95
-22.06
-22.52
-21.94
-20.11
-17.11
-13.27
-8.99
-4.68
-0.58
3.13
6.35
8.97
10.87
12.02
12.45
12.29
11.73
10.95
10.09
9.24
8.46
7.80
7.28
6.90
6.66
6.50
6.38
6.22
5.94
5.47
4.79
3.88
2.81
1.61
0.29
-1.18
-2.82
-4.61
-6.48
-8.28
-9.90
-11.29
-12.50
-13.72
-15.13
-16.91
-19.13
-21.74
-24.61
-27.46
-29.98
-31.83
-32.67
-32.20
-30.24
-26.72
-21.77
-15.69
-8.92
-2.01
4.56
10.34
15.08
18.66
21.10
22.54
23.15
23.13
22.67
21.98
21.25
20.64
20.22
19.97
19.78
19.47
18.90
18.03
16.90
15.61
14.30
13.05
11.80
10.45
8.87
7.00
4.88
2.66
0.50
-1.46
-3.20
-4.75
-6.19
-7.58
-8.93
-10.22
-11.47
-12.76
-14.18
-15.74
-17.29
-18.45
-18.74
-17.74
-15.31
-11.58
-6.96
-1.97
2.92
7.35
11.08
13.93
15.82
16.76
16.90
16.44
15.68
14.83
14.02
13.31
12.69
12.15
11.69
11.31
11.01
10.80
10.67
10.63
10.65
10.65
10.48
9.99
9.10
7.81
6.23
4.48
2.68
0.90
-0.80
-2.36
-3.70
-4.84
-5.83
-6.83
-7.98
-9.40
-11.12
-13.10
-15.28
-17.61
-19.92
-22.01
-23.50
-24.00
-23.19
-20.96
-17.46
-13.04
-8.16
-3.24
1.34
5.31
8.46
10.66
11.86
12.14
11.74
10.95
10.12
9.49
9.22
9.28
9.62
10.09
10.60
11.09
11.52
11.85
11.98
11.76
11.08
9.93
8.41
6.76
5.20
3.86
2.72
1.68
0.60
-0.62
-1.99
-3.45
-4.93
-6.36
-7.69
-8.89
-9.94
-10.85
-11.72
-12.64
-13.68
-14.82
-15.93
-16.80
-17.15
-16.74
-15.37
-12.96
-9.56
-5.41
-0.96
3.27
6.78
9.24
10.62
11.10
10.97
10.51
9.93
9.31
8.72
8.21
7.86
7.72
7.78
7.92
7.98
7.84
7.42
6.77
6.01
5.24
4.53
3.87
3.17
2.36
1.41
0.34
-0.80
-2.00
-3.31
-4.77
-6.37
-7.98
-9.40
-10.42
-11.01
-11.30
-11.61
-12.31
-13.64
-15.64
-18.11
-20.61
-22.60
-23.57
-23.13
-21.12
-17.73
-13.35
-8.53
-3.80
0.42
3.90
6.54
8.35
9.32
9.50
8.98
7.95
6.69
5.49
4.59
4.05
3.79
3.58
3.18
2.47
1.50
0.41
-0.59
-1.42
-2.11
-2.78
-3.55
-4.45
-5.40
-6.25
-6.88
-7.24
-7.42
-7.59
-7.95
-8.66
-9.75
-11.15
-12.74
-14.39
-16.05
-17.66
-19.10
-20.10
-20.27
-19.22
-16.76
-13.01
-8.43
-3.59
1.00
5.02
8.38
11.10
13.17
14.52
15.05
14.73
13.68
12.17
10.63
9.39
8.66
8.44
8.50
8.55
8.32
7.71
6.75
5.61
4.46
3.38
2.33
1.20
-0.10
-1.54
-3.00
-4.31
-5.31
-5.96
-6.37
-6.80
-7.55
-8.87
-10.82
-13.28
-15.88
-18.17
-19.65
-19.92
-18.71
-15.96
-11.80
-6.58
-0.78
5.00
10.18
14.32
17.17
18.77
19.42
19.59
19.71
20.08
20.74
21.46
21.92
21.83
21.11
19.85
18.26
16.52
14.71
12.83
10.87
8.90
7.06
5.50
4.20
3.04
1.79
0.29
-1.52
-3.52
-5.53
-7.42
-9.22
-11.04
-13.01
-15.15
-17.27
-19.02
-19.98
-19.80
-18.31
-15.54
-11.78
-7.41
-2.88
1.40
5.08
7.93
9.87
10.96
11.37
11.30
10.96
10.50
10.01
9.58
9.25
9.06
8.98
9.01
9.07
9.14
9.21
9.28
9.33
9.29
9.04
8.46
7.49
6.21
4.77
3.35
2.08
1.00
0.04
-0.91
-1.99
-3.28
-4.81
-6.53
-8.35
-10.06
-11.41
-12.11
-11.87
-10.53
-8.05
-4.61
-0.59
3.56
7.34
10.35
12.39
13.44
13.64
13.22
12.39
11.34
10.23
9.22
8.44
7.99
7.85
7.93
8.03
8.00
7.80
7.46
7.10
6.79
6.52
6.20
5.71
4.97
3.97
2.76
1.41
0.00
-1.42
-2.83
-4.23
-5.63
-7.05
-8.53
-10.06
-11.51
-12.66
-13.20
-12.84
-11.41
-8.93
-5.61
-1.78
2.18
5.91
9.13
11.62
13.27
14.07
14.08
13.50
12.54
11.49
10.55
9.84
9.36
8.97
8.49
7.83
7.03
6.25
5.69
5.44
5.41
5.35
4.97
4.08
2.71
1.05
-0.64
-2.19
-3.54
-4.80
-6.08
-7.51
-9.14
-10.93
-12.81
-14.64
-16.20
-17.25
-17.55
-16.87
-15.15
-12.44
-8.91
-4.87
-0.67
3.30
6.70
9.27
10.90
11.60
11.53
10.92
9.99
8.95
7.93
7.03
6.33
5.88
5.68
5.67
5.78
5.86
5.82
5.59
5.14
4.51
3.71
2.80
1.77
0.64
-0.60
-1.89
-3.15
-4.27
-5.17
-5.86
-6.39
-6.92
-7.57
-8.45
-9.53
-10.62
-11.48
-11.81
-11.36
-10.04
-7.88
-5.08
-1.91
1.32
4.35
6.94
8.97
10.36
11.10
11.21
10.76
9.85
8.65
7.35
6.17
5.28
4.79
4.66
4.76
4.92
4.98
4.85
4.53
4.07
3.50
2.85
2.11
1.22
0.17
-1.03
-2.33
-3.59
-4.69
-5.55
-6.18
-6.70
-7.30
-8.15
-9.32
-10.80
-12.41
-13.91
-15.01
-15.46
-15.03
-13.65
-11.33
-8.29
-4.86
-1.42
1.69
4.28
6.30
7.81
8.87
9.49
9.57
9.06
7.98
6.55
5.14
4.16
3.92
4.50
5.73
7.27
8.77
9.95
10.74
11.17
11.34
11.34
11.17
10.78
10.11
9.09
7.70
5.98
4.00
1.88
-0.25
-2.28
-4.16
-5.91
-7.59
-9.25
-10.94
-12.66
-14.40
-16.10
-17.68
-18.95
-19.65
-19.47
-18.18
-15.71
-12.28
-8.30
-4.29
-0.68
2.30
4.57
6.23
7.35
7.99
8.20
8.02
7.56
6.98
6.43
6.02
5.79
5.73
5.77
5.91
6.11
6.37
6.66
6.94
7.14
7.18
7.00
6.58
5.98
5.24
4.43
3.57
2.64
1.59
0.38
-0.96
-2.36
-3.79
-5.22
-6.75
-8.50
-10.61
-13.10
-15.86
-18.62
-21.00
-22.61
-23.15
-22.46
-20.57
-17.64
-13.95
-9.81
-5.51
-1.34
2.49
5.78
8.34
10.08
10.97
11.09
10.65
9.95
9.30
8.92
8.85
8.98
9.08
8.97
8.54
7.85
7.01
6.17
5.41
4.70
3.98
3.18
2.25
1.14
-0.14
-1.54
-3.01
-4.43
-5.69
-6.70
-7.38
-7.74
-7.83
-7.80
-7.76
-7.82
-8.00
-8.23
-8.39
-8.39
-8.26
-8.09
-8.01
-8.05
-8.07
-7.81
-7.01
-5.55
-3.52
-1.24
0.97
2.82
4.20
5.17
5.80
6.16
6.24
5.97
5.30
4.28
3.01
1.70
0.57
-0.20
-0.50
-0.36
0.06
0.57
1.02
1.34
1.57
1.83
2.16
2.54
2.84
2.90
2.62
2.06
1.39
0.79
0.40
0.17
-0.02
-0.31
-0.80
-1.45
-2.19
-2.93
-3.64
-4.33
-5.04
-5.85
-6.81
-7.94
-9.23
-10.53
-11.65
-12.30
-12.20
-11.21
-9.32
-6.70
-3.59
-0.31
2.87
5.70
7.96
9.51
10.32
10.50
10.23
9.74
9.19
8.66
8.13
7.54
6.90
6.28
5.80
5.57
5.56
5.63
5.54
5.08
4.17
2.90
1.48
0.14
-1.00
-1.97
-2.86
-3.74
-4.61
-5.41
-6.07
-6.64
-7.23
-8.01
-9.12
-10.55
-12.14
-13.66
-14.91
-15.81
-16.45
-17.03
-17.74
-18.60
-19.42
-19.84
-19.44
-17.94
-15.36
-11.98
-8.27
-4.66
-1.46
1.19
3.27
4.78
5.77
6.30
6.49
6.55
6.67
6.99
7.52
8.14
8.76
9.28
9.63
9.78
9.69
9.31
8.67
7.87
7.06
6.39
5.86
5.41
4.87
4.14
3.21
2.17
1.17
0.24
-0.62
-1.51
-2.49
-3.56
-4.64
-5.65
-6.53
-7.34
-8.19
-9.17
-10.33
-11.59
-12.75
-13.52
-13.63
-12.85
-11.10
-8.46
-5.17
-1.59
1.88
4.92
7.31
8.99
10.03
10.58
10.78
10.76
10.56
10.24
9.83
9.36
8.90
8.51
8.21
7.98
7.75
7.44
6.95
6.24
5.32
4.22
3.04
1.82
0.63
-0.54
-1.69
-2.85
-4.03
-5.21
-6.38
-7.46
-8.41
-9.19
-9.81
-10.35
-10.92
-11.65
-12.64
-13.84
-15.09
-16.05
-16.34
-15.71
-14.04
-11.51
-8.42
-5.18
-2.11
0.56
2.77
4.48
5.72
6.50
6.82
6.76
6.46
6.12
5.93
6.04
6.48
7.15
7.90
8.54
8.96
9.07
8.90
8.51
7.99
7.39
6.77
6.15
5.50
4.79
3.96
2.95
1.79
0.51
-0.76
-1.93
-2.90
-3.67
-4.28
-4.89
-5.63
-6.60
-7.74
-8.81
-9.43
-9.24
-8.02
-5.81
-2.92
0.20
3.09
5.41
7.03
7.95
8.25
8.05
7.47
6.65
5.74
4.91
4.27
3.89
3.75
3.77
3.89
4.01
4.10
4.10
3.99
3.73
3.32
2.78
2.14
1.44
0.63
-0.30
-1.37
-2.51
-3.59
-4.49
-5.16
-5.66
-6.15
-6.81
-7.73
-8.87
-10.10
-11.25
-12.20
-12.87
-13.20
-13.12
-12.49
-11.15
-9.04
-6.26
-3.12
-0.05
2.53
4.33
5.27
5.50
5.27
4.88
4.57
4.48
4.67
5.17
5.94
6.85
7.72
8.30
8.39
7.89
6.93
5.81
4.88
4.41
4.43
4.72
4.86
4.47
3.31
1.45
-0.84
-3.14
-5.10
-6.54
-7.51
-8.20
-8.91
-9.85
-11.12
-12.62
-14.15
-15.38
-16.02
-15.85
-14.80
-12.93
-10.43
-7.60
-4.71
-2.05
0.22
2.03
3.38
4.31
4.88
5.13
5.16
5.09
5.04
5.11
5.31
5.55
5.64
5.39
4.72
3.68
2.49
1.43
0.81
0.76
1.26
2.13
3.10
3.90
4.39
4.60
4.66
4.70
4.81
4.95
4.98
4.78
4.34
3.78
3.32
3.22
3.73
4.95
6.83
9.17
11.65
13.90
15.60
16.62
17.00
16.92
16.63
16.25
15.77
15.10
14.13
12.88
11.46
10.07
8.85
7.80
6.80
5.69
4.35
2.75
1.00
-0.73
-2.26
-3.51
-4.46
-5.19
-5.80
-6.38
-6.94
-7.49
-8.02
-8.55
-9.10
-9.70
-10.34
-10.97
-11.54
-12.02
-12.40
-12.73
-13.02
-13.23
-13.28
-13.05
-12.41
-11.26
-9.52
-7.18
-4.37
-1.29
1.74
4.44
6.63
8.26
9.40
10.11
10.41
10.30
9.81
9.08
8.34
7.80
7.52
7.39
7.18
6.73
6.06
5.34
4.77
4.46
4.29
4.02
3.43
2.41
1.05
-0.47
-1.99
-3.42
-4.76
-6.05
-7.26
-8.35
-9.27
-10.02
-10.69
-11.44
-12.35
-13.44
-14.53
-15.36
-15.66
-15.23
-14.02
-12.06
-9.51
-6.54
-3.32
-0.07
3.00
5.64
7.69
9.06
9.80
10.01
9.86
9.48
8.96
8.40
7.89
7.47
7.16
6.88
6.49
5.90
5.11
4.21
3.39
2.80
2.47
2.32
2.14
1.77
1.15
0.36
-0.41
-0.95
-1.22
-1.33
-1.55
-2.16
-3.34
-5.05
-7.08
-9.14
-10.92
-12.22
-12.93
-12.98
-12.36
-11.06
-9.14
-6.73
-4.02
-1.29
1.21
3.27
4.81
5.84
6.48
6.88
7.14
7.27
7.20
6.86
6.24
5.46
4.70
4.17
3.92
3.89
3.93
3.90
3.75
3.54
3.37
3.31
3.31
3.21
2.85
2.14
1.08
-0.17
-1.47
-2.68
-3.74
-4.66
-5.45
-6.11
-6.65
-7.06
-7.41
-7.79
-8.31
-8.98
-9.75
-10.35
-10.47
-9.77
-8.02
-5.24
-1.68
2.23
6.01
9.21
11.56
13.00
13.61
13.57
13.13
12.49
11.80
11.13
10.51
9.95
9.43
8.91
8.32
7.60
6.67
5.55
4.33
3.17
2.22
1.53
1.05
0.64
0.19
-0.34
-0.92
-1.45
-1.87
-2.20
-2.54
-3.01
-3.73
-4.72
-5.94
-7.25
-8.52
-9.64
-10.61
-11.51
-12.46
-13.57
-14.81
-15.98
-16.75
-16.79
-15.86
-13.93
-11.17
-7.88
-4.39
-1.01
2.06
4.71
6.91
8.68
10.06
11.08
11.75
12.05
11.99
11.64
11.12
10.54
10.01
9.56
9.14
8.72
8.26
7.78
7.32
6.85
6.29
5.52
4.45
3.08
1.53
-0.01
-1.31
-2.27
-2.85
-3.14
-3.26
-3.33
-3.44
-3.65
-3.97
-4.42
-5.03
-5.83
-6.88
-8.19
-9.72
-11.36
-12.94
-14.23
-15.07
-15.26
-14.69
-13.28
-11.04
-8.09
-4.70
-1.22
2.01
4.69
6.67
7.94
8.57
8.69
8.43
7.89
7.18
6.42
5.74
5.26
5.10
5.30
5.81
6.45
7.01
7.28
7.16
6.65
5.88
5.01
4.20
3.50
2.93
2.41
1.86
1.21
0.46
-0.33
-1.02
-1.50
-1.73
-1.76
-1.76
-1.93
-2.39
-3.16
-4.16
-5.29
-6.45
-7.65
-8.97
-10.43
-11.96
-13.36
-14.27
-14.37
-13.46
-11.58
-9.03
-6.22
-3.53
-1.17
0.82
2.51
3.95
5.14
6.01
6.56
6.90
7.22
7.79
8.77
10.21
11.97
13.81
15.42
16.51
16.87
16.42
15.22
13.48
11.48
9.47
7.59
5.92
4.41
3.03
1.78
0.66
-0.30
-1.11
-1.76
-2.27
-2.64
-2.87
-3.03
-3.27
-3.75
-4.57
-5.73
-7.11
-8.48
-9.66
-10.53
-11.04
-11.14
-10.77
-9.81
-8.14
-5.72
-2.70
0.64
3.89
6.64
8.62
9.72
10.02
9.74
9.16
8.52
7.97
7.54
7.20
6.85
6.41
5.78
4.97
3.99
2.98
2.10
1.51
1.27
1.27
1.23
0.82
-0.21
-1.90
-4.04
-6.22
-7.98
-8.95
-8.99
-8.22
-7.01
-5.85
-5.27
-5.61
-6.98
-9.27
-12.19
-15.41
-18.61
-21.54
-23.95
-25.58
-26.12
-25.34
-23.17
-19.75
-15.47
-10.87
-6.46
-2.60
0.54
2.98
4.81
6.16
7.04
7.45
7.45
7.17
6.84
6.68
6.81
7.18
7.57
7.75
7.56
6.96
6.05
5.01
3.96
2.97
2.04
1.10
0.11
-1.01
-2.26
-3.64
-5.12
-6.64
-8.11
-9.49
-10.70
-11.75
-12.65
-13.47
-14.28
-15.08
-15.85
-16.43
-16.65
-16.30
-15.25
-13.48
-11.12
-8.37
-5.48
-2.64
0.06
2.54
4.75
6.59
7.96
8.78
9.08
8.95
8.58
8.17
7.89
7.83
8.00
8.32
8.69
8.98
9.08
8.96
8.64
8.17
7.64
7.13
6.69
6.27
5.83
5.27
4.54
3.62
2.54
1.34
0.06
-1.32
-2.85
-4.58
-6.51
-8.55
-10.46
-11.94
-12.68
-12.45
-11.18
-8.94
-5.99
-2.70
0.54
3.39
5.66
7.29
8.34
8.90
9.01
8.73
8.10
7.22
6.31
5.59
5.26
5.33
5.68
6.07
6.24
6.07
5.60
4.96
4.32
3.78
3.34
2.94
2.47
1.89
1.18
0.39
-0.48
-1.41
-2.41
-3.51
-4.73
-6.03
-7.38
-8.77
-10.16
-11.49
-12.64
-13.39
-13.50
-12.80
-11.21
-8.85
-5.94
-2.74
0.50
3.58
6.38
8.75
10.59
11.83
12.45
12.55
12.25
11.71
11.05
10.34
9.63
8.95
8.33
7.79
7.30
6.83
6.32
5.78
5.25
4.82
4.59
4.57
4.67
4.70
4.46
3.82
2.78
1.50
0.15
-1.11
-2.22
-3.16
-3.96
-4.67
-5.35
-6.10
-7.04
-8.23
-9.64
-11.10
-12.33
-13.02
-12.90
-11.85
-9.86
-7.04
-3.62
0.11
3.80
7.12
9.81
11.71
12.80
13.14
12.87
12.18
11.28
10.37
9.58
8.95
8.44
7.95
7.44
6.91
6.42
6.01
5.67
5.34
4.95
4.46
3.86
3.17
2.39
1.52
0.58
-0.40
-1.36
-2.26
-3.07
-3.82
-4.55
-5.33
-6.14
-6.98
-7.80
-8.58
-9.30
-9.96
-10.57
-11.18
-11.79
-12.43
-13.04
-13.51
-13.65
-13.24
-12.06
-10.03
-7.22
-3.86
-0.26
3.25
6.39
9.00
10.96
12.23
12.79
12.67
12.01
11.00
9.87
8.85
8.09
7.67
7.55
7.64
7.81
7.93
7.86
7.52
6.91
6.09
5.19
4.33
3.61
3.04
2.57
2.10
1.55
0.89
0.13
-0.71
-1.58
-2.50
-3.48
-4.54
-5.64
-6.70
-7.63
-8.42
-9.15
-10.00
-11.13
-12.52
-13.93
-14.88
-14.88
-13.63
-11.19
-7.93
-4.44
-1.21
1.49
3.66
5.45
7.03
8.44
9.62
10.44
10.82
10.76
10.33
9.67
8.90
8.15
7.53
7.09
6.86
6.81
6.91
7.09
7.32
7.48
7.45
7.05
6.18
4.87
3.30
1.77
0.53
-0.32
-0.88
-1.40
-2.10
-3.09
-4.27
-5.44
-6.42
-7.15
-7.70
-8.20
-8.80
-9.57
-10.53
-11.63
-12.80
-13.98
-15.03
-15.78
-16.03
-15.55
-14.22
-12.05
-9.22
-6.03
-2.80
0.20
2.80
4.96
6.66
7.90
8.66
8.95
8.82
8.39
7.80
7.23
6.81
6.57
6.48
6.44
6.34
6.11
5.71
5.21
4.68
4.22
3.85
3.55
3.24
2.91
2.60
2.41
2.43
2.61
2.80
2.77
2.31
1.36
-0.01
-1.64
-3.38
-5.18
-7.04
-9.02
-11.12
-13.29
-15.48
-17.69
-19.93
-22.20
-24.34
-26.05
-26.96
-26.75
-25.34
-22.97
-20.05
-16.98
-13.93
-10.74
-7.10
-2.76
2.21
7.45
12.42
16.75
20.35
23.49
26.52
29.66
32.84
35.74
37.97
39.30
39.69
39.27
38.17
36.43
33.94
30.61
26.43
21.56
16.34
11.16
6.33
2.10
-1.43
-4.23
-6.34
-7.87
-9.02
-10.00
-10.99
-12.05
-13.11
-14.03
-14.77
-15.38
-16.06
-16.99
-18.23
-19.65
-21.00
-21.98
-22.35
-21.99
-20.81
-18.79
-15.95
-12.42
-8.52
-4.71
-1.47
0.84
2.13
2.51
2.24
1.56
0.63
-0.47
-1.69
-2.95
-4.09
-4.95
-5.44
-5.58
-5.49
-5.27
-5.01
-4.75
-4.48
-4.21
-3.96
-3.71
-3.46
-3.14
-2.75
-2.30
-1.93
-1.71
-1.74
-1.96
-2.23
-2.38
-2.30
-1.95
-1.41
-0.82
-0.30
0.05
0.24
0.39
0.66
1.24
2.27
3.79
5.69
7.77
9.83
11.72
13.44
15.04
16.56
18.03
19.36
20.43
21.14
21.41
21.28
20.84
20.22
19.55
18.95
18.49
18.20
18.06
17.96
17.77
17.28
16.33
14.80
12.65
9.98
6.98
3.93
1.10
-1.27
-3.06
-4.29
-5.14
-5.87
-6.73
-7.83
-9.17
-10.61
-11.96
-13.00
-13.62
-13.79
-13.55
-12.99
-12.14
-10.98
-9.40
-7.25
-4.41
-0.89
3.09
7.12
10.69
13.33
14.71
14.81
13.83
12.24
10.66
9.70
9.83
11.17
13.41
15.82
17.53
17.78
16.24
13.12
9.04
4.80
1.02
-1.96
-4.19
-5.92
-7.49
-9.13
-10.93
-12.89
-14.94
-17.04
-19.17
-21.28
-23.35
-25.38
-27.37
-29.29
-31.05
-32.42
-33.15
-33.02
-31.95
-30.05
-27.58
-24.78
-21.79
-18.66
-15.36
-11.95
-8.55
-5.35
-2.56
-0.24
1.61
3.06
4.19
5.09
5.81
6.43
6.98
7.51
7.98
8.40
8.77
9.16
9.62
10.16
10.74
11.26
11.67
11.89
11.89
11.59
10.84
9.53
7.55
5.00
2.09
-0.90
-3.74
-6.31
-8.64
-10.74
-12.55
-13.82
-14.21
-13.45
-11.46
-8.43
-4.78
-1.02
2.41
5.25
7.40
8.88
9.75
10.08
9.96
9.52
8.98
8.59
8.53
8.87
9.47
10.05
10.27
9.89
8.85
7.22
5.17
2.88
0.51
-1.78
-3.81
-5.41
-6.52
-7.19
-7.66
-8.19
-9.02
-10.18
-11.53
-12.83
-13.83
-14.39
-14.47
-14.13
-13.39
-12.25
-10.66
-8.57
-5.96
-2.89
0.46
3.88
7.11
9.92
12.15
13.71
14.57
14.74
14.29
13.34
12.08
10.71
9.41
8.28
7.31
6.41
5.48
4.42
3.25
2.03
0.82
-0.35
-1.55
-2.85
-4.29
-5.76
-7.07
-7.99
-8.43
-8.51
-8.47
-8.61
-9.10
-9.96
-11.03
-12.08
-12.91
-13.34
-13.23
-12.43
-10.85
-8.48
-5.46
-2.07
1.38
4.56
7.27
9.36
10.78
11.54
11.72
11.46
10.93
10.30
9.69
9.15
8.68
8.32
8.12
8.14
8.36
8.65
8.77
8.44
7.50
5.97
4.03
1.97
0.00
-1.77
-3.40
-5.00
-6.62
-8.22
-9.71
-11.03
-12.18
-13.24
-14.27
-15.18
-15.76
-15.71
-14.80
-12.97
-10.36
-7.24
-3.91
-0.65
2.35
4.94
6.99
8.43
9.21
9.41
9.15
8.63
8.02
7.45
6.96
6.55
6.18
5.80
5.35
4.82
4.24
3.67
3.16
2.76
2.39
1.99
1.44
0.66
-0.34
-1.45
-2.53
-3.43
-4.13
-4.77
-5.60
-6.89
-8.71
-10.83
-12.75
-13.86
-13.67
-12.04
-9.21
-5.70
-2.09
1.17
3.85
5.88
7.30
8.16
8.53
8.51
8.22
7.84
7.47
7.22
7.07
6.98
6.87
6.66
6.27
5.68
4.91
4.04
3.19
2.46
1.92
1.57
1.29
0.95
0.39
-0.43
-1.47
-2.56
-3.55
-4.30
-4.84
-5.31
-5.88
-6.73
-7.85
-9.12
-10.36
-11.40
-12.08
-12.29
-11.86
-10.61
-8.41
-5.27
-1.39
2.83
6.92
10.51
13.33
15.30
16.38
16.59
15.95
14.55
12.58
10.36
8.23
6.48
5.26
4.52
4.13
3.91
3.74
3.63
3.58
3.58
3.54
3.30
2.67
1.54
-0.03
-1.88
-3.71
-5.28
-6.45
-7.23
-7.79
-8.34
-9.05
-10.02
-11.25
-12.65
-14.14
-15.63
-17.03
-18.23
-19.04
-19.21
-18.51
-16.82
-14.19
-10.85
-7.15
-3.46
-0.07
2.86
5.27
7.19
8.66
9.70
10.35
10.60
10.51
10.12
9.56
8.98
8.51
8.26
8.20
8.26
8.28
8.17
7.91
7.56
7.18
6.78
6.29
5.56
4.51
3.19
1.78
0.48
-0.56
-1.33
-1.98
-2.68
-3.52
-4.50
-5.48
-6.39
-7.18
-7.89
-8.56
-9.12
-9.35
-8.93
-7.64
-5.41
-2.46
0.82
3.99
6.67
8.65
9.83
10.21
9.83
8.79
7.25
5.46
3.72
2.32
1.47
1.22
1.42
1.83
2.19
2.30
2.07
1.56
0.87
0.10
-0.72
-1.58
-2.49
-3.46
-4.42
-5.29
-6.02
-6.57
-6.96
-7.26
-7.57
-8.05
-8.85
-10.11
-11.92
-14.16
-16.59
-18.80
-20.33
-20.76
-19.84
-17.56
-14.17
-10.14
-6.00
-2.24
0.85
3.24
5.11
6.76
8.44
10.24
12.04
13.62
14.79
15.46
15.71
15.68
15.53
15.33
15.05
14.58
13.86
12.85
11.55
10.02
8.30
6.46
4.62
2.91
1.42
0.21
-0.80
-1.70
-2.59
-3.51
-4.41
-5.28
-6.12
-6.98
-7.92
-8.94
-9.99
-11.03
-11.96
-12.72
-13.17
-13.13
-12.33
-10.55
-7.76
-4.12
-0.08
3.83
7.13
9.54
10.99
11.58
11.51
10.94
10.01
8.87
7.69
6.64
5.88
5.45
5.26
5.16
4.99
4.69
4.31
3.95
3.63
3.32
2.84
2.07
0.96
-0.35
-1.64
-2.71
-3.46
-3.94
-4.29
-4.62
-4.92
-5.19
-5.44
-5.85
-6.64
-8.02
-9.94
-12.04
-13.73
-14.44
-13.83
-11.89
-8.89
-5.19
-1.10
3.11
7.25
11.05
14.19
16.37
17.39
17.30
16.34
14.85
13.17
11.55
10.11
8.89
7.89
7.13
6.58
6.20
5.89
5.51
4.95
4.13
3.08
1.87
0.56
-0.81
-2.24
-3.75
-5.34
-6.93
-8.34
-9.39
-9.92
-9.89
-9.43
-8.77
-8.23
-8.04
-8.29
-8.88
-9.54
-9.97
-9.88
-9.06
-7.47
-5.20
-2.43
0.56
3.48
6.06
8.13
9.56
10.33
10.44
9.93
8.95
7.65
6.26
5.04
4.18
3.77
3.79
4.11
4.56
4.98
5.24
5.32
5.22
5.00
4.71
4.34
3.82
3.07
2.04
0.78
-0.57
-1.83
-2.85
-3.62
-4.23
-4.86
-5.63
-6.59
-7.68
-8.79
-9.82
-10.69
-11.27
-11.39
-10.88
-9.56
-7.40
-4.54
-1.29
1.97
4.82
6.91
8.01
8.06
7.19
5.70
4.00
2.53
1.61
1.37
1.75
2.54
3.45
4.24
4.71
4.77
4.46
3.91
3.27
2.73
2.37
2.17
2.05
1.87
1.53
0.96
0.15
-0.90
-2.12
-3.42
-4.75
-6.07
-7.42
-8.82
-10.25
-11.57
-12.52
-12.78
-12.14
-10.53
-8.06
-4.99
-1.64
1.70
4.80
7.48
9.58
11.01
11.74
11.81
11.33
10.43
9.25
7.93
6.61
5.44
4.53
3.94
3.59
3.34
3.03
2.60
2.09
1.61
1.28
1.09
0.93
0.65
0.16
-0.51
-1.25
-1.90
-2.41
-2.82
-3.27
-3.90
-4.81
-5.97
-7.22
-8.34
-9.03
-9.04
-8.20
-6.47
-3.98
-1.00
2.11
4.95
7.15
8.47
8.84
8.39
7.41
6.24
5.17
4.38
3.90
3.68
3.65
3.71
3.79
3.80
3.67
3.39
3.00
2.55
2.12
1.71
1.29
0.78
0.10
-0.78
-1.83
-2.93
-3.97
-4.88
-5.69
-6.52
-7.58
-9.00
-10.73
-12.60
-14.23
-15.28
-15.48
-14.72
-13.05
-10.58
-7.46
-3.87
-0.05
3.69
7.02
9.63
11.38
12.24
12.38
12.02
11.38
10.66
9.92
9.20
8.48
7.75
7.01
6.27
5.56
4.89
4.27
3.72
3.21
2.70
2.10
1.34
0.42
-0.63
-1.67
-2.59
-3.31
-3.84
-4.28
-4.80
-5.54
-6.60
-7.99
-9.61
-11.26
-12.63
-13.36
-13.10
-11.67
-9.11
-5.69
-1.86
1.91
5.27
8.04
10.20
11.80
12.86
13.36
13.27
12.60
11.46
10.10
8.76
7.64
6.79
6.13
5.46
4.64
3.58
2.33
1.01
-0.26
-1.41
-2.42
-3.36
-4.31
-5.32
-6.38
-7.37
-8.16
-8.63
-8.74
-8.63
-8.56
-8.83
-9.63
-10.98
-12.68
-14.41
-15.87
-16.77
-16.95
-16.29
-14.72
-12.22
-8.88
-4.92
-0.69
3.43
7.09
10.03
12.20
13.66
14.57
15.09
15.36
15.43
15.34
15.09
14.70
14.24
13.80
13.46
13.19
12.89
12.39
11.53
10.26
8.68
6.99
5.39
3.98
2.71
1.48
0.16
-1.28
-2.78
-4.20
-5.39
-6.32
-7.03
-7.69
-8.48
-9.57
-10.97
-12.61
-14.32
-15.90
-17.18
-18.07
-18.44
-18.20
-17.17
-15.24
-12.39
-8.81
-4.84
-0.91
2.61
5.48
7.65
9.18
10.18
10.76
11.03
11.08
10.98
10.80
10.58
10.32
9.99
9.55
8.98
8.30
7.58
6.93
6.42
6.06
5.78
5.42
4.83
3.95
2.89
1.82
0.92
0.23
-0.36
-1.04
-1.99
-3.26
-4.71
-6.12
-7.31
-8.23
-8.92
-9.55
-10.24
-11.10
-12.16
-13.41
-14.76
-15.98
-16.80
-16.90
-16.04
-14.17
-11.42
-8.09
-4.50
-0.96
2.32
5.22
7.65
9.54
10.85
11.60
11.85
11.71
11.31
10.76
10.15
9.52
8.89
8.22
7.51
6.71
5.78
4.75
3.69
2.70
1.92
1.44
1.27
1.32
1.44
1.50
1.45
1.28
0.99
0.59
0.06
-0.64
-1.53
-2.58
-3.76
-5.03
-6.32
-7.58
-8.74
-9.71
-10.49
-11.11
-11.66
-12.23
-12.84
-13.38
-13.64
-13.37
-12.35
-10.51
-7.95
-4.95
-1.86
0.98
3.31
5.02
6.13
6.74
6.96
6.88
6.60
6.23
5.91
5.76
5.84
6.11
6.47
6.78
6.96
7.02
7.03
7.05
7.10
7.12
7.01
6.71
6.20
5.52
4.74
3.85
2.86
1.72
0.51
-0.71
-1.83
-2.81
-3.68
-4.51
-5.37
-6.19
-6.90
-7.44
-7.89
-8.49
-9.52
-11.13
-13.22
-15.48
-17.43
-18.66
-18.91
-18.12
-16.42
-13.98
-11.08
-7.96
-4.88
-2.04
0.44
2.55
4.30
5.74
6.88
7.65
8.05
8.08
7.85
7.50
7.17
6.98
7.00
7.22
7.59
7.99
8.31
8.42
8.28
7.93
7.43
6.87
6.25
5.53
4.63
3.54
2.34
1.21
0.35
-0.11
-0.21
-0.13
-0.09
-0.29
-0.77
-1.45
-2.15
-2.76
-3.27
-3.82
-4.57
-5.62
-6.89
-8.08
-8.81
-8.72
-7.60
-5.49
-2.66
0.49
3.55
6.17
8.14
9.36
9.88
9.80
9.28
8.50
7.66
6.93
6.45
6.28
6.34
6.44
6.37
5.98
5.27
4.40
3.64
3.21
3.15
3.31
3.42
3.24
2.72
1.95
1.15
0.46
-0.14
-0.80
-1.70
-2.94
-4.43
-5.97
-7.32
-8.37
-9.12
-9.73
-10.36
-11.15
-12.16
-13.34
-14.54
-15.56
-16.15
-16.05
-15.07
-13.13
-10.34
-6.98
-3.41
-0.03
2.91
5.28
7.06
8.36
9.25
9.83
10.19
10.44
10.69
11.04
11.52
12.08
12.58
12.87
12.86
12.58
12.11
11.53
10.89
10.14
9.18
7.95
6.43
4.65
2.68
0.59
-1.59
-3.78
-5.86
-7.68
-9.13
-10.17
-10.89
-11.51
-12.25
-13.27
-14.60
-16.09
-17.44
-18.32
-18.45
-17.68
-16.05
-13.70
-10.85
-7.72
-4.48
-1.30
1.67
4.22
6.21
7.55
8.30
8.66
8.89
9.20
9.65
10.19
10.64
10.90
10.94
10.89
10.88
11.03
11.32
11.66
11.93
12.05
12.01
11.85
11.56
11.12
10.44
9.42
7.99
6.16
4.01
1.67
-0.67
-2.82
-4.65
-6.09
-7.13
-7.76
-7.91
-7.44
-6.11
-3.78
-0.43
3.66
8.07
12.28
15.84
18.45
19.95
20.28
19.50
17.69
15.06
11.85
8.36
4.83
1.41
-1.84
-4.90
-7.74
-10.20
-12.11
-13.28
-13.68
-13.43
-12.81
-12.09
-11.46
-11.00
-10.71
-10.54
-10.51
-10.69
-11.10
-11.76
-12.59
-13.51
-14.49
-15.55
-16.74
-18.11
-19.63
-21.19
-22.58
-23.51
-23.73
-23.01
-21.26
-18.59
-15.26
-11.68
-8.26
-5.25
-2.75
-0.72
0.96
2.38
3.59
4.60
5.44
6.13
6.70
7.16
7.48
7.65
7.71
7.72
7.80
8.01
8.31
8.63
8.85
8.90
8.79
8.55
8.20
7.72
7.04
6.14
5.03
3.80
2.57
1.38
0.18
-1.17
-2.80
-4.74
-6.88
-8.96
-10.70
-11.84
-12.25
-11.91
-10.90
-9.33
-7.32
-5.03
-2.68
-0.49
1.31
2.61
3.39
3.78
3.92
3.97
3.99
4.00
4.01
4.05
4.21
4.57
5.16
5.89
6.63
7.21
7.56
7.70
7.68
7.57
7.40
7.12
6.73
6.23
5.66
5.07
4.47
3.86
3.18
2.43
1.57
0.59
-0.52
-1.81
-3.30
-4.96
-6.69
-8.32
-9.67
-10.56
-10.85
-10.48
-9.42
-7.73
-5.56
-3.14
-0.75
1.34
2.96
4.02
4.59
4.78
4.73
4.53
4.27
3.99
3.77
3.66
3.71
3.95
4.31
4.67
4.89
4.86
4.51
3.83
2.93
1.99
1.21
0.75
0.63
0.78
0.99
1.06
0.90
0.53
0.06
-0.36
-0.66
-0.86
-1.08
-1.43
-1.98
-2.74
-3.63
-4.53
-5.28
-5.72
-5.72
-5.23
-4.23
-2.79
-1.01
0.99
3.09
5.17
7.10
8.75
9.96
10.63
10.72
10.26
9.37
8.21
6.99
5.85
4.91
4.22
3.73
3.35
2.98
2.56
2.07
1.52
0.92
0.27
-0.49
-1.38
-2.37
-3.37
-4.32
-5.20
-6.01
-6.80
-7.49
-7.98
-8.12
-7.87
-7.36
-6.90
-6.83
-7.34
-8.36
-9.61
-10.75
-11.50
-11.74
-11.48
-10.78
-9.64
-7.98
-5.82
-3.25
-0.52
2.04
4.13
5.65
6.66
7.34
7.84
8.17
8.23
7.92
7.24
6.37
5.59
5.17
5.22
5.67
6.29
6.82
7.14
7.24
7.23
7.21
7.20
7.10
6.81
6.27
5.49
4.57
3.61
2.66
1.70
0.67
-0.51
-1.87
-3.43
-5.16
-6.99
-8.84
-10.53
-11.84
-12.51
-12.37
-11.39
-9.70
-7.56
-5.22
-2.90
-0.70
1.30
3.02
4.39
5.31
5.78
5.86
5.70
5.48
5.32
5.28
5.36
5.55
5.86
6.28
6.76
7.18
7.38
7.26
6.76
5.96
4.98
3.93
2.83
1.65
0.29
-1.31
-3.11
-5.00
-6.81
-8.46
-9.94
-11.34
-12.74
-14.19
-15.63
-16.94
-17.95
-18.52
-18.57
-18.03
-16.86
-15.06
-12.68
-9.87
-6.81
-3.72
-0.76
1.92
4.22
6.06
7.36
8.15
8.50
8.59
8.67
8.92
9.42
10.12
10.85
11.42
11.70
11.62
11.24
10.72
10.22
9.85
9.63
9.50
9.31
8.89
8.13
7.01
5.58
4.02
2.46
1.06
-0.12
-1.11
-1.99
-2.91
-4.01
-5.37
-7.00
-8.77
-10.51
-11.99
-12.97
-13.23
-12.65
-11.23
-9.13
-6.63
-4.09
-1.81
0.04
1.47
2.57
3.43
4.10
4.54
4.72
4.67
4.47
4.25
4.08
4.00
4.04
4.21
4.55
5.06
5.67
6.23
6.57
6.56
6.15
5.42
4.47
3.41
2.34
1.31
0.35
-0.51
-1.25
-1.91
-2.52
-3.11
-3.70
-4.31
-4.96
-5.68
-6.52
-7.54
-8.72
-9.91
-10.87
-11.27
-10.82
-9.39
-7.06
-4.10
-0.89
2.16
4.78
6.85
8.40
9.49
10.19
10.55
10.56
10.25
9.67
8.94
8.18
7.50
6.96
6.54
6.19
5.83
5.43
4.95
4.37
3.69
2.92
2.10
1.28
0.53
-0.12
-0.70
-1.28
-1.95
-2.76
-3.73
-4.81
-5.90
-6.91
-7.83
-8.68
-9.56
-10.60
-11.87
-13.33
-14.84
-16.13
-16.91
-16.97
-16.24
-14.82
-12.87
-10.54
-7.91
-5.05
-2.06
0.87
3.41
5.31
6.46
6.91
6.87
6.60
6.27
5.97
5.71
5.48
5.34
5.31
5.41
5.59
5.69
5.58
5.14
4.36
3.29
2.05
0.79
-0.32
-1.18
-1.76
-2.14
-2.45
-2.82
-3.36
-4.04
-4.82
-5.58
-6.27
-6.89
-7.50
-8.19
-8.97
-9.80
-10.52
-10.94
-10.82
-10.00
-8.40
-6.03
-3.05
0.31
3.76
7.04
9.95
12.34
14.17
15.50
16.42
17.01
17.34
17.41
17.21
16.72
15.95
14.94
13.77
12.52
11.26
10.01
8.77
7.49
6.12
4.67
3.16
1.69
0.34
-0.88
-2.01
-3.18
-4.48
-5.92
-7.37
-8.64
-9.55
-10.08
-10.36
-10.59
-10.96
-11.53
-12.21
-12.88
-13.46
-13.96
-14.43
-14.90
-15.24
-15.20
-14.46
-12.80
-10.18
-6.81
-3.06
0.65
3.98
6.73
8.87
10.48
11.64
12.42
12.82
12.81
12.40
11.70
10.87
10.14
9.66
9.47
9.46
9.42
9.18
8.64
7.86
6.97
6.08
5.23
4.33
3.27
1.97
0.47
-1.09
-2.50
-3.61
-4.36
-4.81
-5.11
-5.42
-5.82
-6.37
-7.09
-7.99
-9.09
-10.40
-11.82
-13.19
-14.26
-14.74
-14.43
-13.21
-11.15
-8.45
-5.41
-2.36
0.44
2.83
4.73
6.17
7.14
7.65
7.64
7.15
6.32
5.44
4.84
4.73
5.13
5.83
6.51
6.94
7.07
7.05
7.04
7.13
7.18
7.01
6.44
5.47
4.27
3.05
1.99
1.09
0.23
-0.72
-1.85
-3.13
-4.46
-5.79
-7.08
-8.38
-9.71
-11.03
-12.26
-13.21
-13.72
-13.62
-12.80
-11.20
-8.87
-5.96
-2.76
0.38
3.13
5.24
6.66
7.49
7.92
8.13
8.26
8.37
8.48
8.64
8.87
9.20
9.56
9.86
9.99
9.93
9.78
9.73
9.94
10.44
11.03
11.36
11.10
10.04
8.18
5.75
3.05
0.35
-2.17
-4.47
-6.56
-8.48
-10.27
-11.92
-13.45
-14.85
-16.12
-17.23
-18.08
-18.49
-18.20
-17.01
-14.79
-11.65
-7.93
-4.13
-0.73
1.93
3.79
4.98
5.72
6.19
6.45
6.47
6.20
5.67
5.02
4.43
4.05
3.94
3.98
4.03
3.93
3.65
3.24
2.81
2.42
2.07
1.72
1.29
0.74
0.05
-0.80
-1.81
-2.99
-4.29
-5.62
-6.85
-7.87
-8.61
-9.06
-9.29
-9.38
-9.47
-9.68
-10.08
-10.66
-11.25
-11.55
-11.19
-9.89
-7.57
-4.44
-0.90
2.59
5.67
8.18
10.10
11.51
12.48
13.00
13.07
12.69
11.96
11.03
10.09
9.25
8.53
7.92
7.36
6.85
6.44
6.17
6.06
6.07
6.07
5.94
5.58
5.01
4.30
3.59
2.99
2.51
2.09
1.63
1.05
0.33
-0.50
-1.33
-2.11
-2.82
-3.53
-4.33
-5.32
-6.53
-7.93
-9.36
-10.60
-11.38
-11.45
-10.61
-8.77
-6.06
-2.73
0.82
4.18
6.99
9.06
10.35
10.92
10.89
10.40
9.58
8.58
7.56
6.69
6.05
5.70
5.56
5.53
5.51
5.38
5.08
4.62
4.01
3.34
2.66
2.01
1.36
0.69
-0.07
-0.93
-1.85
-2.80
-3.73
-4.61
-5.39
-6.08
-6.64
-7.10
-7.49
-7.91
-8.47
-9.25
-10.29
-11.49
-12.65
-13.54
-13.93
-13.64
-12.58
-10.79
-8.39
-5.60
-2.66
0.16
2.69
4.79
6.38
7.41
7.86
7.76
7.21
6.40
5.57
4.94
4.61
4.59
4.75
4.95
5.08
5.10
5.04
4.94
4.79
4.53
4.12
3.52
2.75
1.92
1.09
0.33
-0.37
-1.01
-1.61
-2.14
-2.57
-2.89
-3.17
-3.51
-4.03
-4.81
-5.84
-7.04
-8.24
-9.26
-9.92
-10.02
-9.41
-8.00
-5.84
-3.14
-0.24
2.48
4.73
6.32
7.23
7.53
7.29
6.65
5.76
4.83
4.13
3.84
4.01
4.56
5.28
5.92
6.35
6.53
6.51
6.37
6.11
5.67
4.99
4.00
2.71
1.19
-0.44
-2.10
-3.73
-5.33
-6.88
-8.37
-9.74
-10.92
-11.85
-12.54
-13.10
-13.68
-14.39
-15.24
-16.11
-16.73
-16.79
-16.06
-14.47
-12.13
-9.31
-6.33
-3.45
-0.88
1.28
2.93
4.00
4.46
4.35
3.84
3.20
2.72
2.67
3.11
3.94
4.95
5.94
6.79
7.53
8.25
9.02
9.79
10.42
10.71
10.55
9.92
8.96
7.82
6.67
5.60
4.65
3.80
3.00
2.16
1.14
-0.17
-1.86
-3.89
-6.12
-8.29
-10.07
-11.16
-11.34
-10.53
-8.89
-6.70
-4.38
-2.29
-0.69
0.38
0.97
1.22
1.16
0.82
0.18
-0.69
-1.61
-2.32
-2.62
-2.42
-1.81
-1.01
-0.27
0.28
0.64
0.90
1.14
1.33
1.28
0.73
-0.45
-2.21
-4.29
-6.31
-7.95
-9.06
-9.72
-10.09
-10.37
-10.65
-10.91
-11.07
-11.02
-10.63
-9.77
-8.32
-6.19
-3.40
-0.06
3.57
7.20
10.56
13.41
15.57
16.90
17.24
16.56
14.95
12.76
10.56
9.00
8.60
9.58
11.70
14.40
16.90
18.54
18.93
18.06
16.15
13.61
10.78
7.92
5.21
2.70
0.47
-1.43
-3.00
-4.27
-5.36
-6.44
-7.69
-9.24
-11.13
-13.33
-15.66
-17.85
-19.58
-20.49
-20.28
-18.77
-15.99
-12.16
-7.71
-3.17
0.92
4.18
6.44
7.70
8.15
8.00
7.45
6.61
5.58
4.46
3.41
2.64
2.32
2.51
3.12
3.90
4.53
4.77
4.51
3.86
3.06
2.36
1.91
1.71
1.63
1.47
1.11
0.54
-0.16
-0.91
-1.68
-2.53
-3.53
-4.70
-5.93
-6.93
-7.37
-6.97
-5.62
-3.44
-0.71
2.22
5.02
7.45
9.31
10.46
10.75
10.13
8.67
6.64
4.49
2.71
1.68
1.53
2.16
3.25
4.53
5.81
7.04
8.26
9.44
10.44
10.98
10.73
9.49
7.33
4.53
1.53
-1.26
-3.65
-5.64
-7.44
-9.31
-11.39
-13.66
-15.84
-17.48
-18.03
-16.99
-14.06
-9.28
-3.10
3.72
10.28
15.76
19.61
21.58
21.71
20.20
17.39
13.74
9.78
6.04
2.99
0.90
-0.25
-0.67
-0.68
-0.50
-0.23
0.20
0.88
1.84
2.94
3.90
4.42
4.21
3.13
1.14
-1.65
-5.07
-8.92
-12.98
-16.96
-20.50
-23.16
-24.52
-24.34
-22.65
-19.85
-16.58
-13.56
-11.39
-10.34
-10.33
-11.04
-12.07
-13.06
-13.82
-14.24
-14.28
-13.99
-13.42
-12.72
-12.08
-11.64
-11.42
-11.20
-10.56
-9.04
-6.32
-2.41
2.33
7.24
11.64
15.00
17.14
18.20
18.52
18.43
18.13
17.65
16.94
16.07
15.31
15.09
15.78
17.50
19.96
22.48
24.33
24.96
24.24
22.52
20.41
18.51
17.21
16.59
16.46
16.57
16.68
16.66
16.38
15.73
14.51
12.55
9.76
6.23
2.25
-1.76
-5.40
-8.34
-10.46
-11.79
-12.43
-12.59
-12.48
-12.33
-12.33
-12.61
-13.23
-14.16
-15.34
-16.67
-18.02
-19.21
-19.92
-19.80
-18.51
-15.93
-12.19
-7.70
-3.03
1.29
4.88
7.61
9.48
10.59
10.99
10.73
9.81
8.32
6.43
4.35
2.31
0.42
-1.27
-2.82
-4.31
-5.82
-7.39
-9.04
-10.77
-12.52
-14.22
-15.71
-16.90
-17.75
-18.40
-19.06
-19.98
-21.29
-22.92
-24.58
-25.80
-26.04
-24.84
-21.97
-17.43
-11.56
-4.91
1.88
8.25
13.79
18.29
21.75
24.24
25.86
26.72
26.95
26.68
26.10
25.34
24.54
23.76
23.04
22.40
21.84
21.39
21.04
20.71
20.28
19.56
18.40
16.73
14.55
11.97
9.13
6.19
3.26
0.44
-2.20
-4.66
-7.02
-9.40
-11.93
-14.60
-17.23
-19.49
-20.97
-21.33
-20.41
-18.24
-15.08
-11.35
-7.53
-4.06
-1.30
0.55
1.52
1.75
1.51
1.08
0.68
0.40
0.27
0.23
0.20
0.13
-0.01
-0.21
-0.46
-0.80
-1.31
-2.07
-3.15
-4.52
-6.06
-7.65
-9.13
-10.42
-11.50
-12.41
-13.23
-14.06
-15.00
-16.09
-17.28
-18.37
-19.07
-18.99
-17.77
-15.23
-11.44
-6.72
-1.59
3.39
7.75
11.22
13.67
15.13
15.71
15.57
14.94
14.05
13.13
12.32
11.63
10.97
10.20
9.23
8.08
6.85
5.69
4.71
3.93
3.30
2.69
1.99
1.11
0.06
-1.17
-2.56
-4.12
-5.91
-7.93
-10.16
-12.43
-14.57
-16.34
-17.53
-18.00
-17.58
-16.15
-13.60
-9.97
-5.46
-0.55
4.19
8.23
11.23
13.12
14.08
14.34
14.08
13.37
12.17
10.49
8.40
6.10
3.81
1.76
0.12
-1.01
-1.56
-1.55
-1.06
-0.31
0.38
0.75
0.63
0.04
-0.85
-1.77
-2.48
-2.88
-2.97
-2.92
-2.95
-3.28
-4.06
-5.29
-6.83
-8.33
-9.36
-9.49
-8.42
-6.03
-2.51
1.73
6.10
9.99
12.86
14.39
14.52
13.47
11.66
9.59
7.76
6.53
6.08
6.35
7.13
8.00
8.53
8.35
7.30
5.45
3.10
0.64
-1.59
-3.37
-4.67
-5.54
-6.10
-6.47
-6.69
-6.81
-6.84
-6.76
-6.55
-6.19
-5.73
-5.26
-4.98
-5.06
-5.61
-6.61
-7.83
-8.93
-9.48
-9.15
-7.75
-5.36
-2.21
1.32
4.81
7.90
10.33
11.89
12.52
12.25
11.23
9.70
7.93
6.18
4.64
3.42
2.61
2.25
2.34
2.74
3.25
3.58
3.53
3.01
2.10
0.96
-0.25
-1.42
-2.51
-3.48
-4.26
-4.79
-5.03
-5.04
-4.96
-4.94
-5.12
-5.59
-6.37
-7.43
-8.67
-9.87
-10.71
-10.83
-10.00
-8.19
-5.62
-2.64
0.41
3.27
5.83
7.99
9.62
10.60
10.86
10.47
9.62
8.52
7.36
6.21
5.09
4.03
3.15
2.63
2.59
3.01
3.63
4.11
4.15
3.59
2.52
1.20
-0.06
-1.07
-1.73
-2.13
-2.39
-2.65
-3.00
-3.51
-4.23
-5.24
-6.62
-8.33
-10.20
-11.90
-13.00
-13.11
-12.02
-9.79
-6.74
-3.35
-0.10
2.70
4.94
6.63
7.83
8.56
8.82
8.59
7.96
7.10
6.20
5.45
4.94
4.68
4.63
4.75
4.97
5.20
5.38
5.45
5.40
5.29
5.16
5.03
4.85
4.51
3.94
3.13
2.15
1.16
0.24
-0.58
-1.36
-2.23
-3.31
-4.64
-6.15
-7.60
-8.66
-9.01
-8.43
-6.93
-4.74
-2.26
0.10
2.03
3.39
4.18
4.48
4.35
3.80
2.86
1.57
0.06
-1.50
-2.92
-4.01
-4.70
-4.98
-4.91
-4.60
-4.15
-3.59
-2.96
-2.32
-1.78
-1.52
-1.72
-2.46
-3.67
-5.14
-6.65
-7.98
-9.07
-9.94
-10.63
-11.09
-11.25
-10.96
-10.12
-8.68
-6.66
-4.13
-1.27
1.69
4.51
6.94
8.86
10.23
11.09
11.47
11.35
10.72
9.58
8.03
6.23
4.42
2.82
1.56
0.76
0.45
0.64
1.29
2.30
3.45
4.54
5.36
5.79
5.79
5.40
4.69
3.72
2.58
1.35
0.14
-0.96
-1.91
-2.73
-3.57
-4.58
-5.82
-7.26
-8.66
-9.72
-10.15
-9.78
-8.64
-6.98
-5.14
-3.49
-2.33
-1.78
-1.83
-2.35
-3.14
-4.06
-5.04
-6.02
-6.97
-7.76
-8.25
-8.31
-7.89
-7.09
-6.12
-5.22
-4.59
-4.30
-4.30
-4.50
-4.73
-4.91
-4.98
-4.90
-4.72
-4.50
-4.29
-4.20
-4.31
-4.70
-5.39
-6.22
-6.93
-7.12
-6.43
-4.69
-1.97
1.36
4.84
8.00
10.54
12.31
13.29
13.53
13.09
12.05
10.53
8.70
6.75
4.88
3.24
1.93
0.98
0.39
0.07
-0.05
-0.06
0.00
0.11
0.20
0.23
0.06
-0.39
-1.18
-2.26
-3.52
-4.86
-6.21
-7.56
-8.93
-10.30
-11.52
-12.31
-12.29
-11.12
-8.65
-4.95
-0.39
4.48
9.07
12.91
15.74
17.50
18.24
18.08
17.15
15.62
13.69
11.65
9.79
8.34
7.38
6.88
6.64
6.46
6.18
5.72
5.08
4.24
3.19
1.86
0.23
-1.67
-3.73
-5.78
-7.66
-9.25
-10.56
-11.67
-12.70
-13.76
-14.86
-15.92
-16.72
-17.02
-16.54
-15.13
-12.70
-9.36
-5.29
-0.78
3.81
8.13
11.85
14.70
16.56
17.40
17.30
16.43
15.01
13.29
11.54
10.03
8.97
8.42
8.24
8.15
7.82
7.02
5.69
4.01
2.26
0.74
-0.35
-0.95
-1.15
-1.10
-0.95
-0.83
-0.88
-1.18
-1.82
-2.82
-4.09
-5.51
-6.90
-8.18
-9.40
-10.63
-11.91
-13.10
-13.86
-13.77
-12.48
-9.89
-6.29
-2.16
1.94
5.58
8.56
10.86
12.55
13.64
14.09
13.88
13.04
11.80
10.46
9.38
8.81
8.77
9.10
9.53
9.79
9.75
9.42
8.92
8.41
7.96
7.52
6.94
6.08
4.85
3.33
1.71
0.20
-1.06
-2.11
-3.10
-4.23
-5.65
-7.33
-9.14
-10.95
-12.68
-14.39
-16.19
-18.11
-20.04
-21.64
-22.44
-22.01
-20.08
-16.70
-12.20
-7.15
-2.19
2.20
5.72
8.37
10.26
11.59
12.55
13.24
13.78
14.26
14.79
15.43
16.13
16.76
17.13
17.06
16.42
15.21
13.50
11.45
9.25
7.09
5.17
3.62
2.49
1.75
1.26
0.85
0.33
-0.44
-1.57
-3.04
-4.73
-6.45
-8.02
-9.30
-10.29
-11.15
-12.11
-13.41
-15.16
-17.32
-19.66
-21.77
-23.16
-23.38
-22.12
-19.37
-15.41
-10.79
-6.12
-1.91
1.56
4.22
6.13
7.36
7.93
7.87
7.28
6.41
5.63
5.27
5.50
6.26
7.29
8.28
9.04
9.53
9.84
10.04
10.06
9.78
9.05
7.85
6.38
4.90
3.70
2.91
2.46
2.18
1.88
1.44
0.85
0.11
-0.78
-1.83
-3.07
-4.49
-5.99
-7.46
-8.78
-9.88
-10.71
-11.23
-11.37
-10.96
-9.82
-7.87
-5.12
-1.82
1.67
4.94
7.65
9.65
10.95
11.67
11.96
11.87
11.40
10.49
9.16
7.54
5.89
4.53
3.69
3.49
3.85
4.53
5.22
5.66
5.72
5.37
4.73
3.95
3.17
2.47
1.83
1.21
0.50
-0.34
-1.35
-2.51
-3.76
-5.04
-6.28
-7.43
-8.44
-9.28
-9.89
-10.27
-10.42
-10.42
-10.38
-10.45
-10.75
-11.23
-11.68
-11.76
-11.05
-9.34
-6.65
-3.33
0.17
3.43
6.21
8.52
10.48
12.21
13.64
14.61
14.86
14.27
12.87
10.91
8.72
6.65
4.94
3.68
2.84
2.33
2.01
1.75
1.41
0.79
-0.26
-1.82
-3.79
-5.95
-7.92
-9.38
-10.15
-10.26
-9.95
-9.50
-9.18
-9.13
-9.34
-9.76
-10.33
-11.08
-12.13
-13.65
-15.73
-18.32
-21.22
-24.02
-26.25
-27.46
-27.26
-25.50
-22.22
-17.77
-12.62
-7.30
-2.25
2.23
6.02
9.09
11.47
13.21
14.37
15.03
15.31
15.29
15.09
14.79
14.47
14.20
14.01
13.86
13.66
13.28
12.67
11.81
10.82
9.83
8.98
8.34
7.91
7.64
7.48
7.39
7.34
7.29
7.21
7.03
6.70
6.16
5.39
4.43
3.35
2.20
1.04
-0.21
-1.64
-3.33
-5.24
-7.16
-8.71
-9.48
-9.19
-7.80
-5.56
-2.90
-0.26
2.03
3.81
5.05
5.74
5.83
5.28
4.09
2.41
0.49
-1.35
-2.87
-3.93
-4.55
-4.84
-4.93
-4.91
-4.84
-4.68
-4.38
-3.92
-3.31
-2.67
-2.16
-1.93
-2.02
-2.33
-2.69
-2.92
-2.97
-2.94
-3.02
-3.37
-3.97
-4.66
-5.23
-5.49
-5.45
-5.24
-5.11
-5.30
-5.98
-7.19
-8.83
-10.62
-12.13
-12.85
-12.35
-10.41
-7.15
-3.04
1.27
5.14
8.14
10.14
11.21
11.59
11.53
11.24
10.89
10.59
10.39
10.31
10.32
10.36
10.38
10.35
10.27
10.11
9.85
9.42
8.78
7.92
6.91
5.90
5.04
4.44
4.08
3.85
3.50
2.81
1.63
-0.01
-1.95
-3.89
-5.59
-6.92
-7.94
-8.84
-9.85
-11.12
-12.67
-14.43
-16.28
-18.06
-19.64
-20.83
-21.36
-21.01
-19.58
-17.13
-13.95
-10.43
-7.01
-3.96
-1.40
0.68
2.30
3.46
4.17
4.48
4.54
4.53
4.64
4.93
5.38
5.87
6.27
6.53
6.63
6.58
6.43
6.20
5.92
5.65
5.43
5.31
5.30
5.35
5.36
5.20
4.72
3.83
2.49
0.74
-1.34
-3.66
-6.17
-8.86
-11.75
-14.83
-18.03
-21.19
-24.12
-26.55
-28.14
-28.49
-27.19
-24.00
-18.94
-12.42
-5.15
2.09
8.66
14.27
18.89
22.69
25.82
28.25
29.85
30.51
30.21
29.13
27.60
25.94
24.36
22.92
21.49
19.90
17.99
15.73
13.21
10.59
8.02
5.58
3.26
1.02
-1.13
-3.12
-4.86
-6.28
-7.44
-8.50
-9.66
-11.06
-12.72
-14.55
-16.42
-18.17
-19.67
-20.78
-21.31
-21.07
-19.89
-17.71
-14.63
-10.95
-7.08
-3.44
-0.41
1.82
3.18
3.76
3.68
3.11
2.20
1.10
-0.03
-1.00
-1.68
-1.98
-1.93
-1.65
-1.33
-1.14
-1.18
-1.46
-1.88
-2.30
-2.57
-2.70
-2.78
-3.04
-3.71
-4.92
-6.66
-8.74
-10.86
-12.64
-13.76
-14.00
-13.37
-12.06
-10.42
-8.75
-7.16
-5.50
-3.41
-0.49
3.42
8.17
13.32
18.32
22.69
26.20
28.81
30.56
31.46
31.46
30.53
28.73
26.29
23.58
21.00
18.83
17.20
16.02
15.12
14.28
13.31
12.12
10.66
8.96
7.07
5.11
3.18
1.34
-0.42
-2.20
-4.15
-6.36
-8.85
-11.50
-14.09
-16.44
-18.40
-19.98
-21.27
-22.45
-23.66
-24.95
-26.19
-27.11
-27.32
-26.41
-24.12
-20.43
-15.55
-9.95
-4.10
1.54
6.67
11.14
14.87
17.82
19.94
21.23
21.70
21.50
20.81
19.87
18.86
17.90
17.00
16.02
14.83
13.28
11.34
9.13
6.89
4.83
3.09
1.60
0.14
-1.54
-3.57
-5.88
-8.21
-10.25
-11.80
-12.85
-13.58
-14.25
-15.06
-16.11
-17.35
-18.66
-19.83
-20.66
-20.91
-20.35
-18.79
-16.12
-12.38
-7.85
-2.97
1.71
5.67
8.55
10.25
10.92
10.93
10.68
10.45
10.34
10.31
10.23
10.01
9.64
9.16
8.61
7.96
7.19
6.33
5.49
4.90
4.73
5.10
5.88
6.81
7.62
8.10
8.17
7.87
7.30
6.52
5.59
4.56
3.52
2.56
1.71
0.96
0.19
-0.76
-2.03
-3.68
-5.61
-7.59
-9.27
-10.31
-10.40
-9.40
-7.31
-4.35
-0.83
2.84
6.20
8.87
10.54
11.09
10.55
9.11
7.01
4.50
1.81
-0.89
-3.41
-5.55
-7.20
-8.30
-8.93
-9.26
-9.45
-9.62
-9.78
-9.87
-9.80
-9.54
-9.13
-8.69
-8.35
-8.16
-8.14
-8.23
-8.34
-8.45
-8.57
-8.72
-8.94
-9.20
-9.46
-9.72
-10.01
-10.44
-11.13
-12.16
-13.50
-14.98
-16.27
-16.99
-16.78
-15.43
-12.96
-9.62
-5.87
-2.19
1.03
3.61
5.61
7.20
8.58
9.83
10.91
11.70
12.10
12.13
11.90
11.60
11.35
11.24
11.22
11.23
11.20
11.08
10.86
10.47
9.89
9.08
8.08
6.98
5.93
5.05
4.41
3.98
3.64
3.30
2.92
2.58
2.38
2.42
2.71
3.22
3.88
4.64
5.47
6.30
7.04
7.52
7.66
7.47
7.12
6.83
6.81
7.14
7.76
8.53
9.35
10.11
10.77
11.28
11.61
11.74
11.64
11.28
10.59
9.44
7.76
5.57
3.07
0.55
-1.70
-3.50
-4.81
-5.73
-6.38
-6.87
-7.29
-7.73
-8.28
-8.98
-9.75
-10.40
-10.66
-10.36
-9.55
-8.53
-7.66
-7.26
-7.45
-8.10
-9.03
-10.08
-11.16
-12.33
-13.61
-14.98
-16.29
-17.32
-17.80
-17.51
-16.31
-14.16
-11.20
-7.64
-3.83
-0.09
3.27
6.04
8.11
9.39
9.89
9.68
8.97
8.02
7.12
6.47
6.11
5.95
5.84
5.65
5.30
4.81
4.20
3.52
2.79
2.04
1.29
0.53
-0.29
-1.28
-2.53
-4.08
-5.83
-7.58
-9.10
-10.26
-11.07
-11.71
-12.40
-13.36
-14.67
-16.28
-17.95
-19.38
-20.22
-20.17
-19.07
-16.90
-13.79
-10.00
-5.81
-1.54
2.51
6.09
8.98
11.04
12.29
12.92
13.18
13.34
13.56
13.84
14.04
14.02
13.68
13.05
12.24
11.34
10.44
9.54
8.62
7.69
6.75
5.79
4.75
3.53
2.01
0.16
-1.93
-4.09
-6.12
-7.91
-9.46
-10.87
-12.31
-13.93
-15.81
-17.90
-20.03
-21.92
-23.14
-23.28
-21.94
-18.98
-14.55
-9.09
-3.31
2.08
6.50
9.63
11.45
12.17
12.14
11.74
11.31
11.11
11.26
11.70
12.27
12.70
12.82
12.62
12.27
12.05
12.24
12.90
13.88
14.87
15.52
15.64
15.18
14.28
13.08
11.76
10.38
9.02
7.75
6.67
5.85
5.29
4.87
4.38
3.63
2.52
1.14
-0.24
-1.28
-1.66
-1.21
0.06
1.95
4.19
6.46
8.46
9.96
10.75
10.66
9.59
7.58
4.83
1.72
-1.28
-3.76
-5.46
-6.36
-6.62
-6.42
-5.97
-5.35
-4.58
-3.69
-2.72
-1.76
-0.92
-0.26
0.16
0.33
0.21
-0.25
-1.11
-2.39
-4.05
-6.03
-8.19
-10.45
-12.74
-15.00
-17.18
-19.17
-20.78
-21.75
-21.86
-20.97
-19.08
-16.37
-13.09
-9.59
-6.16
-3.04
-0.37
1.77
3.34
4.34
4.79
4.75
4.43
4.03
3.81
3.85
4.12
4.46
4.68
4.64
4.39
4.05
3.74
3.44
3.02
2.30
1.20
-0.18
-1.58
-2.72
-3.44
-3.79
-4.01
-4.40
-5.19
-6.46
-8.11
-9.90
-11.57
-12.83
-13.44
-13.20
-12.02
-9.88
-6.91
-3.36
0.42
4.06
7.21
9.65
11.26
12.04
12.11
11.62
10.73
9.60
8.37
7.15
6.03
5.06
4.24
3.56
3.00
2.55
2.17
1.83
1.42
0.87
0.14
-0.73
-1.65
-2.53
-3.37
-4.25
-5.22
-6.32
-7.48
-8.53
-9.37
-10.00
-10.55
-11.21
-12.05
-12.98
-13.71
-13.83
-12.98
-11.00
-7.94
-4.11
0.10
4.25
7.98
11.06
13.35
14.85
15.60
15.68
15.22
14.36
13.28
12.18
11.23
10.54
10.17
10.06
10.08
10.05
9.82
9.30
8.49
7.45
6.31
5.16
4.05
2.94
1.73
0.32
-1.30
-3.07
-4.82
-6.41
-7.74
-8.83
-9.80
-10.81
-12.01
-13.47
-15.15
-16.90
-18.40
-19.24
-19.01
-17.40
-14.37
-10.17
-5.29
-0.35
4.15
7.87
10.71
12.71
13.97
14.58
14.60
14.06
13.07
11.77
10.36
9.04
7.96
7.17
6.66
6.38
6.26
6.27
6.38
6.50
6.49
6.20
5.55
4.58
3.43
2.29
1.28
0.42
-0.40
-1.27
-2.24
-3.29
-4.32
-5.25
-6.10
-6.94
-7.94
-9.26
-10.99
-13.12
-15.42
-17.49
-18.80
-18.81
-17.21
-14.01
-9.57
-4.51
0.47
4.81
8.21
10.64
12.20
13.08
13.38
13.19
12.62
11.79
10.92
10.20
9.73
9.50
9.38
9.26
9.05
8.78
8.54
8.36
8.16
7.78
7.03
5.85
4.30
2.62
1.05
-0.25
-1.31
-2.29
-3.40
-4.74
-6.24
-7.69
-8.87
-9.66
-10.12
-10.46
-10.94
-11.78
-13.01
-14.49
-15.94
-16.98
-17.25
-16.51
-14.63
-11.67
-7.82
-3.36
1.38
6.02
10.17
13.49
15.71
16.77
16.77
15.99
14.78
13.43
12.14
11.00
10.03
9.24
8.60
8.07
7.57
6.97
6.15
5.09
3.81
2.44
1.17
0.13
-0.59
-1.02
-1.29
-1.60
-2.12
-2.98
-4.16
-5.57
-7.04
-8.40
-9.53
-10.39
-11.06
-11.64
-12.28
-13.04
-13.98
-15.07
-16.27
-17.46
-18.43
-18.87
-18.42
-16.76
-13.81
-9.77
-5.07
-0.28
4.12
7.78
10.57
12.46
13.50
13.74
13.30
12.37
11.16
9.94
8.92
8.23
7.92
7.95
8.21
8.59
8.93
9.16
9.23
9.13
8.86
8.39
7.67
6.64
5.39
4.05
2.84
1.88
1.19
0.60
-0.10
-1.11
-2.48
-4.13
-5.85
-7.44
-8.78
-9.83
-10.70
-11.56
-12.58
-13.89
-15.42
-16.97
-18.14
-18.48
-17.64
-15.48
-12.16
-8.07
-3.66
0.66
4.62
8.06
10.91
13.10
14.56
15.24
15.15
14.40
13.21
11.88
10.70
9.88
9.49
9.47
9.62
9.74
9.64
9.26
8.65
7.91
7.16
6.46
5.82
5.21
4.58
3.92
3.22
2.51
1.81
1.15
0.51
-0.15
-0.88
-1.73
-2.71
-3.79
-4.93
-6.09
-7.27
-8.53
-9.98
-11.64
-13.45
-15.12
-16.28
-16.52
-15.55
-13.31
-10.00
-5.99
-1.80
2.05
5.16
7.28
8.38
8.60
8.17
7.37
6.42
5.47
4.59
3.89
3.49
3.50
3.98
4.84
5.87
6.77
7.29
7.29
6.83
6.10
5.31
4.56
3.84
3.03
2.05
0.90
-0.33
-1.53
-2.66
-3.77
-4.98
-6.36
-7.85
-9.28
-10.49
-11.37
-11.99
-12.51
-13.14
-14.02
-15.09
-16.14
-16.78
-16.60
-15.24
-12.58
-8.70
-3.99
1.04
5.80
9.84
12.91
14.94
16.05
16.37
16.03
15.12
13.75
12.06
10.27
8.65
7.40
6.57
6.08
5.73
5.35
4.81
4.13
3.36
2.58
1.81
1.05
0.27
-0.55
-1.41
-2.25
-3.05
-3.77
-4.43
-5.03
-5.59
-6.05
-6.34
-6.41
-6.24
-5.93
-5.70
-5.77
-6.35
-7.53
-9.21
-11.14
-12.94
-14.21
-14.58
-13.87
-12.05
-9.29
-5.86
-2.12
1.59
4.98
7.82
9.97
11.36
11.97
11.87
11.16
10.01
8.65
7.33
6.27
5.59
5.30
5.30
5.43
5.48
5.31
4.80
3.98
2.91
1.73
0.59
-0.43
-1.33
-2.21
-3.19
-4.31
-5.52
-6.67
-7.61
-8.21
-8.48
-8.50
-8.43
-8.44
-8.69
-9.34
-10.48
-12.10
-14.07
-16.03
-17.52
-18.04
-17.24
-15.06
-11.76
-7.79
-3.68
0.16
3.52
6.36
8.75
10.81
12.66
14.37
15.95
17.36
18.53
19.36
19.78
19.78
19.46
18.97
18.41
17.86
17.31
16.75
16.17
15.60
15.03
14.43
13.71
12.80
11.67
10.41
9.20
8.20
7.51
7.11
6.89
6.73
6.56
6.35
6.13
5.96
5.88
5.85
5.79
5.55
5.05
4.29
3.49
3.03
3.39
4.96
7.87
11.87
16.36
20.57
23.80
25.60
25.85
24.72
22.44
19.26
15.33
10.83
5.93
0.89
-3.98
-8.46
-12.41
-15.87
-18.91
-21.59
-23.90
-25.71
-26.90
-27.40
-27.24
-26.53
-25.51
-24.46
-23.63
-23.18
-23.15
-23.44
-23.84
-24.16
-24.28
-24.25
-24.26
-24.55
-25.28
-26.42
-27.72
-28.75
-29.11
-28.49
-26.72
-23.85
-20.00
-15.41
-10.36
-5.22
-0.39
3.79
7.09
9.49
11.12
12.21
12.99
13.57
13.96
14.09
13.86
13.26
12.36
11.29
10.21
9.24
8.40
7.66
6.90
6.04
5.00
3.80
2.48
1.08
-0.42
-2.01
-3.65
-5.28
-6.74
-7.93
-8.85
-9.62
-10.50
-11.71
-13.36
-15.33
-17.30
-18.86
-19.56
-19.10
-17.31
-14.27
-10.19
-5.46
-0.51
4.23
8.40
11.83
14.46
16.39
17.72
18.51
18.77
18.52
17.76
16.60
15.20
13.73
12.34
11.05
9.85
8.68
7.51
6.35
5.26
4.30
3.48
2.77
2.05
1.16
0.00
-1.46
-3.16
-4.90
-6.50
-7.80
-8.76
-9.49
-10.17
-10.99
-12.11
-13.59
-15.35
-17.17
-18.66
-19.33
-18.71
-16.53
-12.84
-8.02
-2.69
2.50
7.07
10.84
13.89
16.43
18.62
20.43
21.69
22.12
21.61
20.28
18.51
16.81
15.61
15.07
15.08
15.27
15.21
14.57
13.19
11.09
8.45
5.52
2.56
-0.17
-2.48
-4.35
-5.87
-7.26
-8.79
-10.66
-12.89
-15.33
-17.72
-19.76
-21.23
-22.10
-22.51
-22.67
-22.80
-22.99
-23.16
-23.11
-22.56
-21.28
-19.09
-15.98
-12.03
-7.41
-2.41
2.64
7.36
11.41
14.53
16.57
17.55
17.63
17.02
15.99
14.81
13.69
12.79
12.19
11.92
11.96
12.25
12.69
13.14
13.47
13.54
13.28
12.70
11.87
10.90
9.85
8.71
7.43
5.95
4.25
2.40
0.46
-1.50
-3.45
-5.41
-7.36
-9.32
-11.24
-13.15
-15.05
-16.97
-18.84
-20.45
-21.48
-21.58
-20.50
-18.20
-14.85
-10.78
-6.35
-1.87
2.46
6.46
9.98
12.82
14.77
15.75
15.79
15.13
14.07
12.93
11.96
11.28
10.90
10.82
10.97
11.30
11.73
12.11
12.26
12.00
11.26
10.09
8.68
7.31
6.18
5.36
4.75
4.18
3.44
2.44
1.23
-0.10
-1.41
-2.66
-3.86
-5.08
-6.35
-7.69
-9.04
-10.38
-11.74
-13.13
-14.54
-15.76
-16.47
-16.26
-14.83
-12.14
-8.47
-4.35
-0.34
3.11
5.81
7.79
9.16
10.00
10.31
10.09
9.37
8.32
7.19
6.23
5.64
5.43
5.46
5.54
5.46
5.13
4.54
3.78
2.98
2.23
1.57
0.96
0.36
-0.24
-0.85
-1.44
-2.04
-2.67
-3.42
-4.35
-5.46
-6.68
-7.86
-8.82
-9.44
-9.71
-9.74
-9.76
-10.05
-10.81
-12.08
-13.67
-15.20
-16.21
-16.29
-15.21
-12.95
-9.68
-5.71
-1.41
2.85
6.75
10.00
12.39
13.80
14.22
13.75
12.62
11.12
9.58
8.26
7.31
6.75
6.50
6.43
6.43
6.37
6.17
5.77
5.11
4.20
3.06
1.79
0.53
-0.62
-1.60
-2.40
-3.11
-3.84
-4.67
-5.64
-6.67
-7.63
-8.42
-9.01
-9.51
-10.11
-11.01
-12.28
-13.86
-15.50
-16.89
-17.67
-17.56
-16.34
-13.92
-10.39
-6.01
-1.21
3.52
7.71
11.05
13.40
14.75
15.19
14.84
13.90
12.60
11.23
10.06
9.28
8.93
8.95
9.20
9.53
9.83
10.01
9.93
9.47
8.53
7.16
5.57
4.01
2.72
1.76
0.98
0.14
-0.99
-2.50
-4.30
-6.24
-8.15
-9.93
-11.57
-13.05
-14.40
-15.64
-16.82
-18.05
-19.41
-20.86
-22.26
-23.26
-23.48
-22.58
-20.37
-16.89
-12.37
-7.19
-1.82
3.27
7.71
11.25
13.82
15.49
16.45
16.89
16.96
16.72
16.22
15.52
14.76
14.10
13.66
13.49
13.53
13.59
13.51
13.12
12.38
11.32
10.00
8.51
6.93
5.37
3.93
2.68
1.62
0.66
-0.37
-1.66
-3.28
-5.18
-7.19
-9.07
-10.64
-11.82
-12.69
-13.42
-14.26
-15.40
-16.89
-18.61
-20.20
-21.15
-20.95
-19.27
-16.11
-11.79
-6.90
-2.03
2.31
5.83
8.42
10.08
10.90
11.06
10.76
10.24
9.74
9.43
9.38
9.56
9.89
10.24
10.52
10.64
10.59
10.44
10.30
10.31
10.51
10.78
10.89
10.57
9.63
8.06
6.03
3.79
1.55
-0.61
-2.71
-4.82
-6.90
-8.85
-10.48
-11.63
-12.28
-12.55
-12.65
-12.79
-13.12
-13.71
-14.52
-15.47
-16.47
-17.34
-17.84
-17.67
-16.51
-14.13
-10.54
-6.00
-0.99
3.95
8.34
11.92
14.61
16.48
17.63
18.12
18.00
17.34
16.29
15.06
13.86
12.80
11.93
11.20
10.57
10.04
9.61
9.30
9.08
8.87
8.54
8.01
7.21
6.14
4.86
3.47
2.06
0.76
-0.37
-1.34
-2.24
-3.18
-4.24
-5.39
-6.53
-7.53
-8.31
-8.92
-9.52
-10.29
-11.35
-12.72
-14.28
-15.81
-17.04
-17.70
-17.57
-16.49
-14.42
-11.46
-7.83
-3.91
-0.09
3.27
5.95
7.86
9.07
9.71
9.87
9.64
9.09
8.32
7.50
6.81
6.42
6.40
6.67
7.06
7.38
7.50
7.38
7.02
6.46
5.71
4.76
3.65
2.43
1.24
0.18
-0.67
-1.33
-1.91
-2.54
-3.37
-4.46
-5.78
-7.22
-8.66
-9.96
-11.07
-12.01
-12.91
-13.86
-14.94
-16.05
-16.96
-17.35
-16.92
-15.50
-13.08
-9.86
-6.20
-2.48
0.91
3.69
5.74
7.05
7.74
7.93
7.73
7.21
6.46
5.62
4.90
4.52
4.62
5.19
6.03
6.85
7.36
7.44
7.09
6.45
5.67
4.86
4.03
3.18
2.26
1.27
0.22
-0.88
-2.01
-3.18
-4.38
-5.63
-6.89
-8.13
-9.31
-10.38
-11.36
-12.28
-13.14
-13.86
-14.25
-14.01
-12.86
-10.66
-7.50
-3.72
0.20
3.76
6.61
8.58
9.65
9.92
9.50
8.53
7.14
5.54
3.94
2.56
1.53
0.86
0.47
0.22
0.02
-0.18
-0.35
-0.43
-0.38
-0.22
0.03
0.31
0.60
0.82
0.91
0.79
0.44
-0.11
-0.74
-1.34
-1.86
-2.37
-3.01
-3.96
-5.24
-6.70
-7.99
-8.68
-8.41
-7.07
-4.80
-1.98
0.98
3.73
6.05
7.86
9.14
9.82
9.87
9.31
8.28
7.06
5.96
5.19
4.80
4.66
4.58
4.44
4.25
4.08
4.03
4.10
4.18
4.13
3.81
3.20
2.38
1.48
0.60
-0.26
-1.13
-2.12
-3.30
-4.67
-6.22
-7.87
-9.55
-11.20
-12.73
-14.04
-14.94
-15.22
-14.63
-13.02
-10.37
-6.90
-3.02
0.80
4.16
6.81
8.66
9.76
10.20
10.06
9.44
8.44
7.24
6.08
5.18
4.68
4.57
4.68
4.79
4.67
4.21
3.47
2.58
1.72
0.98
0.33
-0.36
-1.25
-2.38
-3.68
-4.95
-6.01
-6.74
-7.23
-7.64
-8.20
-9.02
-10.06
-11.15
-12.03
-12.43
-12.11
-10.92
-8.79
-5.78
-2.14
1.82
5.70
9.14
11.86
13.73
14.69
14.76
13.98
12.51
10.60
8.58
6.80
5.53
4.84
4.64
4.70
4.77
4.69
4.42
4.04
3.68
3.41
3.24
3.05
2.70
2.09
1.24
0.28
-0.60
-1.28
-1.76
-2.17
-2.70
-3.51
-4.64
-6.03
-7.56
-9.11
-10.54
-11.69
-12.32
-12.19
-11.11
-9.06
-6.23
-3.02
0.13
2.84
4.87
6.21
6.90
7.08
6.83
6.22
5.35
4.38
3.50
2.89
2.67
2.80
3.18
3.62
3.94
4.03
3.85
3.42
2.80
2.08
1.35
0.65
-0.06
-0.80
-1.61
-2.42
-3.13
-3.61
-3.82
-3.85
-3.93
-4.32
-5.21
-6.66
-8.51
-10.51
-12.27
-13.45
-13.70
-12.80
-10.70
-7.55
-3.71
0.34
4.09
7.14
9.26
10.41
10.70
10.31
9.42
8.26
7.08
6.13
5.61
5.64
6.16
6.94
7.67
8.06
7.98
7.44
6.64
5.80
5.09
4.57
4.15
3.68
3.03
2.14
1.10
0.05
-0.80
-1.35
-1.57
-1.53
-1.41
-1.38
-1.60
-2.13
-2.92
-3.79
-4.50
-4.75
-4.27
-2.91
-0.65
2.34
5.75
9.19
12.26
14.62
16.09
16.62
16.28
15.27
13.83
12.23
10.68
9.38
8.42
7.78
7.36
6.97
6.46
5.71
4.75
3.65
2.53
1.48
0.52
-0.42
-1.45
-2.66
-4.07
-5.67
-7.38
-9.10
-10.71
-12.08
-13.14
-13.88
-14.38
-14.79
-15.27
-15.93
-16.77
-17.65
-18.34
-18.51
-17.83
-16.04
-13.09
-9.16
-4.68
-0.19
3.83
7.04
9.33
10.73
11.34
11.21
10.43
9.10
7.47
5.85
4.52
3.66
3.27
3.17
3.14
2.99
2.65
2.16
1.64
1.21
0.95
0.79
0.56
0.08
-0.77
-1.97
-3.34
-4.63
-5.65
-6.35
-6.85
-7.38
-8.14
-9.23
-10.59
-12.01
-13.20
-13.87
-13.77
-12.75
-10.79
-8.00
-4.60
-0.92
2.73
6.02
8.71
10.67
11.87
12.37
12.33
11.87
11.10
10.07
8.81
7.40
5.96
4.71
3.84
3.42
3.40
3.57
3.67
3.49
2.93
2.01
0.81
-0.59
-2.11
-3.71
-5.32
-6.87
-8.27
-9.47
-10.50
-11.49
-12.63
-14.10
-15.96
-18.10
-20.22
-21.92
-22.76
-22.40
-20.75
-17.95
-14.38
-10.50
-6.73
-3.37
-0.58
1.63
3.33
4.60
5.57
6.40
7.26
8.33
9.67
11.23
12.79
14.09
14.88
15.09
14.80
14.24
13.64
13.14
12.73
12.29
11.66
10.85
9.96
9.19
8.66
8.38
8.16
7.75
6.94
5.66
3.94
1.86
-0.51
-3.10
-5.82
-8.35
-10.26
-11.08
-10.53
-8.68
-6.00
-3.18
-0.82
0.73
1.48
1.68
1.62
1.53
1.46
1.43
1.41
1.44
1.57
1.82
2.17
2.62
3.15
3.76
4.40
4.93
5.14
4.86
4.05
2.84
1.50
0.26
-0.85
-1.94
-3.24
-4.79
-6.40
-7.71
-8.34
-8.21
-7.53
-6.82
-6.53
-6.89
-7.76
-8.75
-9.35
-9.16
-7.98
-5.77
-2.66
1.09
5.14
9.07
12.44
14.88
16.20
16.42
15.71
14.39
12.79
11.21
9.87
8.87
8.23
7.84
7.57
7.28
6.86
6.29
5.59
4.85
4.15
3.52
2.92
2.20
1.23
-0.09
-1.70
-3.45
-5.12
-6.50
-7.51
-8.19
-8.66
-9.08
-9.58
-10.23
-11.05
-12.01
-12.96
-13.65
-13.75
-12.92
-10.96
-7.88
-3.95
0.42
4.76
8.65
11.76
13.95
15.15
15.44
14.92
13.77
12.16
10.29
8.38
6.65
5.31
4.53
4.34
4.64
5.21
5.83
6.31
6.56
6.53
6.24
5.67
4.74
3.37
1.54
-0.72
-3.26
-5.86
-8.31
-10.46
-12.31
-13.97
-15.63
-17.37
-19.12
-20.54
-21.20
-20.66
-18.68
-15.30
-10.86
-5.86
-0.86
3.65
7.28
9.80
11.12
11.29
10.54
9.21
7.67
6.30
5.39
5.07
5.32
5.97
6.77
7.41
7.64
7.29
6.34
4.89
3.09
1.14
-0.82
-2.69
-4.39
-5.86
-7.09
-8.14
-9.18
-10.43
-12.06
-14.09
-16.37
-18.54
-20.19
-20.97
-20.65
-19.17
-16.62
-13.16
-9.03
-4.56
-0.11
3.94
7.27
9.71
11.23
11.95
12.04
11.63
10.87
9.86
8.71
7.53
6.45
5.54
4.88
4.46
4.27
4.22
4.21
4.14
3.89
3.43
2.74
1.89
0.93
-0.08
-1.15
-2.34
-3.73
-5.38
-7.30
-9.40
-11.51
-13.41
-14.80
-15.39
-14.90
-13.21
-10.37
-6.70
-2.72
0.94
3.75
5.39
5.85
5.39
4.39
3.23
2.11
1.12
0.21
-0.64
-1.41
-2.04
-2.44
-2.56
-2.40
-1.99
-1.37
-0.63
0.12
0.75
1.15
1.21
0.92
0.29
-0.60
-1.68
-2.90
-4.22
-5.65
-7.18
-8.86
-10.70
-12.65
-14.51
-15.96
-16.57
-15.95
-13.84
-10.29
-5.63
-0.44
4.63
9.01
12.32
14.46
15.56
15.89
15.75
15.35
14.78
14.08
13.27
12.42
11.60
10.87
10.21
9.54
8.77
7.86
6.90
6.04
5.42
5.07
4.85
4.52
3.87
2.84
1.53
0.15
-1.11
-2.16
-3.16
-4.37
-6.03
-8.21
-10.71
-13.08
-14.77
-15.31
-14.44
-12.17
-8.79
-4.76
-0.60
3.23
6.36
8.60
9.88
10.28
9.92
8.97
7.60
5.96
4.26
2.76
1.69
1.22
1.35
1.94
2.72
3.50
4.17
4.75
5.31
5.81
6.15
6.14
5.67
4.79
3.68
2.55
1.53
0.58
-0.39
-1.53
-2.90
-4.53
-6.44
-8.62
-11.07
-13.64
-16.04
-17.84
-18.56
-17.87
-15.68
-12.18
-7.81
-3.15
1.26
5.01
7.85
9.69
10.59
10.65
10.06
9.03
7.83
6.71
5.91
5.60
5.84
6.60
7.70
8.87
9.77
10.15
9.85
8.89
7.46
5.80
4.11
2.45
0.80
-0.89
-2.54
-4.01
-5.09
-5.64
-5.72
-5.61
-5.67
-6.22
-7.41
-9.14
-11.12
-12.97
-14.26
-14.61
-13.75
-11.55
-8.08
-3.65
1.26
6.11
10.38
13.70
15.87
16.83
16.62
15.38
13.37
10.98
8.66
6.79
5.58
5.01
4.87
4.86
4.73
4.34
3.68
2.82
1.86
0.89
-0.03
-0.88
-1.67
-2.42
-3.18
-4.00
-4.93
-5.97
-7.12
-8.35
-9.60
-10.80
-11.91
-12.95
-14.01
-15.17
-16.49
-17.85
-18.95
-19.39
-18.74
-16.72
-13.38
-9.05
-4.30
0.27
4.17
7.13
9.06
10.04
10.19
9.67
8.68
7.41
6.06
4.82
3.80
3.08
2.68
2.62
2.95
3.68
4.81
6.28
7.98
9.79
11.58
13.20
14.46
15.21
15.29
14.69
13.55
12.14
10.74
9.59
8.73
8.05
7.31
6.29
4.81
2.78
0.27
-2.56
-5.38
-7.80
-9.41
-9.89
-9.11
-7.14
-4.20
-0.65
3.11
6.74
9.89
12.32
13.84
14.36
13.89
12.58
10.70
8.57
6.52
4.78
3.49
2.64
2.14
1.85
1.66
1.53
1.45
1.39
1.29
1.04
0.52
-0.41
-1.84
-3.75
-6.04
-8.48
-10.82
-12.84
-14.44
-15.71
-16.87
-18.17
-19.72
-21.41
-22.93
-23.87
-23.89
-22.81
-20.64
-17.51
-13.63
-9.26
-4.72
-0.41
3.25
5.91
7.45
8.03
7.98
7.65
7.31
7.01
6.71
6.39
6.10
6.01
6.23
6.77
7.45
8.01
8.18
7.82
6.95
5.65
4.06
2.31
0.51
-1.27
-2.96
-4.52
-5.96
-7.32
-8.70
-10.19
-11.81
-13.52
-15.11
-16.27
-16.60
-15.73
-13.45
-9.82
-5.18
-0.14
4.67
8.72
11.67
13.46
14.20
14.08
13.33
12.11
10.60
8.98
7.42
6.08
5.03
4.21
3.46
2.57
1.43
0.06
-1.38
-2.68
-3.71
-4.52
-5.30
-6.31
-7.68
-9.40
-11.26
-13.01
-14.46
-15.60
-16.56
-17.53
-18.66
-19.97
-21.30
-22.33
-22.65
-21.90
-19.83
-16.47
-12.06
-7.04
-1.90
2.87
6.93
10.02
12.04
12.93
12.74
11.63
9.82
7.66
5.56
3.87
2.89
2.75
3.46
4.87
6.70
8.60
10.18
11.08
11.10
10.20
8.57
6.58
4.65
3.15
2.29
2.07
2.31
2.76
3.18
3.40
3.33
2.98
2.47
1.96
1.76
2.12
3.24
5.11
7.53
10.15
12.54
14.36
15.38
15.47
14.64
12.95
10.59
7.83
5.01
2.51
0.62
-0.54
-1.06
-1.16
-1.10
-1.10
-1.34
-1.86
-2.68
-3.77
-5.01
-6.23
-7.25
-7.84
-7.88
-7.38
-6.47
-5.46
-4.72
-4.59
-5.23
-6.61
-8.48
-10.46
-12.08
-12.97
-12.86
-11.64
-9.37
-6.26
-2.65
1.05
4.43
7.13
8.96
9.87
9.97
9.49
8.72
7.95
7.41
7.26
7.55
8.23
9.12
9.98
10.54
10.65
10.30
9.60
8.80
8.15
7.81
7.81
8.10
8.53
8.97
9.31
9.45
9.33
8.90
8.13
6.98
5.42
3.33
0.66
-2.57
-6.13
-9.59
-12.34
-13.85
-13.78
-12.11
-9.20
-5.61
-2.07
0.76
2.37
2.52
1.25
-1.08
-3.95
-6.83
-9.27
-11.03
-11.99
-12.16
-11.56
-10.27
-8.43
-6.26
-4.05
-2.05
-0.43
0.72
1.39
1.53
1.10
0.09
-1.39
-3.11
-4.77
-6.17
-7.23
-8.06
-8.86
-9.80
-10.97
-12.34
-13.77
-15.08
-16.06
-16.48
-16.12
-14.83
-12.61
-9.66
-6.36
-3.16
-0.44
1.60
2.97
3.80
4.24
4.40
4.35
4.21
4.22
4.72
5.95
7.97
10.49
12.98
14.89
15.82
15.72
14.82
13.48
11.99
10.53
9.14
7.78
6.44
5.09
3.72
2.28
0.68
-1.16
-3.25
-5.48
-7.64
-9.37
-10.34
-10.30
-9.15
-7.01
-4.18
-1.09
1.78
4.01
5.34
5.65
5.00
3.58
1.58
-0.75
-3.17
-5.36
-7.00
-7.76
-7.44
-6.06
-3.88
-1.38
0.92
2.57
3.31
3.06
1.94
0.17
-1.90
-3.84
-5.19
-5.58
-4.89
-3.31
-1.35
0.38
1.41
1.61
1.24
0.79
0.75
1.42
2.76
4.61
6.74
9.02
11.41
13.87
16.23
18.23
19.57
20.11
19.91
19.25
18.40
17.48
16.38
14.86
12.74
10.09
7.29
4.88
3.33
2.82
3.22
4.15
5.15
5.90
6.23
6.10
5.50
4.40
2.75
0.55
-2.06
-4.73
-7.06
-8.63
-9.21
-8.78
-7.53
-5.74
-3.73
-1.70
0.23
2.02
3.63
5.06
6.28
7.23
7.87
8.17
8.13
7.79
7.20
6.40
5.40
4.22
2.90
1.55
0.33
-0.60
-1.18
-1.48
-1.66
-1.91
-2.34
-2.95
-3.65
-4.30
-4.83
-5.17
-5.33
-5.30
-5.12
-4.85
-4.66
-4.73
-5.26
-6.29
-7.69
-9.08
-10.01
-10.03
-8.91
-6.70
-3.72
-0.50
2.45
4.74
6.23
6.98
7.20
7.09
6.80
6.37
5.78
4.99
4.03
2.98
1.95
1.04
0.26
-0.46
-1.27
-2.36
-3.84
-5.71
-7.84
-9.99
-11.91
-13.44
-14.56
-15.41
-16.22
-17.21
-18.54
-20.23
-22.11
-23.88
-25.08
-25.24
-23.91
-20.87
-16.24
-10.44
-4.19
1.74
6.71
10.34
12.61
13.81
14.39
14.79
15.32
16.04
16.90
17.74
18.48
19.12
19.68
20.23
20.71
20.96
20.80
20.11
18.84
17.07
14.94
12.58
10.13
7.69
5.33
3.08
0.93
-1.15
-3.20
-5.20
-7.11
-8.90
-10.50
-11.88
-13.00
-13.74
-13.98
-13.58
-12.48
-10.76
-8.58
-6.22
-3.98
-2.11
-0.80
-0.10
0.04
-0.20
-0.64
-1.14
-1.65
-2.18
-2.78
-3.38
-3.84
-3.99
-3.76
-3.28
-2.86
-2.83
-3.40
-4.51
-5.89
-7.21
-8.23
-8.95
-9.52
-10.16
-11.03
-12.14
-13.36
-14.51
-15.44
-16.07
-16.34
-16.21
-15.63
-14.50
-12.81
-10.62
-8.13
-5.64
-3.47
-1.84
-0.80
-0.25
0.03
0.22
0.47
0.81
1.25
1.81
2.48
3.22
3.93
4.45
4.60
4.31
3.63
2.77
1.98
1.50
1.47
1.86
2.53
3.25
3.78
3.96
3.72
3.13
2.32
1.46
0.78
0.47
0.69
1.58
3.15
5.32
7.87
10.47
12.80
14.58
15.63
15.92
15.50
14.53
13.17
11.56
9.83
8.07
6.33
4.65
3.04
1.53
0.14
-1.12
-2.21
-3.11
-3.82
-4.37
-4.80
-5.18
-5.54
-5.92
-6.29
-6.65
-7.01
-7.42
-7.92
-8.55
-9.26
-9.88
-10.14
-9.75
-8.44
-6.11
-2.84
1.07
5.21
9.13
12.50
15.09
16.79
17.54
17.34
16.24
14.41
12.13
9.73
7.51
5.63
4.08
2.76
1.51
0.29
-0.87
-1.89
-2.74
-3.43
-4.01
-4.55
-5.06
-5.46
-5.72
-5.87
-6.05
-6.46
-7.31
-8.73
-10.64
-12.82
-14.88
-16.42
-17.13
-16.91
-15.78
-13.93
-11.55
-8.82
-5.90
-2.91
-0.01
2.63
4.87
6.62
7.87
8.66
9.08
9.19
9.03
8.65
8.12
7.51
6.86
6.17
5.43
4.59
3.64
2.60
1.49
0.32
-0.90
-2.14
-3.38
-4.59
-5.75
-6.91
-8.15
-9.55
-11.13
-12.74
-14.09
-14.83
-14.63
-13.34
-11.05
-8.02
-4.62
-1.17
2.11
5.15
7.92
10.41
12.57
14.26
15.26
15.40
14.56
12.80
10.38
7.70
5.20
3.23
1.90
1.11
0.55
-0.06
-0.87
-1.75
-2.39
-2.42
-1.64
-0.10
1.84
3.66
4.85
5.03
4.09
2.17
-0.36
-3.04
-5.36
-6.90
-7.38
-6.73
-5.09
-2.75
-0.13
2.37
4.42
5.81
6.44
6.30
5.49
4.23
2.74
1.27
-0.00
-1.00
-1.74
-2.27
-2.62
-2.84
-2.92
-2.88
-2.73
-2.47
-2.07
-1.50
-0.76
0.10
0.99
1.76
2.29
2.49
2.32
1.78
0.85
-0.42
-1.94
-3.47
-4.65
-5.16
-4.73
-3.33
-1.12
1.55
4.29
6.74
8.67
9.95
10.58
10.60
10.12
9.25
8.13
6.91
5.71
4.63
3.70
2.96
2.43
2.10
1.95
1.91
1.87
1.74
1.41
0.85
0.06
-0.90
-1.96
-2.99
-3.91
-4.70
-5.38
-6.08
-6.91
-7.89
-8.93
-9.76
-10.02
-9.38
-7.66
-4.91
-1.40
2.40
5.94
8.72
10.38
10.76
9.97
8.35
6.35
4.39
2.79
1.66
0.98
0.67
0.62
0.72
0.82
0.75
0.32
-0.59
-1.99
-3.73
-5.61
-7.38
-8.87
-10.05
-10.96
-11.71
-12.44
-13.25
-14.22
-15.36
-16.67
-18.03
-19.25
-20.05
-20.12
-19.18
-17.15
-14.13
-10.48
-6.67
-3.14
-0.15
2.25
4.17
5.79
7.20
8.41
9.39
10.11
10.63
11.08
11.56
12.11
12.71
13.30
13.87
14.39
14.90
15.40
15.87
16.26
16.54
16.67
16.63
16.38
15.83
14.93
13.61
11.84
9.60
6.90
3.83
0.62
-2.37
-4.67
-5.86
-5.79
-4.60
-2.74
-0.76
0.85
1.84
2.18
1.99
1.42
0.60
-0.36
-1.29
-1.99
-2.26
-1.99
-1.25
-0.27
0.63
1.22
1.37
1.14
0.64
-0.02
-0.81
-1.69
-2.61
-3.49
-4.25
-4.90
-5.55
-6.38
-7.53
-8.99
-10.58
-11.98
-12.87
-12.96
-12.15
-10.46
-8.07
-5.25
-2.31
0.45
2.82
4.65
5.91
6.64
6.88
6.67
6.05
5.10
3.92
2.72
1.71
1.08
0.89
1.02
1.26
1.38
1.21
0.73
0.02
-0.83
-1.71
-2.62
-3.56
-4.52
-5.49
-6.43
-7.34
-8.29
-9.34
-10.52
-11.76
-12.86
-13.57
-13.64
-12.89
-11.28
-8.89
-5.94
-2.71
0.50
3.41
5.81
7.58
8.67
9.09
8.86
8.04
6.71
5.08
3.41
2.01
1.12
0.82
0.98
1.34
1.59
1.53
1.12
0.46
-0.29
-1.06
-1.87
-2.82
-4.01
-5.43
-7.01
-8.58
-10.00
-11.19
-12.08
-12.54
-12.32
-11.14
-8.79
-5.36
-1.23
2.95
6.49
8.91
10.04
10.03
9.17
7.81
6.23
4.68
3.37
2.49
2.13
2.29
2.84
3.55
4.14
4.43
4.32
3.82
3.13
2.49
2.20
2.45
3.22
4.30
5.27
5.68
5.23
3.83
1.63
-1.04
-3.79
-6.24
-8.02
-8.86
-8.54
-7.03
-4.42
-0.99
2.86
6.68
9.95
12.21
13.13
12.61
10.86
8.37
5.71
3.39
1.67
0.61
0.13
0.10
0.42
0.93
1.41
1.59
1.25
0.28
-1.15
-2.74
-4.12
-5.04
-5.41
-5.26
-4.74
-4.08
-3.51
-3.24
-3.46
-4.21
-5.38
-6.74
-7.93
-8.58
-8.34
-7.02
-4.62
-1.38
2.26
5.77
8.63
10.47
11.16
10.77
9.55
7.84
6.02
4.46
3.43
3.09
3.40
4.22
5.32
6.51
7.67
8.69
9.43
9.69
9.33
8.31
6.78
5.09
3.60
2.54
1.88
1.39
0.73
-0.31
-1.70
-3.20
-4.43
-5.05
-4.86
-3.85
-2.19
-0.16
1.92
3.77
5.18
6.02
6.22
5.77
4.75
3.26
1.49
-0.37
-2.12
-3.61
-4.68
-5.28
-5.41
-5.17
-4.74
-4.35
-4.17
-4.32
-4.80
-5.54
-6.45
-7.43
-8.33
-9.04
-9.46
-9.55
-9.38
-9.10
-8.91
-8.93
-9.14
-9.44
-9.61
-9.46
-8.85
-7.72
-6.09
-4.05
-1.79
0.48
2.53
4.21
5.48
6.38
6.98
7.29
7.29
6.96
6.32
5.51
4.72
4.09
3.63
3.23
2.73
1.96
0.89
-0.41
-1.82
-3.17
-4.37
-5.34
-6.08
-6.65
-7.20
-7.87
-8.80
-9.97
-11.17
-12.03
-12.13
-11.21
-9.21
-6.35
-2.98
0.51
3.80
6.75
9.31
11.52
13.45
15.13
16.52
17.58
18.24
18.48
18.38
18.02
17.56
17.04
16.44
15.63
14.48
12.95
11.10
9.16
7.35
5.83
4.61
3.54
2.42
1.09
-0.46
-2.11
-3.71
-5.13
-6.39
-7.61
-8.95
-10.46
-12.06
-13.52
-14.52
-14.75
-14.06
-12.48
-10.18
-7.46
-4.65
-2.04
0.19
1.94
3.20
3.97
4.26
4.08
3.47
2.53
1.45
0.42
-0.41
-0.96
-1.23
-1.27
-1.13
-0.86
-0.48
-0.10
0.12
0.02
-0.50
-1.38
-2.44
-3.45
-4.21
-4.64
-4.79
-4.78
-4.77
-4.88
-5.20
-5.78
-6.59
-7.52
-8.39
-8.98
-9.04
-8.41
-7.05
-5.01
-2.51
0.17
2.69
4.79
6.27
7.10
7.41
7.37
7.18
6.94
6.64
6.20
5.54
4.59
3.41
2.13
0.91
-0.11
-0.83
-1.27
-1.55
-1.80
-2.16
-2.66
-3.30
-4.00
-4.70
-5.39
-6.07
-6.73
-7.37
-7.96
-8.51
-9.07
-9.71
-10.53
-11.52
-12.53
-13.30
-13.44
-12.67
-10.87
-8.17
-4.92
-1.55
1.54
4.13
6.14
7.58
8.50
8.89
8.74
8.09
7.10
6.07
5.29
4.98
5.15
5.62
6.10
6.33
6.21
5.81
5.27
4.73
4.19
3.54
2.67
1.52
0.17
-1.23
-2.54
-3.69
-4.73
-5.76
-6.83
-7.98
-9.19
-10.38
-11.44
-12.20
-12.42
-11.89
-10.52
-8.36
-5.67
-2.80
-0.13
2.05
3.58
4.43
4.67
4.44
3.98
3.56
3.42
3.65
4.20
4.85
5.38
5.66
5.70
5.62
5.48
5.24
4.71
3.69
2.13
0.25
-1.56
-2.84
-3.31
-2.98
-2.14
-1.17
-0.44
-0.08
-0.12
-0.43
-0.91
-1.48
-2.12
-2.84
-3.58
-4.25
-4.66
-4.53
-3.64
-1.82
0.83
4.00
7.18
9.87
11.72
12.68
12.92
12.68
12.21
11.56
10.73
9.69
8.48
7.21
6.03
5.02
4.17
3.46
2.86
2.44
2.34
2.70
3.57
4.79
6.06
7.01
7.35
6.93
5.85
4.32
2.59
0.84
-0.83
-2.40
-3.86
-5.13
-6.15
-6.86
-7.28
-7.48
-7.57
-7.62
-7.55
-7.18
-6.28
-4.68
-2.41
0.27
2.94
5.16
6.62
7.30
7.36
7.07
6.66
6.18
5.56
4.65
3.41
1.95
0.52
-0.58
-1.18
-1.28
-1.03
-0.63
-0.27
0.00
0.20
0.36
0.48
0.48
0.28
-0.21
-0.95
-1.86
-2.83
-3.72
-4.46
-5.10
-5.69
-6.39
-7.25
-8.28
-9.35
-10.27
-10.81
-10.76
-9.95
-8.33
-5.98
-3.10
-0.02
2.90
5.35
7.08
8.01
8.18
7.74
6.90
5.95
5.12
4.61
4.46
4.57
4.72
4.67
4.28
3.54
2.59
1.62
0.77
0.11
-0.43
-0.94
-1.54
-2.32
-3.28
-4.34
-5.41
-6.40
-7.29
-8.13
-9.01
-10.00
-11.11
-12.27
-13.36
-14.22
-14.76
-14.88
-14.49
-13.45
-11.64
-9.05
-5.87
-2.46
0.72
3.28
5.04
6.06
6.56
6.76
6.82
6.79
6.64
6.36
5.99
5.62
5.34
5.19
5.19
5.29
5.45
5.60
5.70
5.73
5.66
5.51
5.29
4.99
4.58
4.06
3.42
2.71
2.02
1.44
0.98
0.59
0.13
-0.57
-1.58
-2.84
-4.09
-4.95
-5.06
-4.23
-2.51
-0.18
2.31
4.55
6.27
7.36
7.83
7.77
7.25
6.34
5.15
3.81
2.53
1.48
0.77
0.36
0.16
0.02
-0.18
-0.50
-0.93
-1.44
-1.95
-2.45
-2.92
-3.43
-4.03
-4.76
-5.59
-6.42
-7.11
-7.51
-7.60
-7.44
-7.22
-7.13
-7.32
-7.84
-8.55
-9.23
-9.55
-9.22
-8.08
-6.15
-3.67
-0.97
1.60
3.82
5.58
6.88
7.68
7.93
7.57
6.59
5.10
3.35
1.61
0.13
-0.98
-1.76
-2.32
-2.78
-3.23
-3.64
-3.99
-4.24
-4.44
-4.71
-5.13
-5.74
-6.44
-7.02
-7.30
-7.22
-6.88
-6.52
-6.35
-6.45
-6.79
-7.24
-7.72
-8.25
-8.86
-9.51
-9.94
-9.76
-8.59
-6.28
-3.00
0.80
4.55
7.83
10.41
12.25
13.36
13.69
13.11
11.52
8.98
5.75
2.26
-1.08
-3.99
-6.39
-8.33
-9.87
-10.94
-11.33
-10.75
-9.01
-6.19
-2.60
1.25
4.88
7.98
10.51
12.59
14.45
16.23
17.94
19.45
20.57
21.11
20.94
20.01
18.35
16.09
13.47
10.82
8.50
6.81
5.86
5.61
5.81
6.16
6.36
6.22
5.67
4.74
3.56
2.28
1.08
0.13
-0.43
-0.52
-0.13
0.68
1.78
3.01
4.18
5.08
5.54
5.47
4.85
3.82
2.55
1.29
0.21
-0.65
-1.31
-1.88
-2.45
-3.03
-3.54
-3.87
-3.95
-3.80
-3.52
-3.29
-3.25
-3.43
-3.72
-3.93
-3.79
-3.13
-1.88
-0.13
1.89
3.88
5.59
6.83
7.51
7.63
7.22
6.33
4.99
3.24
1.20
-0.91
-2.84
-4.35
-5.29
-5.68
-5.73
-5.70
-5.88
-6.38
-7.17
-8.01
-8.61
-8.74
-8.35
-7.55
-6.59
-5.73
-5.16
-4.97
-5.21
-5.89
-7.02
-8.56
-10.43
-12.43
-14.29
-15.77
-16.61
-16.66
-15.89
-14.37
-12.29
-9.89
-7.45
-5.20
-3.31
-1.89
-0.98
-0.60
-0.70
-1.24
-2.12
-3.24
-4.43
-5.50
-6.20
-6.26
-5.49
-3.79
-1.27
1.80
4.96
7.75
9.78
10.87
11.08
10.63
9.86
9.04
8.36
7.86
7.48
7.14
6.79
6.38
5.87
5.17
4.24
3.10
1.95
1.10
0.87
1.44
2.75
4.50
6.31
7.80
8.70
8.92
8.50
7.57
6.30
4.89
3.54
2.38
1.51
0.91
0.56
0.37
0.30
0.34
0.43
0.50
0.41
0.00
-0.78
-1.90
-3.21
-4.50
-5.59
-6.40
-6.94
-7.26
-7.39
-7.30
-6.93
-6.27
-5.42
-4.67
-4.36
-4.80
-5.98
-7.58
-8.95
-9.34
-8.21
-5.43
-1.28
3.58
8.45
12.74
16.13
18.52
19.94
20.38
19.87
18.49
16.46
14.16
12.06
10.50
9.67
9.49
9.78
10.26
10.67
10.79
10.40
9.29
7.36
4.68
1.57
-1.55
-4.17
-5.95
-6.77
-6.78
-6.33
-5.87
-5.84
-6.58
-8.25
-10.74
-13.65
-16.36
-18.17
-18.56
-17.31
-14.58
-10.87
-6.81
-2.98
0.17
2.40
3.65
3.96
3.47
2.44
1.18
0.06
-0.62
-0.69
-0.18
0.76
1.88
3.02
4.07
4.96
5.66
6.08
6.08
5.53
4.38
2.73
0.82
-1.04
-2.49
-3.32
-3.46
-3.09
-2.54
-2.21
-2.46
-3.47
-5.20
-7.35
-9.50
-11.13
-11.80
-11.19
-9.22
-6.10
-2.32
1.49
4.69
6.81
7.68
7.44
6.42
5.00
3.54
2.25
1.25
0.59
0.32
0.41
0.80
1.36
1.94
2.41
2.68
2.75
2.65
2.39
1.95
1.30
0.43
-0.60
-1.72
-2.85
-3.93
-4.97
-5.99
-7.04
-8.13
-9.19
-10.12
-10.74
-10.85
-10.25
-8.82
-6.53
-3.54
-0.15
3.24
6.27
8.69
10.41
11.46
11.92
11.84
11.26
10.17
8.65
6.86
5.10
3.67
2.81
2.55
2.70
2.91
2.82
2.20
1.05
-0.45
-2.05
-3.53
-4.86
-6.18
-7.62
-9.32
-11.24
-13.31
-15.42
-17.48
-19.41
-21.00
-21.93
-21.74
-20.02
-16.54
-11.43
-5.19
1.48
7.86
13.36
17.65
20.63
22.41
23.18
23.18
22.69
21.98
21.25
20.56
19.83
18.88
17.52
15.69
13.48
11.05
8.56
6.11
3.68
1.23
-1.31
-3.89
-6.41
-8.73
-10.72
-12.28
-13.45
-14.30
-14.98
-15.65
-16.35
-17.03
-17.46
-17.27
-16.11
-13.78
-10.38
-6.29
-2.10
1.62
4.46
6.26
7.10
7.17
6.71
5.91
4.90
3.81
2.76
1.81
1.02
0.41
-0.00
-0.15
-0.01
0.41
0.94
1.36
1.48
1.21
0.67
0.09
-0.33
-0.49
-0.53
-0.69
-1.24
-2.29
-3.80
-5.57
-7.32
-8.82
-9.87
-10.32
-10.02
-8.86
-6.75
-3.80
-0.25
3.40
6.64
9.03
10.36
10.68
10.24
9.35
8.23
7.02
5.77
4.53
3.45
2.71
2.49
2.87
3.75
4.80
5.64
5.89
5.38
4.17
2.53
0.78
-0.82
-2.23
-3.55
-4.96
-6.57
-8.35
-10.18
-11.90
-13.43
-14.73
-15.81
-16.57
-16.81
-16.27
-14.74
-12.15
-8.63
-4.53
-0.29
3.63
6.88
9.19
10.47
10.75
10.16
8.95
7.42
5.90
4.69
4.03
4.00
4.48
5.10
5.39
4.91
3.46
1.20
-1.42
-3.78
-5.42
-6.18
-6.32
-6.38
-6.92
-8.24
-10.26
-12.55
-14.51
-15.63
-15.69
-14.75
-13.01
-10.66
-7.77
-4.36
-0.52
3.43
6.93
9.43
10.58
10.44
9.46
8.26
7.31
6.77
6.46
6.06
5.33
4.25
3.07
2.12
1.65
1.74
2.18
2.65
2.79
2.40
1.52
0.39
-0.61
-1.22
-1.34
-1.14
-0.92
-0.99
-1.52
-2.48
-3.72
-5.00
-6.07
-6.69
-6.61
-5.57
-3.42
-0.20
3.79
8.07
12.00
15.09
17.10
18.02
18.13
17.75
17.17
16.58
16.03
15.53
15.04
14.56
14.04
13.45
12.74
11.83
10.68
9.30
7.75
6.14
4.53
2.99
1.48
-0.07
-1.73
-3.57
-5.60
-7.76
-9.88
-11.80
-13.35
-14.44
-15.11
-15.51
-15.83
-16.22
-16.71
-17.21
-17.48
-17.30
-16.49
-15.03
-13.05
-10.80
-8.57
-6.61
-5.11
-4.15
-3.76
-3.86
-4.35
-5.02
-5.61
-5.85
-5.58
-4.78
-3.60
-2.28
-0.99
0.24
1.45
2.73
4.03
5.17
5.86
5.87
5.14
3.81
2.09
0.16
-1.99
-4.50
-7.42
-10.58
-13.43
-15.17
-15.05
-12.71
-8.40
-2.89
2.76
7.61
11.07
13.01
13.63
13.26
12.23
10.77
9.07
7.32
5.75
4.57
3.93
3.86
4.25
4.87
5.46
5.76
5.62
4.96
3.85
2.37
0.64
-1.21
-3.08
-4.85
-6.35
-7.44
-8.02
-8.09
-7.82
-7.46
-7.26
-7.36
-7.67
-7.94
-7.80
-6.91
-5.05
-2.22
1.35
5.31
9.20
12.61
15.16
16.66
16.99
16.23
14.57
12.31
9.80
7.42
5.49
4.27
3.90
4.33
5.36
6.63
7.73
8.32
8.20
7.35
5.85
3.80
1.29
-1.62
-4.82
-8.08
-11.06
-13.39
-14.81
-15.20
-14.66
-13.35
-11.49
-9.25
-6.76
-4.15
-1.52
0.98
3.29
5.36
7.19
8.76
9.98
10.73
10.86
10.35
9.28
7.92
6.56
5.48
4.76
4.37
4.15
3.94
3.59
3.05
2.34
1.55
0.80
0.24
-0.04
-0.09
-0.06
-0.22
-0.81
-2.03
-3.87
-6.19
-8.69
-10.96
-12.53
-12.97
-11.99
-9.53
-5.83
-1.40
3.09
7.00
9.84
11.35
11.53
10.57
8.74
6.40
3.89
1.58
-0.21
-1.23
-1.35
-0.57
0.90
2.73
4.49
5.74
6.21
5.81
4.73
3.25
1.73
0.40
-0.68
-1.56
-2.40
-3.32
-4.36
-5.50
-6.68
-7.80
-8.73
-9.31
-9.36
