1567636091.00
64.000000
-0.00
-0.00
-0.00
-0.00
-0.00
-0.00
-0.00
-0.00
-0.00
-0.00
0.00
0.01
0.01
-0.00
-0.03
-0.05
-0.05
0.00
0.13
0.36
0.66
1.01
1.37
1.72
2.06
2.40
2.79
3.24
3.80
4.42
5.06
5.66
6.20
6.68
7.15
7.68
8.31
9.14
10.09
11.04
11.88
12.56
13.14
13.76
14.65
15.96
17.91
20.32
22.90
25.38
27.58
29.57
31.68
34.32
37.81
42.54
48.15
54.10
59.83
64.97
69.58
74.14
79.34
85.71
93.76
103.00
112.62
121.73
129.77
136.75
143.30
150.75
157.77
166.64
177.95
191.79
206.97
220.57
228.25
225.36
208.53
176.87
132.76
80.05
23.07
-34.94
-92.44
-149.16
-205.23
-260.37
-313.74
-363.87
-409.83
-450.91
-486.50
-515.74
-537.23
-549.22
-549.96
-538.37
-514.21
-478.67
-433.88
-382.45
-327.02
-269.84
-212.63
-156.66
-102.95
-52.37
-5.90
35.58
71.43
101.35
125.50
144.38
158.69
169.15
176.37
180.75
182.57
182.07
179.51
175.23
169.65
163.18
156.15
148.81
141.30
133.69
126.02
118.33
110.69
103.16
95.80
88.68
81.83
75.25
68.95
62.95
57.25
51.86
46.78
42.03
37.59
33.45
29.61
26.07
22.81
19.83
17.11
14.67
12.48
10.54
8.83
7.35
6.07
4.97
4.05
3.27
2.62
2.09
1.65
1.30
1.01
0.79
0.61
0.48
0.37
0.28
0.22
0.17
0.14
0.11
0.09
0.08
0.08
0.08
0.08
0.09
0.11
0.13
0.16
0.20
0.24
0.28
0.33
0.38
0.43
0.48
0.53
0.58
0.63
0.68
0.73
0.78
0.83
0.89
0.96
1.03
1.11
1.21
1.32
1.45
1.60
1.77
1.96
2.18
2.43
2.69
2.99
3.31
3.67
4.05
4.47
4.92
5.40
5.92
6.48
7.07
7.71
8.38
9.09
9.85
10.65
11.49
12.37
13.29
14.26
15.29
16.39
17.57
18.79
20.06
21.29
22.43
23.39
24.05
24.31
24.06
23.18
21.58
19.15
15.83
11.61
6.58
0.96
-4.97
-10.88
-16.42
-21.30
-25.30
-28.30
-30.20
-30.96
-30.55
-28.96
-26.24
-22.55
-18.16
-13.50
-9.06
-5.28
-2.48
-0.80
-0.17
-0.35
-1.15
-2.43
-4.25
-6.76
-10.05
-14.03
-18.35
-22.42
-25.59
-27.42
-27.93
-27.59
-27.21
-27.53
-28.97
-31.47
-34.47
-37.26
-39.25
-40.33
-40.89
-41.54
-42.95
-45.69
-50.26
-56.79
-64.78
-72.83
-78.69
-79.79
-74.27
-62.08
-45.48
-28.67
-16.12
-10.70
-12.27
-17.67
-22.04
-20.99
-12.40
3.55
23.39
42.45
56.95
65.18
67.37
64.69
58.28
48.94
37.70
26.18
16.71
11.43
10.99
14.00
17.69
19.51
18.94
18.01
20.38
29.55
46.87
70.54
96.27
119.07
135.54
145.20
150.37
154.41
159.73
166.29
171.77
173.12
168.67
159.27
147.93
138.05
131.34
126.71
120.70
108.96
88.34
58.10
20.18
-21.62
-62.87
-99.46
-128.23
-147.13
-155.36
-153.47
-143.29
-127.79
-110.50
-94.90
-83.74
-78.72
-80.29
-87.76
-99.46
-112.98
-125.54
-134.46
-137.73
-134.59
-125.77
-113.26
-99.74
-87.74
-79.05
-74.42
-73.54
-75.31
-78.12
-80.26
-80.33
-77.62
-72.30
-65.45
-58.62
-53.23
-49.99
-48.62
-48.05
-46.90
-43.98
-38.63
-30.73
-20.72
-9.46
1.78
11.61
18.92
23.32
25.29
25.89
26.21
26.73
27.15
26.73
24.73
20.96
15.80
10.07
4.59
-0.07
-3.65
-6.06
-7.25
-7.10
-5.53
-2.56
1.50
6.12
10.57
14.13
16.30
16.86
15.97
14.05
11.64
9.25
7.26
5.96
5.59
6.34
8.39
11.85
16.69
22.74
29.63
36.83
43.72
49.76
54.62
58.22
60.75
62.49
63.74
64.69
65.47
66.17
66.94
67.93
69.16
70.54
71.80
72.64
72.82
72.32
71.30
70.11
69.09
68.49
68.39
68.64
68.98
69.08
68.71
67.79
66.40
64.80
63.27
62.08
61.37
61.11
61.06
60.81
59.92
58.01
54.96
51.05
46.84
43.07
40.31
38.65
37.64
36.44
34.10
30.04
24.17
16.94
9.18
1.78
-4.52
-9.25
-12.16
-13.30
-12.98
-11.96
-11.45
-12.97
-17.92
-27.10
-40.56
-57.76
-78.12
-101.37
-127.56
-156.50
-187.05
-216.83
-242.57
-261.09
-270.49
-270.93
-264.38
-253.86
-242.17
-231.02
-220.78
-210.69
-199.49
-185.98
-169.53
-150.27
-128.97
-106.67
-84.09
-61.29
-37.82
-13.14
12.64
38.43
62.45
82.94
98.99
110.75
119.07
124.61
127.33
126.66
122.27
114.98
106.88
100.50
97.44
97.24
97.39
94.42
85.59
70.37
50.75
30.42
13.12
1.05
-6.10
-10.93
-17.23
-28.37
-45.87
-68.80
-93.97
-116.70
-131.91
-135.37
-124.96
-101.64
-69.87
-36.89
-10.68
2.77
1.77
-10.55
-27.81
-43.31
-52.82
-55.73
-54.24
-51.25
-48.56
-46.21
-43.30
-39.24
-34.58
-30.89
-29.73
-31.64
-35.61
-39.28
-40.21
-37.12
-30.32
-21.42
-12.37
-4.40
2.67
10.39
21.12
36.63
56.92
80.04
102.84
122.16
136.07
144.21
147.62
148.51
148.51
147.89
145.79
141.17
133.72
124.14
113.65
103.20
94.53
87.85
81.81
74.70
66.21
58.12
53.31
54.02
60.76
75.43
97.51
123.76
149.49
171.14
187.55
199.37
207.82
214.06
224.42
242.79
268.49
296.77
322.46
342.73
357.17
366.73
372.91
384.38
406.57
438.83
474.88
507.37
531.57
545.78
550.31
503.08
387.15
219.24
41.78
-108.27
-216.71
-286.97
-329.03
-352.85
-365.92
-366.16
-353.43
-332.57
-311.91
-298.87
-296.77
-305.09
-322.00
-345.65
-362.39
-365.41
-354.98
-336.80
-317.18
-299.70
-284.80
-271.91
-260.09
-245.19
-225.79
-203.05
-180.21
-160.24
-144.43
-132.02
-122.10
-113.64
-104.05
-92.42
-79.00
-64.97
-51.42
-41.36
-33.24
-26.33
-20.22
-13.98
-7.31
-0.00
8.01
16.86
26.22
36.01
45.42
53.68
60.32
65.22
68.87
72.07
75.57
78.89
81.20
80.74
75.78
65.26
48.82
26.83
-0.59
-30.12
-60.79
-92.40
-125.72
-161.69
-201.33
-245.69
-295.43
-349.69
-405.03
-455.75
-494.30
-514.20
-512.46
-490.92
-455.31
-412.69
-368.66
-325.79
-284.64
-244.76
-206.47
-171.04
-139.86
-113.24
-89.82
-67.29
-43.61
-18.45
7.09
31.08
51.79
68.69
82.56
95.27
108.71
124.10
141.29
159.00
175.39
188.96
199.23
207.09
214.58
224.20
237.89
256.04
276.97
297.02
311.46
315.91
307.89
287.66
258.23
224.29
190.68
160.88
136.17
115.76
97.60
79.50
60.11
39.32
18.19
-1.52
-18.04
-30.14
-37.54
-40.96
-41.83
-41.83
-42.22
-43.35
-44.42
-43.70
-39.30
-29.98
-15.86
1.40
19.29
35.36
48.08
57.26
63.82
69.12
74.25
79.52
84.67
89.19
92.81
95.45
97.00
97.04
94.86
89.86
82.08
72.60
63.48
57.43
56.93
63.42
76.65
94.51
113.58
130.23
141.76
147.21
147.45
144.30
139.54
133.98
127.58
120.34
113.26
108.62
109.16
116.50
129.85
145.88
159.85
167.17
164.78
151.56
128.04
96.04
58.49
19.49
-16.10
-43.70
-60.60
-67.03
-66.13
-62.44
-59.86
-60.08
-62.48
-65.20
-66.70
-66.68
-65.87
-65.21
-64.93
-64.36
-62.52
-58.95
-54.14
-49.43
-46.24
-45.29
-46.31
-48.13
-49.38
-49.10
-47.20
-44.42
-41.88
-40.54
-40.81
-42.40
-44.58
-46.49
-47.49
-47.40
-46.57
-45.72
-45.69
-47.21
-50.55
-55.27
-60.27
-64.07
-65.26
-63.06
-57.45
-49.19
-39.36
-29.01
-18.89
-9.40
-0.78
6.78
13.06
17.83
21.03
22.73
23.18
22.68
21.66
20.59
20.07
20.62
22.57
25.86
30.03
34.49
38.85
43.08
47.51
52.42
57.64
62.40
65.56
66.21
64.18
60.11
55.06
49.70
43.89
36.76
27.59
16.60
5.15
-4.90
-12.43
-17.77
-22.50
-28.35
-35.99
-44.63
-52.76
-59.32
-64.55
-69.53
-75.15
-80.89
-84.77
-84.49
-79.05
-69.69
-59.34
-51.02
-46.13
-43.81
-41.75
-37.82
-31.40
-23.65
-16.59
-11.74
-9.25
-7.98
-6.44
-3.71
0.07
4.10
7.57
10.23
12.43
14.69
17.19
19.63
21.45
22.23
21.94
20.98
19.83
18.79
17.93
17.06
15.99
14.52
12.51
9.85
6.43
2.21
-2.76
-8.33
-14.33
-20.60
-26.97
-33.31
-39.43
-45.07
-49.92
-53.55
-55.43
-55.06
-52.13
-46.72
-39.36
-30.90
-22.16
-13.73
-5.90
1.25
7.59
12.94
17.27
20.81
24.03
27.33
30.70
33.64
35.58
36.32
36.38
36.73
38.23
41.07
44.66
48.07
50.71
52.68
54.55
56.74
59.15
61.23
62.53
63.07
63.39
63.84
63.92
62.05
56.19
44.94
28.33
7.83
-14.29
-35.91
-55.49
-71.94
-84.29
-91.57
-93.12
-89.22
-81.24
-71.33
-61.44
-52.69
-45.18
-38.47
-32.21
-26.57
-22.01
-18.87
-17.03
-16.10
-15.65
-15.59
-16.09
-17.39
-19.50
-22.20
-25.15
-28.11
-30.95
-33.63
-36.20
-38.79
-41.70
-45.25
-49.53
-54.25
-58.79
-62.56
-65.40
-67.65
-69.77
-71.82
-73.13
-72.48
-68.78
-61.86
-52.64
-42.75
-33.59
-25.61
-18.26
-10.47
-1.64
7.91
17.04
24.47
29.63
32.92
35.45
38.27
41.77
45.50
48.61
50.54
51.37
51.71
52.18
52.98
53.72
53.82
52.83
50.68
47.63
44.21
41.08
39.03
38.71
40.30
43.16
46.05
47.66
47.48
46.12
44.88
44.82
45.83
46.60
45.32
40.83
33.42
24.74
16.99
12.03
10.72
12.91
17.74
24.01
30.43
35.68
38.48
37.84
33.26
25.04
14.36
3.00
-7.29
-15.40
-21.32
-25.97
-30.52
-35.58
-40.80
-45.24
-48.15
-49.69
-50.94
-53.15
-56.79
-61.11
-64.60
-65.95
-64.86
-62.17
-59.22
-57.03
-55.92
-55.57
-55.50
-55.29
-54.63
-53.10
-50.27
-45.82
-39.93
-33.34
-26.99
-21.38
-16.20
-10.39
-2.75
7.29
19.26
31.82
43.52
53.48
61.81
69.44
77.50
86.75
97.23
108.28
118.92
128.13
135.01
138.75
138.64
134.40
126.47
116.20
105.57
96.29
89.14
83.49
77.74
70.19
59.80
46.59
31.40
15.35
-0.55
-15.52
-28.90
-40.13
-48.73
-54.58
-57.96
-59.58
-60.47
-61.94
-65.33
-71.63
-80.87
-91.62
-101.33
-107.28
-108.03
-104.21
-98.23
-92.84
-89.68
-88.48
-87.67
-85.73
-82.26
-78.13
-74.62
-72.41
-71.18
-69.98
-68.04
-65.20
-61.84
-58.40
-55.01
-51.46
-47.56
-43.30
-38.92
-34.64
-30.55
-26.60
-22.75
-19.08
-15.74
-12.78
-10.03
-7.20
-3.98
-0.32
3.53
7.13
9.96
11.77
12.66
13.17
13.99
15.52
17.55
19.19
19.34
17.39
13.69
9.49
6.39
5.57
7.30
11.08
16.08
21.71
27.82
34.55
41.87
49.43
56.49
62.31
66.52
69.31
71.34
73.35
75.70
78.15
80.07
80.88
80.55
79.84
79.98
81.90
85.65
90.08
93.35
93.83
90.88
85.05
77.69
70.09
62.79
55.46
47.31
37.77
26.90
15.30
3.53
-8.40
-21.09
-35.16
-50.48
-65.63
-78.33
-86.43
-89.20
-87.96
-85.53
-84.97
-87.98
-94.24
-101.70
-107.81
-110.83
-110.51
-107.83
-104.23
-100.78
-97.83
-95.18
-92.48
-89.51
-86.21
-82.59
-78.71
-74.70
-70.83
-67.34
-64.24
-61.09
-57.24
-52.30
-46.65
-41.53
-38.54
-38.73
-41.96
-46.93
-51.94
-55.77
-58.29
-60.08
-61.75
-63.22
-63.58
-61.61
-56.43
-47.97
-37.04
-24.96
-13.12
-2.67
5.78
12.37
18.07
24.60
33.97
47.73
66.29
88.69
112.80
136.10
156.36
172.20
183.16
189.54
192.11
191.76
189.34
185.40
180.22
173.79
165.95
156.56
145.62
133.34
120.25
107.17
95.14
85.23
78.05
73.49
70.65
68.22
65.03
60.50
54.59
47.34
38.35
26.66
11.28
-7.93
-29.70
-51.53
-70.75
-85.69
-96.37
-104.14
-110.57
-116.27
-120.48
-121.72
-118.95
-112.57
-104.45
-97.17
-92.60
-90.98
-90.90
-90.08
-86.67
-80.08
-71.21
-61.78
-53.47
-47.10
-42.48
-38.75
-34.99
-30.73
-26.15
-21.79
-18.20
-15.60
-13.82
-12.48
-11.31
-10.21
-9.30
-8.67
-8.29
-7.87
-7.05
-5.60
-3.65
-1.63
-0.09
0.52
0.04
-1.36
-3.37
-5.66
-8.03
-10.32
-12.38
-14.01
-15.03
-15.43
-15.40
-15.24
-15.29
-15.66
-16.23
-16.77
-17.10
-17.19
-17.14
-16.95
-16.43
-15.24
-12.99
-9.54
-5.11
-0.20
4.63
8.98
12.67
15.72
18.16
20.03
21.34
22.19
22.77
23.24
23.61
23.67
23.06
21.49
18.89
15.50
11.82
8.40
5.65
3.75
2.67
2.28
2.33
2.61
2.87
2.86
2.37
1.33
-0.23
-2.13
-4.07
-5.81
-7.14
-8.04
-8.58
-8.96
-9.37
-9.99
-10.99
-12.47
-14.50
-17.02
-19.76
-22.16
-23.53
-23.25
-20.97
-16.90
-11.71
-6.33
-1.56
2.16
4.89
6.99
8.85
10.64
12.26
13.50
14.20
14.40
14.29
14.04
13.70
13.22
12.54
11.78
11.18
10.97
11.13
11.38
11.22
10.24
8.38
6.01
3.70
1.94
0.91
0.33
-0.20
-1.05
-2.33
-3.87
-5.41
-6.70
-7.65
-8.21
-8.42
-8.35
-8.20
-8.26
-8.92
-10.39
-12.60
-15.05
-16.95
-17.60
-16.64
-14.21
-10.83
-7.17
-3.75
-0.76
1.87
4.30
6.65
8.86
10.79
12.24
13.20
13.79
14.26
14.89
15.82
17.07
18.54
20.15
21.88
23.78
25.84
27.94
29.78
30.99
31.26
30.58
29.20
27.59
26.22
25.39
25.03
24.70
23.80
21.70
18.01
12.65
5.91
-1.65
-9.25
-16.02
-21.17
-24.16
-24.88
-23.72
-21.40
-18.63
-15.86
-13.07
-9.96
-6.29
-2.24
1.54
4.22
5.23
4.59
2.85
0.72
-1.35
-3.32
-5.45
-8.03
-11.00
-13.92
-16.17
-17.24
-17.02
-15.81
-14.22
-12.92
-12.45
-13.07
-14.75
-17.28
-20.28
-23.35
-26.11
-28.27
-29.62
-30.15
-29.97
-29.40
-28.85
-28.78
-29.58
-31.42
-34.23
-37.56
-40.65
-42.51
-42.15
-38.86
-32.50
-23.59
-13.22
-2.77
6.54
13.94
19.26
22.76
24.92
26.17
26.70
26.58
25.82
24.54
22.97
21.36
19.92
18.68
17.58
16.55
15.61
14.85
14.37
14.06
13.62
12.63
10.88
8.62
6.62
5.89
7.28
10.89
15.94
20.96
24.37
25.07
22.91
18.54
13.09
7.62
2.83
-1.11
-4.30
-6.91
-9.02
-10.63
-11.69
-12.22
-12.29
-11.99
-11.34
-10.27
-8.67
-6.45
-3.65
-0.45
2.84
5.87
8.30
9.96
10.81
11.00
10.80
10.50
10.35
10.48
10.91
11.53
12.17
12.69
13.01
13.13
13.13
13.10
13.14
13.24
13.35
13.40
13.27
12.93
12.35
11.53
10.50
9.29
7.95
6.52
5.09
3.71
2.42
1.25
0.13
-1.01
-2.23
-3.56
-4.95
-6.30
-7.55
-8.69
-9.91
-11.44
-13.54
-16.22
-19.18
-21.85
-23.48
-23.55
-21.89
-18.77
-14.78
-10.55
-6.55
-3.01
-0.00
2.53
4.55
6.03
6.95
7.39
7.58
7.81
8.32
9.19
10.37
11.64
12.72
13.41
13.64
13.47
13.10
12.72
12.41
12.15
11.76
11.05
9.92
8.42
6.79
5.31
4.19
3.46
2.94
2.41
1.65
0.65
-0.43
-1.34
-1.86
-1.93
-1.68
-1.43
-1.55
-2.33
-3.89
-6.12
-8.77
-11.45
-13.76
-15.25
-15.50
-14.29
-11.67
-8.17
-4.70
-2.22
-1.37
-2.09
-3.56
-4.62
-4.30
-2.31
0.81
4.06
6.48
7.63
7.69
7.26
6.88
6.82
7.08
7.55
8.23
9.19
10.39
11.57
12.23
11.93
10.60
8.76
7.33
7.14
8.54
11.18
14.26
16.94
18.75
19.63
19.83
19.62
19.19
18.64
18.11
17.74
17.69
17.94
18.20
17.98
16.73
14.05
9.87
4.48
-1.45
-7.12
-11.87
-15.47
-18.21
-20.67
-23.25
-25.65
-26.70
-24.86
-19.09
-9.63
1.69
12.16
19.26
21.72
19.82
15.00
8.91
2.77
-2.89
-7.93
-12.22
-15.39
-16.93
-16.56
-14.44
-11.22
-7.81
-5.11
-3.74
-3.77
-4.84
-6.12
-6.74
-6.06
-4.02
-1.09
2.07
4.88
7.16
8.94
10.29
11.10
11.20
10.57
9.53
8.69
8.63
9.51
10.88
11.83
11.38
9.00
4.71
-0.86
-6.74
-11.98
-15.80
-17.81
-17.93
-16.45
-13.88
-10.78
-7.61
-4.66
-2.00
0.36
2.36
3.80
4.39
3.93
2.45
0.32
-1.90
-3.63
-4.52
-4.53
-3.89
-2.87
-1.66
-0.36
0.99
2.29
3.38
4.20
4.89
5.73
7.02
8.73
10.38
11.24
10.61
8.29
4.70
0.74
-2.59
-4.71
-5.59
-5.74
-5.83
-6.42
-7.76
-9.84
-12.38
-15.00
-17.19
-18.42
-18.23
-16.41
-13.19
-9.16
-5.16
-1.94
0.09
0.97
1.07
0.92
0.96
1.41
2.32
3.60
5.11
6.70
8.25
9.61
10.65
11.28
11.43
11.19
10.67
9.97
9.21
8.38
7.50
6.53
5.51
4.52
3.67
3.05
2.67
2.44
2.20
1.74
0.89
-0.41
-2.12
-4.07
-6.06
-7.87
-9.35
-10.49
-11.36
-12.11
-12.79
-13.31
-13.44
-12.90
-11.49
-9.24
-6.42
-3.39
-0.49
2.08
4.29
6.12
7.52
8.31
8.39
7.73
6.54
5.19
4.02
3.24
2.87
2.78
2.76
2.72
2.61
2.51
2.44
2.41
2.34
2.15
1.76
1.19
0.51
-0.14
-0.63
-0.89
-0.99
-1.03
-1.21
-1.66
-2.47
-3.67
-5.22
-7.04
-8.99
-10.86
-12.40
-13.33
-13.44
-12.63
-10.92
-8.51
-5.66
-2.71
0.02
2.27
3.88
4.87
5.37
5.58
5.72
5.92
6.21
6.55
6.91
7.28
7.69
8.13
8.52
8.75
8.68
8.28
7.67
6.98
6.36
5.84
5.30
4.56
3.48
2.09
0.52
-1.04
-2.42
-3.57
-4.50
-5.33
-6.18
-7.20
-8.51
-10.17
-12.05
-13.82
-15.02
-15.18
-14.10
-11.90
-9.03
-6.10
-3.57
-1.63
-0.13
1.28
2.87
4.71
6.61
8.18
9.12
9.29
8.86
8.14
7.44
6.94
6.63
6.39
6.13
5.88
5.73
5.79
5.98
6.13
6.01
5.53
4.74
3.88
3.15
2.60
2.13
1.52
0.60
-0.64
-2.05
-3.44
-4.71
-5.86
-7.01
-8.27
-9.67
-11.15
-12.51
-13.54
-13.98
-13.67
-12.52
-10.59
-8.11
-5.33
-2.54
0.10
2.49
4.63
6.52
8.09
9.26
9.97
10.25
10.21
10.03
9.83
9.67
9.57
9.48
9.38
9.25
9.11
8.98
8.86
8.80
8.78
8.79
8.74
8.54
8.07
7.27
6.14
4.79
3.33
1.90
0.49
-0.93
-2.44
-4.04
-5.69
-7.22
-8.54
-9.62
-10.51
-11.35
-12.23
-13.13
-13.92
-14.36
-14.17
-13.17
-11.30
-8.69
-5.61
-2.39
0.65
3.36
5.67
7.64
9.36
10.81
11.92
12.57
12.70
12.38
11.80
11.20
10.75
10.53
10.43
10.28
9.89
9.14
8.08
6.87
5.66
4.62
3.76
3.03
2.35
1.67
1.00
0.40
-0.10
-0.52
-0.92
-1.37
-1.93
-2.59
-3.31
-4.07
-4.85
-5.68
-6.64
-7.79
-9.14
-10.58
-11.89
-12.76
-12.88
-12.05
-10.28
-7.78
-4.96
-2.22
0.15
2.04
3.49
4.64
5.60
6.42
7.08
7.59
7.99
8.31
8.63
8.95
9.25
9.47
9.51
9.35
8.94
8.29
7.42
6.42
5.37
4.38
3.51
2.72
1.93
1.04
0.07
-0.94
-1.86
-2.59
-3.12
-3.57
-4.13
-4.99
-6.26
-7.94
-9.89
-11.87
-13.57
-14.66
-14.91
-14.21
-12.62
-10.31
-7.55
-4.64
-1.84
0.64
2.70
4.35
5.76
7.12
8.56
10.04
11.29
12.01
11.93
11.03
9.57
7.99
6.75
6.11
6.01
6.22
6.41
6.29
5.81
5.05
4.19
3.40
2.74
2.17
1.56
0.85
0.03
-0.86
-1.73
-2.55
-3.37
-4.20
-5.07
-5.90
-6.59
-7.06
-7.34
-7.57
-7.96
-8.64
-9.62
-10.72
-11.62
-12.01
-11.65
-10.48
-8.64
-6.38
-4.00
-1.73
0.28
2.02
3.49
4.71
5.68
6.42
6.99
7.46
7.91
8.37
8.75
8.97
8.96
8.75
8.43
8.10
7.83
7.57
7.28
6.94
6.60
6.34
6.21
6.13
5.96
5.52
4.81
3.95
3.19
2.71
2.53
2.46
2.20
1.53
0.47
-0.77
-1.85
-2.56
-2.89
-3.09
-3.44
-4.12
-5.12
-6.20
-7.06
-7.51
-7.49
-7.11
-6.48
-5.70
-4.81
-3.80
-2.71
-1.58
-0.52
0.38
1.04
1.42
1.55
1.50
1.37
1.31
1.41
1.74
2.30
3.03
3.82
4.58
5.26
5.82
6.26
6.54
6.56
6.28
5.69
4.88
4.01
3.20
2.49
1.78
0.90
-0.23
-1.64
-3.16
-4.55
-5.62
-6.28
-6.55
-6.54
-6.37
-6.21
-6.23
-6.62
-7.53
-8.91
-10.54
-11.97
-12.70
-12.35
-10.83
-8.40
-5.54
-2.81
-0.63
0.82
1.64
2.05
2.29
2.55
2.90
3.33
3.81
4.22
4.45
4.34
3.79
2.85
1.67
0.58
-0.09
-0.12
0.54
1.80
3.44
5.20
6.84
8.09
8.74
8.71
8.09
7.12
6.14
5.38
4.94
4.68
4.36
3.76
2.77
1.47
-0.01
-1.49
-2.90
-4.27
-5.68
-7.22
-8.84
-10.34
-11.36
-11.57
-10.80
-9.10
-6.75
-4.14
-1.61
0.65
2.58
4.22
5.58
6.62
7.24
7.35
6.97
6.23
5.37
4.67
4.38
4.60
5.23
6.01
6.60
6.73
6.34
5.56
4.68
3.98
3.56
3.37
3.25
2.98
2.44
1.64
0.71
-0.19
-0.96
-1.55
-2.05
-2.59
-3.34
-4.38
-5.68
-7.15
-8.59
-9.83
-10.72
-11.12
-10.91
-10.04
-8.51
-6.48
-4.22
-2.01
-0.09
1.49
2.81
3.94
4.87
5.47
5.57
5.10
4.18
3.12
2.28
1.91
2.07
2.58
3.15
3.56
3.64
3.46
3.12
2.78
2.48
2.18
1.71
0.93
-0.17
-1.47
-2.72
-3.69
-4.24
-4.46
-4.56
-4.82
-5.52
-6.79
-8.63
-10.84
-13.06
-14.80
-15.58
-15.13
-13.47
-10.96
-8.12
-5.52
-3.47
-2.07
-1.15
-0.49
0.16
0.93
1.90
3.07
4.43
5.87
7.28
8.45
9.24
9.57
9.45
8.95
8.15
7.11
5.90
4.63
3.41
2.38
1.54
0.79
-0.09
-1.25
-2.72
-4.33
-5.82
-6.94
-7.63
-8.06
-8.45
-9.03
-9.86
-10.87
-11.87
-12.69
-13.15
-13.11
-12.46
-11.11
-9.09
-6.52
-3.65
-0.79
1.77
3.89
5.52
6.75
7.72
8.53
9.24
9.79
10.10
10.14
9.91
9.55
9.22
9.02
8.92
8.79
8.47
7.90
7.21
6.59
6.20
6.05
5.91
5.50
4.68
3.49
2.23
1.17
0.47
0.03
-0.41
-1.08
-2.10
-3.43
-4.95
-6.58
-8.30
-10.09
-11.80
-13.10
-13.59
-13.00
-11.32
-8.86
-6.17
-3.74
-1.87
-0.57
0.38
1.24
2.18
3.22
4.20
4.99
5.44
5.58
5.53
5.48
5.59
5.91
6.39
6.89
7.29
7.55
7.68
7.69
7.55
7.17
6.45
5.38
4.09
2.78
1.67
0.85
0.30
-0.10
-0.50
-0.99
-1.63
-2.49
-3.64
-5.16
-7.05
-9.20
-11.33
-13.06
-13.97
-13.76
-12.38
-10.11
-7.44
-4.92
-3.01
-1.88
-1.46
-1.48
-1.67
-1.80
-1.75
-1.48
-0.99
-0.29
0.52
1.23
1.61
1.42
0.55
-0.95
-2.90
-5.08
-7.28
-9.43
-11.53
-13.71
-16.04
-18.47
-20.84
-22.99
-24.85
-26.63
-28.72
-31.62
-35.61
-40.68
-46.49
-52.56
-58.52
-64.27
-69.98
-75.94
-82.38
-89.43
-97.17
-105.68
-114.97
-124.75
-134.32
-142.59
-148.46
-151.33
-151.44
-149.85
-147.89
-146.49
-145.69
-144.82
-142.98
-139.63
-134.85
-129.11
-122.90
-116.54
-110.08
-103.20
-94.88
-83.06
-64.77
-37.01
1.83
50.86
106.59
164.30
220.03
272.28
322.34
373.25
428.08
488.63
554.97
625.68
698.14
768.42
831.05
879.30
906.35
907.06
879.66
826.28
752.33
664.75
570.29
474.20
379.95
289.54
204.09
124.27
50.41
-17.63
-80.52
-139.34
-195.08
-247.92
-296.74
-339.19
-372.34
-393.89
-403.27
-402.06
-393.36
-380.71
-366.72
-352.56
-338.17
-323.08
-307.27
-291.38
-276.33
-262.78
-250.61
-239.05
-227.17
-214.41
-200.85
-187.15
-174.15
-162.42
-152.11
-142.93
-134.42
-126.25
-118.29
-110.65
-103.52
-97.05
-91.19
-85.86
-80.89
-76.21
-71.83
-67.83
-64.20
-60.85
-57.57
-54.05
-50.13
-45.81
-41.26
-36.74
-32.48
-28.53
-24.85
-21.34
-17.99
-14.92
-12.39
-10.54
-9.41
-8.78
-8.35
-7.83
-7.06
-6.05
-4.93
-3.90
-3.09
-2.60
-2.41
-2.53
-2.98
-3.80
-5.00
-6.55
-8.30
-9.97
-11.28
-11.99
-12.03
-11.50
-10.67
-9.82
-9.16
-8.79
-8.72
-9.00
-9.66
-10.82
-12.51
-14.63
-16.89
-18.83
-19.92
-19.74
-18.14
-15.25
-11.52
-7.51
-3.73
-0.48
2.10
3.98
5.18
5.70
5.59
4.97
4.15
3.49
3.28
3.58
4.24
5.02
5.72
6.27
6.70
7.03
7.13
6.80
5.89
4.42
2.66
0.99
-0.26
-0.98
-1.30
-1.46
-1.67
-2.02
-2.47
-2.93
-3.38
-3.90
-4.62
-5.68
-7.11
-8.83
-10.60
-12.11
-13.10
-13.38
-12.88
-11.65
-9.86
-7.68
-5.34
-3.07
-1.07
0.52
1.69
2.57
3.37
4.28
5.34
6.45
7.43
8.15
8.59
8.92
9.29
9.80
10.41
10.98
11.39
11.60
11.67
11.66
11.53
11.12
10.20
8.61
6.32
3.54
0.56
-2.29
-4.76
-6.74
-8.28
-9.50
-10.56
-11.61
-12.74
-14.02
-15.54
-17.34
-19.42
-21.62
-23.55
-24.69
-24.52
-22.78
-19.60
-15.49
-11.12
-7.06
-3.57
-0.63
1.97
4.34
6.41
7.98
8.84
8.96
8.54
7.96
7.59
7.60
7.96
8.43
8.73
8.71
8.35
7.79
7.20
6.67
6.21
5.80
5.44
5.15
4.93
4.70
4.29
3.54
2.36
0.89
-0.60
-1.84
-2.71
-3.29
-3.82
-4.57
-5.69
-7.21
-9.07
-11.16
-13.36
-15.39
-16.85
-17.28
-16.29
-13.88
-10.41
-6.52
-2.88
0.08
2.34
4.09
5.62
7.10
8.47
9.53
10.14
10.26
10.11
9.99
10.26
11.13
12.57
14.30
15.88
16.91
17.14
16.63
15.64
14.52
13.55
12.77
12.03
11.06
9.61
7.61
5.14
2.47
-0.10
-2.31
-4.10
-5.57
-6.96
-8.50
-10.36
-12.55
-15.02
-17.59
-20.04
-22.07
-23.33
-23.44
-22.15
-19.39
-15.39
-10.67
-5.90
-1.72
1.42
3.35
4.23
4.39
4.25
4.17
4.33
4.80
5.50
6.30
7.08
7.74
8.16
8.27
8.00
7.44
6.76
6.17
5.87
5.86
5.94
5.87
5.40
4.50
3.30
2.05
1.00
0.25
-0.26
-0.66
-1.15
-1.86
-2.86
-4.20
-5.84
-7.70
-9.66
-11.54
-13.13
-14.20
-14.52
-13.95
-12.50
-10.32
-7.64
-4.71
-1.65
1.52
4.88
8.41
11.95
15.13
17.47
18.57
18.27
16.74
14.40
11.85
9.69
8.31
7.83
8.14
8.89
9.70
10.29
10.56
10.56
10.40
10.12
9.72
9.13
8.32
7.36
6.39
5.58
4.98
4.51
3.97
3.10
1.71
-0.25
-2.69
-5.41
-8.24
-11.06
-13.77
-16.30
-18.41
-19.74
-19.86
-18.45
-15.42
-11.04
-5.85
-0.47
4.53
8.78
12.04
14.18
15.19
15.20
14.58
13.82
13.46
13.82
14.84
16.10
17.04
17.17
16.33
14.69
12.57
10.32
8.10
5.95
3.85
1.81
-0.05
-1.65
-2.95
-4.06
-5.14
-6.34
-7.73
-9.28
-10.94
-12.76
-14.82
-17.20
-19.78
-22.15
-23.69
-23.76
-22.00
-18.56
-14.01
-9.14
-4.62
-0.84
2.20
4.69
6.84
8.66
10.07
10.93
11.21
11.04
10.72
10.59
10.88
11.65
12.74
13.90
14.84
15.38
15.46
15.17
14.60
13.82
12.81
11.54
10.00
8.25
6.44
4.73
3.20
1.83
0.54
-0.81
-2.30
-4.04
-6.12
-8.62
-11.56
-14.76
-17.76
-19.92
-20.58
-19.35
-16.31
-11.99
-7.23
-2.78
0.95
3.96
6.57
9.08
11.64
14.10
16.22
17.69
18.47
18.65
18.46
18.17
17.92
17.76
17.64
17.50
17.27
16.91
16.45
15.95
15.45
14.94
14.35
13.53
12.33
10.66
8.52
6.06
3.52
1.13
-0.90
-2.55
-3.94
-5.29
-6.88
-8.86
-11.30
-14.07
-16.94
-19.59
-21.66
-22.73
-22.46
-20.61
-17.20
-12.54
-7.21
-1.90
2.78
6.46
9.09
10.89
12.21
13.31
14.28
15.08
15.58
15.75
15.67
15.53
15.51
15.66
15.88
15.97
15.75
15.13
14.24
13.33
12.64
12.32
12.31
12.35
12.09
11.21
9.59
7.34
4.80
2.34
0.29
-1.28
-2.47
-3.55
-4.78
-6.33
-8.28
-10.61
-13.24
-15.92
-18.29
-19.87
-20.18
-18.96
-16.25
-12.47
-8.26
-4.25
-0.88
1.72
3.66
5.19
6.51
7.68
8.66
9.35
9.73
9.90
10.02
10.26
10.63
11.02
11.26
11.21
10.86
10.31
9.65
8.89
7.93
6.63
4.98
3.10
1.26
-0.34
-1.58
-2.53
-3.34
-4.16
-5.08
-6.16
-7.44
-9.03
-10.99
-13.30
-15.76
-17.99
-19.58
-20.19
-19.65
-18.01
-15.48
-12.26
-8.50
-4.21
0.61
5.85
11.18
16.09
19.93
22.20
22.69
21.60
19.48
17.08
15.07
13.90
13.68
14.20
15.10
15.99
16.54
16.52
15.78
14.28
12.09
9.43
6.66
4.20
2.36
1.23
0.64
0.32
-0.07
-0.68
-1.52
-2.54
-3.68
-4.97
-6.49
-8.27
-10.29
-12.35
-14.26
-15.74
-16.59
-16.61
-15.76
-14.06
-11.68
-8.88
-5.95
-3.11
-0.52
1.75
3.66
5.18
6.26
6.91
7.21
7.29
7.30
7.35
7.47
7.64
7.80
7.91
7.97
8.01
8.02
7.98
7.78
7.35
6.58
5.49
4.17
2.80
1.51
0.40
-0.51
-1.28
-1.97
-2.59
-3.11
-3.49
-3.75
-4.01
-4.46
-5.30
-6.71
-8.69
-11.12
-13.69
-16.01
-17.65
-18.23
-17.51
-15.45
-12.27
-8.34
-4.18
-0.29
2.93
5.25
6.66
7.33
7.53
7.54
7.57
7.74
8.01
8.30
8.44
8.39
8.15
7.83
7.58
7.48
7.54
7.70
7.81
7.79
7.61
7.26
6.74
6.01
4.95
3.44
1.44
-0.96
-3.51
-5.91
-7.85
-9.16
-9.81
-9.90
-9.54
-8.91
-8.17
-7.52
-7.24
-7.60
-8.75
-10.58
-12.67
-14.39
-15.08
-14.34
-12.17
-8.98
-5.42
-2.09
0.62
2.63
4.03
4.97
5.53
5.76
5.68
5.39
5.07
4.95
5.19
5.90
7.01
8.41
9.94
11.47
12.89
14.08
14.95
15.42
15.48
15.16
14.54
13.71
12.72
11.66
10.63
9.71
8.95
8.29
7.46
6.10
3.91
0.76
-3.16
-7.40
-11.42
-14.69
-16.89
-17.96
-18.02
-17.34
-16.21
-14.93
-13.66
-12.50
-11.40
-10.34
-9.33
-8.45
-7.82
-7.48
-7.30
-7.02
-6.37
-5.25
-3.80
-2.37
-1.32
-0.82
-0.78
-0.85
-0.70
-0.14
0.74
1.62
2.14
2.05
1.31
0.06
-1.47
-3.07
-4.59
-5.98
-7.25
-8.44
-9.60
-10.80
-12.11
-13.51
-14.90
-16.07
-16.72
-16.57
-15.48
-13.49
-10.87
-7.96
-5.14
-2.68
-0.70
0.76
1.74
2.33
2.61
2.72
2.81
3.00
3.34
3.82
4.37
4.91
5.40
5.83
6.21
6.55
6.82
6.96
6.89
6.58
6.00
5.19
4.22
3.18
2.15
1.15
0.20
-0.77
-1.84
-3.12
-4.65
-6.44
-8.39
-10.33
-12.01
-13.20
-13.72
-13.49
-12.56
-11.06
-9.21
-7.25
-5.32
-3.55
-1.98
-0.57
0.75
2.02
3.23
4.31
5.13
5.64
5.82
5.72
5.39
4.82
3.97
2.85
1.57
0.39
-0.44
-0.73
-0.54
-0.12
0.17
0.09
-0.42
-1.23
-2.15
-3.02
-3.83
-4.71
-5.82
-7.27
-9.13
-11.25
-13.41
-15.27
-16.49
-16.79
-16.05
-14.37
-11.99
-9.22
-6.37
-3.63
-1.12
1.09
2.96
4.43
5.49
6.18
6.65
7.04
7.54
8.17
8.88
9.52
9.96
10.16
10.15
10.05
9.95
9.87
9.75
9.45
8.85
7.85
6.42
4.63
2.66
0.68
-1.13
-2.72
-4.17
-5.68
-7.48
-9.72
-12.34
-15.05
-17.36
-18.75
-18.80
-17.36
-14.61
-11.06
-7.32
-3.95
-1.24
0.83
2.50
4.06
5.63
7.11
8.32
9.07
9.36
9.33
9.23
9.25
9.43
9.69
9.88
9.88
9.67
9.30
8.80
8.18
7.40
6.37
5.09
3.58
1.99
0.44
-0.99
-2.26
-3.41
-4.50
-5.66
-7.02
-8.77
-10.99
-13.64
-16.38
-18.71
-20.03
-19.92
-18.27
-15.40
-11.88
-8.32
-5.12
-2.39
-0.04
2.12
4.19
6.10
7.68
8.80
9.44
9.71
9.81
9.88
9.94
9.88
9.56
8.89
7.92
6.87
5.98
5.48
5.42
5.70
6.08
6.27
6.06
5.33
4.12
2.55
0.80
-0.98
-2.73
-4.45
-6.23
-8.17
-10.36
-12.84
-15.57
-18.43
-21.22
-23.63
-25.30
-25.88
-25.15
-23.12
-20.05
-16.38
-12.54
-8.83
-5.29
-1.76
1.93
5.80
9.70
13.32
16.34
18.56
19.88
20.36
20.11
19.32
18.22
17.08
16.13
15.51
15.18
14.98
14.70
14.22
13.54
12.79
12.07
11.39
10.61
9.57
8.13
6.35
4.42
2.59
1.05
-0.17
-1.23
-2.34
-3.71
-5.47
-7.63
-10.08
-12.62
-14.95
-16.69
-17.45
-16.90
-14.95
-11.73
-7.64
-3.18
1.18
5.12
8.49
11.28
13.52
15.28
16.59
17.52
18.15
18.60
18.97
19.31
19.63
19.94
20.22
20.49
20.76
20.99
21.08
20.96
20.54
19.83
18.87
17.73
16.41
14.87
13.04
10.88
8.45
5.92
3.49
1.32
-0.51
-2.06
-3.44
-4.71
-5.91
-7.07
-8.21
-9.39
-10.68
-11.98
-13.06
-13.51
-12.93
-11.11
-8.15
-4.44
-0.57
2.92
5.66
7.57
8.78
9.56
10.18
10.87
11.69
12.58
13.36
13.81
13.83
13.40
12.65
11.78
10.93
10.18
9.56
9.04
8.62
8.29
8.00
7.64
7.10
6.33
5.45
4.64
4.10
3.92
4.00
4.08
3.91
3.33
2.34
1.06
-0.39
-1.94
-3.58
-5.29
-6.98
-8.50
-9.67
-10.38
-10.59
-10.24
-9.29
-7.66
-5.42
-2.80
-0.23
1.86
3.20
3.81
4.03
4.23
4.65
5.28
5.92
6.35
6.57
6.69
6.93
7.35
7.84
8.15
8.08
7.64
7.03
6.52
6.30
6.29
6.26
5.92
5.11
3.86
2.38
0.93
-0.34
-1.43
-2.45
-3.56
-4.83
-6.29
-7.80
-9.25
-10.47
-11.32
-11.70
-11.53
-10.76
-9.45
-7.69
-5.68
-3.65
-1.79
-0.21
1.09
2.17
3.08
3.83
4.36
4.62
4.63
4.53
4.50
4.72
5.21
5.84
6.40
6.65
6.54
6.13
5.59
5.11
4.75
4.47
4.16
3.76
3.25
2.69
2.13
1.56
0.92
0.14
-0.82
-1.93
-3.17
-4.46
-5.72
-6.87
-7.74
-8.14
-7.88
-6.90
-5.30
-3.34
-1.40
0.21
1.28
1.73
1.61
1.04
0.18
-0.79
-1.68
-2.30
-2.53
-2.36
-1.89
-1.29
-0.77
-0.43
-0.30
-0.31
-0.38
-0.47
-0.64
-0.93
-1.47
-2.27
-3.26
-4.32
-5.29
-6.02
-6.44
-6.57
-6.50
-6.39
-6.43
-6.79
-7.56
-8.69
-9.97
-11.07
-11.64
-11.38
-10.20
-8.19
-5.68
-3.09
-0.78
1.01
2.20
2.91
3.33
3.62
3.86
4.05
4.11
3.98
3.64
3.14
2.59
2.12
1.77
1.56
1.40
1.18
0.80
0.21
-0.57
-1.47
-2.40
-3.25
-4.00
-4.61
-5.14
-5.61
-6.08
-6.58
-7.14
-7.76
-8.42
-9.10
-9.72
-10.19
-10.37
-10.14
-9.42
-8.19
-6.55
-4.64
-2.65
-0.75
0.95
2.40
3.64
4.72
5.62
6.27
6.53
6.31
5.61
4.60
3.53
2.65
2.07
1.70
1.37
0.92
0.29
-0.43
-1.10
-1.62
-2.02
-2.41
-2.93
-3.60
-4.35
-5.00
-5.36
-5.32
-4.91
-4.28
-3.66
-3.32
-3.44
-4.12
-5.30
-6.80
-8.33
-9.55
-10.15
-9.96
-8.97
-7.35
-5.37
-3.33
-1.45
0.18
1.57
2.79
3.87
4.77
5.40
5.66
5.57
5.21
4.77
4.38
4.09
3.81
3.39
2.72
1.82
0.84
-0.03
-0.62
-0.87
-0.83
-0.61
-0.32
-0.05
0.11
0.12
-0.02
-0.27
-0.52
-0.71
-0.84
-1.01
-1.41
-2.22
-3.52
-5.23
-7.10
-8.80
-9.94
-10.26
-9.58
-7.90
-5.34
-2.14
1.38
4.79
7.66
9.58
10.32
9.86
8.45
6.49
4.46
2.70
1.42
0.63
0.26
0.22
0.40
0.73
1.20
1.80
2.52
3.31
4.00
4.39
4.25
3.56
2.47
1.29
0.30
-0.36
-0.78
-1.15
-1.62
-2.18
-2.68
-2.97
-3.03
-2.97
-2.96
-3.10
-3.38
-3.66
-3.81
-3.76
-3.59
-3.40
-3.26
-3.10
-2.79
-2.17
-1.17
0.11
1.43
2.52
3.18
3.34
3.07
2.54
1.96
1.48
1.24
1.30
1.63
2.14
2.65
2.97
2.99
2.67
2.06
1.30
0.54
-0.12
-0.57
-0.79
-0.86
-0.89
-1.07
-1.57
-2.48
-3.74
-5.21
-6.65
-7.83
-8.56
-8.71
-8.30
-7.41
-6.22
-4.92
-3.68
-2.57
-1.60
-0.75
0.03
0.70
1.26
1.71
2.10
2.52
3.04
3.67
4.37
5.02
5.51
5.73
5.62
5.16
4.38
3.36
2.18
0.95
-0.17
-1.10
-1.76
-2.16
-2.33
-2.40
-2.48
-2.73
-3.29
-4.20
-5.40
-6.63
-7.53
-7.73
-7.00
-5.42
-3.32
-1.18
0.58
1.73
2.34
2.62
2.83
3.14
3.55
4.00
4.39
4.68
4.89
5.06
5.18
5.22
5.13
4.89
4.57
4.23
3.93
3.66
3.34
2.87
2.16
1.21
0.10
-1.03
-2.09
-3.06
-4.01
-5.06
-6.29
-7.70
-9.18
-10.57
-11.71
-12.42
-12.59
-12.09
-10.80
-8.71
-5.89
-2.66
0.58
3.36
5.38
6.63
7.27
7.58
7.72
7.70
7.39
6.69
5.67
4.55
3.66
3.21
3.30
3.83
4.65
5.57
6.47
7.21
7.64
7.61
7.02
5.90
4.34
2.48
0.43
-1.75
-4.06
-6.43
-8.77
-10.93
-12.80
-14.30
-15.39
-16.03
-16.12
-15.54
-14.18
-12.06
-9.39
-6.50
-3.77
-1.49
0.14
1.13
1.55
1.59
1.47
1.40
1.62
2.26
3.35
4.78
6.35
7.82
9.00
9.77
10.12
10.13
9.93
9.62
9.29
9.01
8.75
8.40
7.82
6.83
5.29
3.12
0.39
-2.72
-5.97
-9.04
-11.69
-13.70
-14.97
-15.44
-15.09
-14.01
-12.40
-10.57
-8.88
-7.59
-6.81
-6.41
-6.11
-5.61
-4.72
-3.45
-1.92
-0.36
1.08
2.29
3.25
3.95
4.36
4.47
4.25
3.74
3.02
2.21
1.46
0.92
0.69
0.81
1.25
1.93
2.69
3.40
3.94
4.24
4.24
3.94
3.34
2.45
1.29
-0.08
-1.61
-3.19
-4.69
-6.02
-7.07
-7.75
-7.98
-7.70
-6.87
-5.51
-3.77
-1.89
-0.19
1.09
1.87
2.24
2.43
2.70
3.19
3.89
4.64
5.28
5.71
5.89
5.88
5.72
5.44
5.06
4.61
4.16
3.79
3.54
3.39
3.30
3.22
3.12
2.98
2.79
2.51
2.14
1.64
1.05
0.41
-0.24
-0.92
-1.73
-2.78
-4.10
-5.57
-6.94
-7.93
-8.30
-7.97
-7.07
-5.81
-4.46
-3.16
-1.95
-0.78
0.44
1.73
3.03
4.24
5.24
5.90
6.20
6.18
5.94
5.64
5.40
5.27
5.23
5.17
4.97
4.60
4.08
3.55
3.08
2.75
2.49
2.24
1.93
1.63
1.42
1.39
1.54
1.75
1.89
1.81
1.46
0.87
0.03
-1.04
-2.37
-3.91
-5.53
-6.94
-7.88
-8.10
-7.53
-6.29
-4.66
-2.98
-1.51
-0.33
0.58
1.38
2.19
3.11
4.07
4.97
5.67
6.09
6.25
6.19
5.97
5.63
5.19
4.69
4.19
3.80
3.62
3.66
3.83
3.91
3.65
2.89
1.59
-0.11
-1.96
-3.70
-5.12
-6.13
-6.73
-6.98
-7.00
-6.93
-6.90
-6.93
-6.98
-6.86
-6.36
-5.41
-4.05
-2.51
-1.11
-0.03
0.68
1.13
1.52
1.97
2.47
2.93
3.21
3.23
2.99
2.57
2.04
1.46
0.91
0.44
0.11
-0.04
-0.03
0.06
0.08
-0.09
-0.53
-1.25
-2.18
-3.22
-4.26
-5.23
-6.05
-6.73
-7.32
-7.94
-8.76
-9.88
-11.24
-12.60
-13.57
-13.80
-13.16
-11.80
-10.06
-8.36
-7.00
-6.03
-5.31
-4.61
-3.75
-2.65
-1.37
-0.05
1.18
2.26
3.18
3.97
4.63
5.13
5.41
5.37
5.04
4.46
3.77
3.08
2.42
1.73
0.93
-0.02
-1.08
-2.14
-3.09
-3.93
-4.75
-5.68
-6.82
-8.18
-9.64
-11.00
-12.02
-12.55
-12.48
-11.82
-10.63
-9.04
-7.17
-5.12
-3.00
-0.93
0.94
2.46
3.51
4.05
4.19
4.10
3.97
3.91
3.93
3.94
3.81
3.52
3.10
2.69
2.43
2.36
2.44
2.55
2.65
2.73
2.91
3.26
3.77
4.31
4.64
4.57
4.03
3.06
1.84
0.50
-0.83
-2.10
-3.20
-3.99
-4.28
-3.94
-2.96
-1.46
0.30
2.05
3.57
4.72
5.47
5.86
5.98
6.00
6.09
6.39
6.93
7.63
8.28
8.62
8.44
7.67
6.44
4.99
3.62
2.57
1.92
1.64
1.63
1.80
2.05
2.35
2.67
2.92
3.02
2.85
2.32
1.41
0.15
-1.33
-2.86
-4.25
-5.27
-5.74
-5.54
-4.67
-3.19
-1.29
0.82
2.90
4.71
6.13
7.04
7.47
7.49
7.24
6.86
6.47
6.15
5.92
5.75
5.61
5.45
5.25
5.03
4.76
4.42
3.93
3.20
2.21
1.01
-0.21
-1.29
-2.07
-2.58
-2.95
-3.32
-3.81
-4.44
-5.18
-6.02
-6.94
-7.92
-8.86
-9.55
-9.75
-9.33
-8.36
-7.11
-5.90
-4.96
-4.30
-3.73
-3.02
-2.09
-1.01
-0.01
0.69
0.98
0.90
0.63
0.34
0.11
-0.03
-0.18
-0.42
-0.81
-1.39
-2.13
-2.97
-3.84
-4.66
-5.34
-5.82
-6.08
-6.15
-6.10
-6.01
-5.92
-5.89
-5.97
-6.21
-6.66
-7.28
-7.99
-8.59
-8.90
-8.75
-8.06
-6.87
-5.30
-3.50
-1.61
0.31
2.25
4.20
6.12
7.87
9.24
10.01
10.00
9.21
7.89
6.41
5.13
4.29
3.91
3.84
3.91
4.02
4.18
4.45
4.86
5.31
5.61
5.57
5.04
4.06
2.74
1.28
-0.15
-1.50
-2.75
-3.95
-5.18
-6.46
-7.75
-9.00
-10.09
-10.89
-11.33
-11.36
-11.00
-10.28
-9.24
-7.86
-6.12
-4.02
-1.62
0.88
3.23
5.15
6.44
7.06
7.11
6.82
6.47
6.26
6.29
6.57
6.96
7.32
7.51
7.41
7.02
6.36
5.51
4.59
3.72
2.96
2.29
1.68
1.03
0.28
-0.62
-1.64
-2.73
-3.82
-4.86
-5.89
-6.97
-8.12
-9.28
-10.27
-10.81
-10.71
-9.90
-8.51
-6.81
-5.06
-3.39
-1.76
-0.08
1.69
3.42
4.86
5.74
5.97
5.66
5.10
4.59
4.36
4.43
4.73
5.12
5.53
5.87
6.11
6.14
5.87
5.28
4.42
3.43
2.48
1.63
0.89
0.16
-0.67
-1.62
-2.68
-3.78
-4.88
-5.99
-7.10
-8.16
-9.04
-9.54
-9.54
-9.01
-8.00
-6.70
-5.24
-3.74
-2.21
-0.60
1.09
2.84
4.55
6.08
7.35
8.36
9.18
9.91
10.58
11.12
11.39
11.22
10.54
9.47
8.23
7.08
6.21
5.67
5.33
5.03
4.64
4.11
3.46
2.76
2.04
1.30
0.45
-0.55
-1.70
-2.97
-4.23
-5.36
-6.25
-6.80
-6.92
-6.54
-5.62
-4.20
-2.42
-0.50
1.34
2.94
4.26
5.40
6.48
7.59
8.66
9.56
10.08
10.09
9.59
8.77
7.84
7.00
6.35
5.89
5.50
5.10
4.67
4.25
3.88
3.61
3.39
3.15
2.81
2.36
1.86
1.39
0.97
0.61
0.18
-0.44
-1.36
-2.61
-4.15
-5.82
-7.41
-8.71
-9.58
-9.95
-9.83
-9.29
-8.42
-7.31
-6.04
-4.71
-3.40
-2.19
-1.12
-0.17
0.69
1.51
2.30
3.00
3.57
3.97
4.20
4.35
4.50
4.71
4.95
5.13
5.14
4.93
4.53
4.05
3.64
3.40
3.32
3.29
3.13
2.73
2.02
1.09
0.08
-0.86
-1.64
-2.27
-2.87
-3.58
-4.53
-5.78
-7.30
-8.95
-10.53
-11.83
-12.64
-12.79
-12.20
-10.90
-9.01
-6.78
-4.47
-2.32
-0.53
0.84
1.79
2.41
2.82
3.11
3.35
3.52
3.56
3.40
3.01
2.43
1.75
1.13
0.69
0.48
0.46
0.54
0.58
0.49
0.20
-0.33
-1.10
-2.05
-3.09
-4.07
-4.88
-5.43
-5.75
-5.91
-6.01
-6.16
-6.49
-7.06
-7.92
-8.99
-10.13
-11.08
-11.61
-11.53
-10.80
-9.54
-7.93
-6.17
-4.43
-2.80
-1.34
-0.12
0.82
1.47
1.88
2.16
2.43
2.79
3.23
3.73
4.18
4.49
4.62
4.58
4.43
4.23
4.02
3.80
3.54
3.21
2.77
2.27
1.75
1.29
0.93
0.69
0.52
0.40
0.29
0.17
0.01
-0.23
-0.64
-1.27
-2.12
-3.09
-3.96
-4.51
-4.58
-4.16
-3.35
-2.36
-1.29
-0.24
0.84
1.93
3.02
4.01
4.81
5.34
5.63
5.73
5.75
5.80
5.88
5.94
5.90
5.64
5.12
4.35
3.42
2.44
1.51
0.69
-0.03
-0.73
-1.49
-2.37
-3.42
-4.55
-5.69
-6.70
-7.51
-8.11
-8.52
-8.81
-8.98
-8.95
-8.61
-7.86
-6.72
-5.28
-3.72
-2.22
-0.87
0.33
1.43
2.45
3.35
4.06
4.49
4.63
4.57
4.48
4.51
4.74
5.14
5.60
5.98
6.21
6.27
6.17
5.91
5.45
4.76
3.83
2.71
1.53
0.45
-0.45
-1.14
-1.66
-2.10
-2.54
-3.06
-3.73
-4.61
-5.74
-7.09
-8.52
-9.83
-10.83
-11.36
-11.41
-11.07
-10.44
-9.61
-8.58
-7.28
-5.69
-3.82
-1.82
0.10
1.66
2.69
3.15
3.16
2.94
2.75
2.76
3.02
3.45
3.92
4.28
4.42
4.29
3.94
3.42
2.79
2.13
1.49
0.96
0.55
0.32
0.24
0.25
0.26
0.14
-0.17
-0.70
-1.37
-2.07
-2.71
-3.27
-3.75
-4.15
-4.41
-4.41
-4.02
-3.21
-2.11
-0.91
0.19
1.09
1.82
2.51
3.23
3.95
4.57
5.00
5.20
5.28
5.37
5.58
5.88
6.18
6.33
6.23
5.85
5.29
4.66
4.04
3.46
2.86
2.17
1.35
0.46
-0.41
-1.20
-1.92
-2.64
-3.47
-4.44
-5.47
-6.43
-7.22
-7.86
-8.38
-8.80
-9.05
-8.91
-8.19
-6.80
-4.91
-2.82
-0.87
0.71
1.90
2.77
3.46
4.03
4.50
4.85
5.09
5.25
5.35
5.38
5.31
5.11
4.81
4.45
4.06
3.64
3.11
2.43
1.57
0.58
-0.43
-1.40
-2.28
-3.08
-3.83
-4.58
-5.34
-6.11
-6.87
-7.50
-7.81
-7.60
-6.74
-5.26
-3.35
-1.28
0.66
2.37
3.79
4.98
5.93
6.57
6.85
6.72
6.28
5.67
4.99
4.30
3.57
2.78
1.95
1.14
0.43
-0.16
-0.71
-1.33
-2.10
-3.01
-3.97
-4.88
-5.66
-6.31
-6.90
-7.50
-8.13
-8.83
-9.59
-10.45
-11.47
-12.60
-13.74
-14.67
-15.13
-14.92
-13.93
-12.26
-10.09
-7.67
-5.21
-2.84
-0.63
1.32
2.94
4.19
5.04
5.55
5.80
5.90
5.95
6.02
6.12
6.21
6.22
6.02
5.55
4.78
3.79
2.77
1.90
1.34
1.07
0.96
0.79
0.33
-0.55
-1.83
-3.43
-5.14
-6.76
-8.13
-9.12
-9.64
-9.64
-9.08
-8.01
-6.55
-4.83
-3.03
-1.27
0.36
1.84
3.15
4.30
5.28
6.04
6.55
6.80
6.82
6.71
6.57
6.50
6.57
6.73
6.90
6.98
6.90
6.64
6.21
5.63
4.89
3.99
2.95
1.83
0.69
-0.45
-1.62
-2.91
-4.38
-6.01
-7.72
-9.37
-10.80
-11.86
-12.40
-12.30
-11.48
-9.98
-7.91
-5.50
-3.01
-0.64
1.48
3.33
4.94
6.31
7.45
8.32
8.93
9.26
9.37
9.32
9.17
8.94
8.64
8.22
7.69
7.08
6.45
5.82
5.19
4.47
3.58
2.54
1.43
0.39
-0.50
-1.27
-2.11
-3.21
-4.72
-6.63
-8.79
-10.94
-12.80
-14.11
-14.67
-14.37
-13.19
-11.27
-8.79
-6.02
-3.19
-0.45
2.16
4.64
6.97
9.11
10.92
12.25
13.04
13.31
13.18
12.85
12.51
12.27
12.13
12.02
11.86
11.55
11.08
10.47
9.73
8.91
7.99
6.97
5.89
4.82
3.83
3.03
2.39
1.84
1.18
0.19
-1.29
-3.26
-5.51
-7.64
-9.17
-9.66
-8.90
-6.94
-4.05
-0.63
2.92
6.24
9.08
11.28
12.74
13.47
13.58
13.27
12.82
12.47
12.35
12.44
12.63
12.70
12.50
11.92
10.99
9.79
8.47
7.15
5.89
4.71
3.55
2.39
1.23
0.06
-1.09
-2.20
-3.27
-4.38
-5.59
-7.01
-8.70
-10.63
-12.66
-14.55
-15.98
-16.65
-16.35
-15.09
-13.01
-10.41
-7.60
-4.86
-2.31
0.05
2.27
4.39
6.35
8.01
9.22
9.93
10.22
10.23
10.11
9.87
9.46
8.79
7.90
6.95
6.14
5.62
5.35
5.14
4.74
3.99
2.90
1.60
0.29
-0.90
-1.94
-2.91
-3.91
-5.04
-6.33
-7.74
-9.15
-10.38
-11.22
-11.44
-10.87
-9.42
-7.20
-4.43
-1.46
1.38
3.84
5.78
7.23
8.30
9.10
9.74
10.22
10.52
10.57
10.35
9.85
9.15
8.36
7.63
7.03
6.54
6.10
5.58
4.92
4.08
3.08
1.92
0.60
-0.88
-2.48
-4.14
-5.77
-7.32
-8.86
-10.48
-12.24
-14.08
-15.72
-16.82
-17.07
-16.33
-14.68
-12.34
-9.64
-6.81
-4.05
-1.45
0.91
3.02
4.82
6.22
7.16
7.60
7.59
7.23
6.69
6.12
5.63
5.25
4.96
4.69
4.43
4.17
3.94
3.73
3.49
3.16
2.67
1.96
1.04
-0.01
-1.07
-2.01
-2.73
-3.23
-3.59
-3.92
-4.36
-5.00
-5.89
-7.01
-8.26
-9.39
-10.10
-10.06
-9.12
-7.36
-5.09
-2.80
-0.85
0.58
1.56
2.29
2.96
3.61
4.14
4.45
4.46
4.26
3.99
3.79
3.71
3.73
3.77
3.75
3.64
3.45
3.17
2.82
2.37
1.80
1.11
0.31
-0.55
-1.39
-2.15
-2.77
-3.28
-3.71
-4.21
-4.87
-5.77
-6.92
-8.27
-9.71
-11.12
-12.34
-13.18
-13.48
-13.12
-12.03
-10.33
-8.20
-5.92
-3.76
-1.88
-0.34
0.87
1.82
2.60
3.26
3.86
4.37
4.78
5.04
5.14
5.12
5.05
4.99
4.98
5.01
4.99
4.84
4.51
4.01
3.39
2.79
2.26
1.84
1.52
1.23
0.84
0.26
-0.61
-1.83
-3.39
-5.22
-7.16
-9.01
-10.51
-11.45
-11.71
-11.26
-10.21
-8.74
-7.06
-5.36
-3.72
-2.16
-0.67
0.79
2.19
3.46
4.48
5.18
5.56
5.67
5.64
5.55
5.43
5.23
4.91
4.45
3.94
3.49
3.21
3.11
3.12
3.10
2.90
2.42
1.66
0.70
-0.37
-1.40
-2.34
-3.15
-3.89
-4.68
-5.63
-6.80
-8.18
-9.65
-10.97
-11.91
-12.22
-11.79
-10.65
-8.94
-6.88
-4.69
-2.54
-0.52
1.30
2.88
4.13
5.01
5.50
5.65
5.62
5.58
5.61
5.75
5.92
6.05
6.06
5.97
5.79
5.55
5.18
4.62
3.84
2.87
1.83
0.86
0.05
-0.60
-1.20
-1.89
-2.81
-4.00
-5.40
-6.85
-8.20
-9.37
-10.33
-11.12
-11.76
-12.16
-12.15
-11.56
-10.31
-8.44
-6.15
-3.71
-1.34
0.80
2.65
4.15
5.26
5.94
6.21
6.17
5.93
5.65
5.42
5.29
5.23
5.22
5.21
5.16
5.01
4.71
4.21
3.51
2.64
1.68
0.72
-0.18
-0.97
-1.67
-2.31
-2.91
-3.53
-4.21
-5.05
-6.15
-7.62
-9.44
-11.43
-13.26
-14.55
-14.98
-14.47
-13.13
-11.24
-9.09
-6.93
-4.88
-2.97
-1.24
0.29
1.54
2.47
3.09
3.51
3.87
4.26
4.70
5.10
5.34
5.33
5.07
4.67
4.25
3.91
3.70
3.57
3.42
3.17
2.69
1.95
0.96
-0.22
-1.49
-2.71
-3.88
-5.02
-6.23
-7.58
-9.07
-10.56
-11.83
-12.60
-12.67
-11.92
-10.38
-8.19
-5.62
-2.95
-0.44
1.74
3.55
5.06
6.38
7.59
8.72
9.69
10.46
10.97
11.21
11.24
11.10
10.81
10.39
9.83
9.11
8.25
7.31
6.31
5.28
4.21
3.07
1.86
0.62
-0.59
-1.70
-2.68
-3.58
-4.54
-5.69
-7.11
-8.76
-10.47
-11.99
-13.06
-13.46
-13.04
-11.76
-9.70
-7.06
-4.16
-1.33
1.12
3.06
4.51
5.62
6.55
7.42
8.23
8.93
9.44
9.73
9.81
9.72
9.48
9.08
8.54
7.89
7.20
6.56
6.01
5.51
4.95
4.22
3.27
2.12
0.91
-0.25
-1.29
-2.25
-3.24
-4.38
-5.73
-7.29
-9.02
-10.81
-12.52
-13.99
-14.99
-15.29
-14.70
-13.17
-10.81
-7.92
-4.86
-1.97
0.57
2.75
4.62
6.31
7.84
9.14
10.08
10.57
10.58
10.26
9.85
9.61
9.67
10.01
10.43
10.68
10.56
10.02
9.17
8.17
7.16
6.17
5.16
4.07
2.89
1.65
0.45
-0.67
-1.71
-2.72
-3.78
-4.94
-6.23
-7.64
-9.18
-10.88
-12.75
-14.67
-16.42
-17.67
-18.10
-17.52
-15.93
-13.55
-10.72
-7.80
-5.02
-2.49
-0.20
1.91
3.86
5.62
7.11
8.23
8.93
9.24
9.25
9.16
9.10
9.19
9.39
9.63
9.78
9.74
9.48
9.02
8.39
7.58
6.57
5.32
3.86
2.25
0.65
-0.82
-2.04
-3.03
-3.89
-4.80
-5.94
-7.44
-9.32
-11.46
-13.71
-15.87
-17.75
-19.19
-19.97
-19.88
-18.78
-16.63
-13.64
-10.11
-6.45
-2.97
0.16
2.88
5.22
7.16
8.68
9.79
10.54
11.02
11.34
11.54
11.63
11.59
11.43
11.19
10.95
10.68
10.36
9.89
9.19
8.29
7.25
6.14
5.02
3.86
2.62
1.24
-0.30
-1.98
-3.78
-5.67
-7.70
-9.89
-12.19
-14.44
-16.29
-17.38
-17.37
-16.13
-13.77
-10.61
-7.05
-3.50
-0.23
2.63
5.04
7.03
8.61
9.84
10.76
11.45
11.99
12.45
12.86
13.19
13.34
13.21
12.73
11.90
10.85
9.78
8.84
8.07
7.42
6.69
5.74
4.49
2.99
1.37
-0.22
-1.73
-3.19
-4.65
-6.18
-7.80
-9.50
-11.28
-13.19
-15.21
-17.25
-19.03
-20.21
-20.39
-19.35
-17.12
-13.95
-10.25
-6.43
-2.80
0.47
3.36
5.91
8.19
10.19
11.83
13.04
13.77
14.13
14.28
14.45
14.74
15.08
15.27
15.10
14.45
13.40
12.13
10.89
9.81
8.90
8.04
7.11
6.03
4.82
3.56
2.32
1.14
0.01
-1.12
-2.32
-3.62
-4.99
-6.41
-7.88
-9.44
-11.18
-13.14
-15.22
-17.11
-18.37
-18.56
-17.42
-15.00
-11.61
-7.75
-3.95
-0.57
2.25
4.56
6.52
8.30
9.97
11.52
12.83
13.76
14.20
14.17
13.77
13.19
12.58
12.02
11.49
10.99
10.51
10.09
9.77
9.52
9.25
8.82
8.13
7.16
5.95
4.60
3.24
1.97
0.84
-0.17
-1.14
-2.18
-3.43
-4.92
-6.61
-8.33
-9.95
-11.47
-12.97
-14.60
-16.39
-18.14
-19.46
-19.88
-19.10
-17.09
-14.11
-10.54
-6.79
-3.16
0.17
3.08
5.51
7.44
8.93
10.05
10.89
11.50
11.82
11.84
11.56
11.09
10.57
10.12
9.79
9.53
9.28
9.02
8.72
8.36
7.87
7.15
6.17
4.97
3.67
2.41
1.28
0.23
-0.87
-2.12
-3.53
-5.01
-6.41
-7.66
-8.79
-9.97
-11.38
-13.16
-15.22
-17.30
-18.97
-19.83
-19.60
-18.22
-15.87
-12.84
-9.45
-5.96
-2.57
0.59
3.38
5.68
7.43
8.64
9.37
9.76
9.92
9.95
9.92
9.89
9.92
10.03
10.17
10.24
10.12
9.76
9.24
8.65
8.09
7.55
6.92
6.05
4.85
3.40
1.88
0.48
-0.69
-1.66
-2.60
-3.69
-5.09
-6.85
-8.93
-11.20
-13.46
-15.39
-16.65
-16.88
-15.87
-13.65
-10.52
-7.02
-3.67
-0.82
1.47
3.39
5.14
6.78
8.14
8.99
9.18
8.79
8.14
7.59
7.37
7.49
7.74
7.87
7.72
7.30
6.74
6.22
5.81
5.45
5.00
4.28
3.21
1.85
0.37
-1.01
-2.10
-2.87
-3.43
-3.95
-4.64
-5.70
-7.21
-9.20
-11.57
-14.09
-16.38
-18.03
-18.66
-18.09
-16.40
-13.86
-10.84
-7.72
-4.77
-2.11
0.23
2.33
4.23
5.98
7.56
8.96
10.16
11.19
12.04
12.74
13.21
13.36
13.12
12.46
11.47
10.32
9.20
8.22
7.42
6.70
5.94
5.06
3.98
2.68
1.17
-0.53
-2.32
-4.08
-5.64
-6.93
-7.97
-8.92
-10.07
-11.62
-13.63
-15.93
-18.16
-19.88
-20.70
-20.37
-18.84
-16.27
-12.98
-9.39
-5.88
-2.78
-0.20
1.88
3.63
5.24
6.84
8.44
9.93
11.14
11.88
12.07
11.79
11.21
10.61
10.16
9.93
9.84
9.74
9.49
9.02
8.34
7.46
6.41
5.18
3.80
2.33
0.87
-0.45
-1.55
-2.46
-3.25
-4.06
-5.00
-6.14
-7.51
-9.17
-11.11
-13.28
-15.56
-17.72
-19.42
-20.34
-20.19
-18.88
-16.52
-13.45
-10.05
-6.70
-3.62
-0.87
1.62
3.91
5.99
7.77
9.14
10.02
10.46
10.60
10.57
10.52
10.51
10.56
10.65
10.73
10.75
10.65
10.37
9.89
9.21
8.34
7.30
6.07
4.64
3.04
1.37
-0.23
-1.62
-2.73
-3.58
-4.23
-4.85
-5.55
-6.45
-7.63
-9.14
-10.93
-12.83
-14.56
-15.76
-16.08
-15.37
-13.64
-11.13
-8.16
-5.07
-2.08
0.76
3.48
6.11
8.64
10.94
12.83
14.12
14.78
14.87
14.59
14.17
13.79
13.50
13.26
12.98
12.58
12.03
11.35
10.60
9.80
9.02
8.29
7.64
7.05
6.43
5.65
4.61
3.27
1.72
0.12
-1.36
-2.65
-3.80
-4.97
-6.33
-8.00
-10.01
-12.30
-14.71
-17.02
-18.94
-20.11
-20.24
-19.15
-16.89
-13.75
-10.18
-6.64
-3.46
-0.80
1.41
3.29
4.97
6.52
7.89
9.02
9.87
10.48
10.91
11.26
11.56
11.78
11.89
11.83
11.61
11.25
10.82
10.34
9.84
9.28
8.62
7.82
6.86
5.77
4.62
3.51
2.49
1.57
0.71
-0.20
-1.20
-2.32
-3.50
-4.67
-5.74
-6.71
-7.64
-8.68
-9.96
-11.60
-13.64
-15.92
-18.13
-19.85
-20.59
-20.06
-18.19
-15.24
-11.72
-8.19
-5.05
-2.44
-0.26
1.68
3.58
5.47
7.23
8.71
9.77
10.42
10.71
10.74
10.61
10.36
10.03
9.66
9.27
8.88
8.48
8.04
7.57
7.08
6.58
6.02
5.39
4.71
4.04
3.47
3.05
2.72
2.32
1.65
0.59
-0.85
-2.51
-4.18
-5.66
-6.88
-7.84
-8.64
-9.42
-10.33
-11.51
-13.03
-14.82
-16.68
-18.20
-18.97
-18.62
-17.07
-14.49
-11.27
-7.86
-4.62
-1.74
0.74
2.83
4.59
6.06
7.26
8.23
9.01
9.61
10.03
10.24
10.24
10.05
9.69
9.22
8.68
8.12
7.56
7.05
6.61
6.25
5.91
5.52
5.03
4.43
3.75
3.09
2.54
2.16
1.91
1.70
1.35
0.73
-0.18
-1.30
-2.47
-3.48
-4.21
-4.68
-5.02
-5.44
-6.14
-7.24
-8.76
-10.56
-12.42
-14.06
-15.16
-15.48
-14.83
-13.23
-10.82
-7.91
-4.92
-2.19
0.07
1.83
3.19
4.31
5.25
6.01
6.52
6.75
6.76
6.65
6.55
6.53
6.57
6.61
6.56
6.38
6.05
5.58
5.01
4.33
3.56
2.71
1.79
0.91
0.11
-0.53
-1.07
-1.59
-2.21
-2.99
-3.90
-4.88
-5.83
-6.71
-7.58
-8.53
-9.61
-10.79
-11.96
-12.99
-13.69
-13.94
-13.63
-12.73
-11.27
-9.34
-7.13
-4.80
-2.56
-0.55
1.11
2.32
3.10
3.53
3.76
3.95
4.23
4.62
5.11
5.63
6.09
6.44
6.63
6.60
6.32
5.77
5.00
4.10
3.17
2.24
1.29
0.26
-0.88
-2.09
-3.28
-4.31
-5.10
-5.70
-6.23
-6.90
-7.91
-9.36
-11.22
-13.21
-14.99
-16.14
-16.31
-15.34
-13.33
-10.59
-7.54
-4.60
-2.05
0.03
1.69
3.06
4.25
5.31
6.22
6.96
7.53
7.93
8.15
8.17
7.97
7.53
6.90
6.15
5.40
4.71
4.10
3.51
2.88
2.14
1.22
0.11
-1.16
-2.50
-3.80
-4.94
-5.93
-6.83
-7.79
-8.94
-10.32
-11.88
-13.46
-14.87
-15.91
-16.44
-16.31
-15.46
-13.89
-11.67
-9.00
-6.11
-3.25
-0.56
1.88
4.08
6.01
7.64
8.92
9.81
10.33
10.58
10.67
10.66
10.53
10.20
9.64
8.85
7.97
7.18
6.65
6.42
6.39
6.34
6.04
5.32
4.11
2.50
0.67
-1.18
-2.88
-4.34
-5.58
-6.69
-7.83
-9.22
-10.95
-13.01
-15.23
-17.24
-18.65
-19.10
-18.38
-16.52
-13.76
-10.44
-6.89
-3.36
0.02
3.24
6.31
9.18
11.78
13.95
15.56
16.53
16.95
16.98
16.84
16.70
16.59
16.42
16.08
15.49
14.68
13.76
12.91
12.20
11.62
11.06
10.40
9.55
8.44
7.13
5.69
4.19
2.70
1.25
-0.12
-1.39
-2.57
-3.69
-4.82
-6.10
-7.69
-9.73
-12.22
-14.96
-17.57
-19.50
-20.27
-19.56
-17.40
-14.10
-10.21
-6.26
-2.59
0.69
3.69
6.52
9.20
11.58
13.47
14.68
15.19
15.15
14.80
14.41
14.12
13.99
13.99
14.03
14.03
13.92
13.63
13.13
12.40
11.45
10.33
9.10
7.84
6.66
5.64
4.80
4.07
3.34
2.48
1.40
0.12
-1.28
-2.64
-3.84
-4.82
-5.59
-6.23
-6.81
-7.43
-8.23
-9.37
-10.96
-12.95
-15.13
-17.08
-18.35
-18.59
-17.70
-15.82
-13.28
-10.42
-7.47
-4.52
-1.57
1.33
4.07
6.45
8.27
9.47
10.13
10.42
10.59
10.74
10.90
10.96
10.83
10.51
10.07
9.66
9.35
9.14
8.93
8.61
8.11
7.45
6.65
5.76
4.82
3.84
2.83
1.85
0.91
-0.00
-0.96
-2.01
-3.21
-4.51
-5.82
-7.06
-8.24
-9.40
-10.67
-12.12
-13.74
-15.37
-16.73
-17.47
-17.31
-16.12
-13.98
-11.21
-8.17
-5.21
-2.52
-0.13
2.06
4.17
6.20
8.07
9.68
10.90
11.76
12.33
12.72
12.99
13.13
13.08
12.78
12.23
11.50
10.69
9.90
9.17
8.45
7.68
6.82
5.86
4.86
3.92
3.11
2.45
1.91
1.45
1.00
0.51
-0.07
-0.84
-1.87
-3.20
-4.79
-6.51
-8.19
-9.76
-11.22
-12.64
-14.08
-15.46
-16.53
-16.96
-16.51
-15.11
-12.95
-10.34
-7.63
-5.01
-2.52
-0.11
2.23
4.43
6.33
7.79
8.74
9.26
9.58
9.90
10.35
10.90
11.37
11.55
11.33
10.77
10.08
9.52
9.24
9.21
9.20
8.96
8.31
7.28
6.03
4.82
3.80
3.03
2.41
1.80
1.10
0.29
-0.60
-1.52
-2.46
-3.46
-4.56
-5.81
-7.21
-8.72
-10.28
-11.82
-13.27
-14.57
-15.66
-16.40
-16.64
-16.16
-14.85
-12.74
-10.07
-7.19
-4.49
-2.16
-0.25
1.34
2.78
4.10
5.29
6.22
6.85
7.16
7.25
7.26
7.31
7.45
7.68
7.94
8.13
8.16
7.99
7.66
7.27
6.96
6.79
6.73
6.70
6.54
6.17
5.58
4.87
4.10
3.33
2.52
1.60
0.50
-0.74
-2.01
-3.17
-4.15
-4.97
-5.74
-6.66
-7.85
-9.36
-11.12
-12.99
-14.82
-16.49
-17.83
-18.68
-18.86
-18.21
-16.74
-14.59
-12.05
-9.42
-6.95
-4.76
-2.87
-1.27
0.03
1.02
1.74
2.29
2.83
3.48
4.23
4.96
5.49
5.73
5.69
5.51
5.33
5.21
5.12
4.95
4.65
4.21
3.70
3.21
2.77
2.39
2.00
1.58
1.13
0.63
0.08
-0.50
-1.12
-1.72
-2.32
-2.96
-3.69
-4.59
-5.69
-7.01
-8.48
-10.04
-11.55
-12.86
-13.73
-13.94
-13.33
-11.87
-9.72
-7.16
-4.55
-2.17
-0.19
1.35
2.53
3.43
4.13
4.68
5.16
5.62
6.16
6.84
7.65
8.48
9.19
9.60
9.65
9.37
8.90
8.42
8.02
7.72
7.42
6.99
6.34
5.44
4.38
3.28
2.24
1.30
0.46
-0.36
-1.26
-2.31
-3.58
-5.08
-6.79
-8.68
-10.68
-12.67
-14.53
-16.07
-17.11
-17.49
-17.10
-15.93
-14.02
-11.51
-8.59
-5.51
-2.56
-0.01
1.95
3.28
4.09
4.57
4.93
5.29
5.66
6.00
6.25
6.42
6.57
6.72
6.87
6.96
6.92
6.71
6.36
5.92
5.44
4.96
4.45
3.87
3.20
2.43
1.56
0.57
-0.54
-1.74
-2.96
-4.10
-5.09
-5.94
-6.70
-7.47
-8.33
-9.29
-10.28
-11.24
-12.06
-12.67
-12.94
-12.78
-12.08
-10.81
-9.01
-6.83
-4.48
-2.17
-0.05
1.80
3.34
4.60
5.58
6.32
6.85
7.22
7.46
7.59
7.64
7.60
7.44
7.13
6.65
5.99
5.20
4.35
3.55
2.84
2.19
1.51
0.68
-0.37
-1.64
-3.05
-4.43
-5.66
-6.66
-7.41
-8.00
-8.56
-9.25
-10.16
-11.37
-12.86
-14.53
-16.19
-17.55
-18.29
-18.12
-16.85
-14.53
-11.43
-7.96
-4.58
-1.66
0.61
2.27
3.47
4.46
5.39
6.37
7.33
8.15
8.71
8.92
8.81
8.48
8.07
7.66
7.27
6.89
6.45
5.95
5.39
4.81
4.19
3.49
2.62
1.57
0.36
-0.93
-2.16
-3.25
-4.23
-5.16
-6.17
-7.38
-8.79
-10.30
-11.73
-12.81
-13.30
-13.02
-11.88
-9.98
-7.50
-4.75
-2.00
0.57
2.93
5.20
7.46
9.71
11.77
13.37
14.29
14.50
14.18
13.62
13.06
12.63
12.28
11.89
11.36
10.66
9.87
9.08
8.33
7.59
6.81
5.89
4.79
3.52
2.18
0.90
-0.20
-1.11
-1.96
-2.95
-4.28
-6.05
-8.19
-10.52
-12.80
-14.75
-16.15
-16.78
-16.50
-15.24
-13.09
-10.28
-7.16
-4.07
-1.21
1.42
3.99
6.65
9.42
12.14
14.54
16.33
17.43
17.88
17.88
17.61
17.18
16.64
15.94
15.08
14.09
13.05
12.06
11.18
10.42
9.69
8.87
7.80
6.40
4.70
2.87
1.13
-0.34
-1.53
-2.56
-3.66
-5.02
-6.72
-8.68
-10.73
-12.67
-14.30
-15.46
-16.01
-15.85
-14.94
-13.28
-11.00
-8.28
-5.34
-2.39
0.45
3.12
5.58
7.84
9.81
11.40
12.52
13.09
13.12
12.71
12.00
11.18
10.43
9.83
9.42
9.11
8.77
8.28
7.58
6.70
5.71
4.74
3.86
3.10
2.44
1.89
1.44
1.12
0.90
0.71
0.42
-0.16
-1.13
-2.54
-4.25
-6.06
-7.75
-9.22
-10.54
-11.83
-13.24
-14.72
-16.05
-16.87
-16.84
-15.83
-13.91
-11.37
-8.52
-5.60
-2.74
0.05
2.77
5.34
7.61
9.41
10.63
11.29
11.50
11.45
11.32
11.22
11.16
11.09
10.93
10.62
10.14
9.54
8.87
8.21
7.57
6.95
6.30
5.59
4.81
3.99
3.20
2.49
1.86
1.29
0.70
0.06
-0.62
-1.29
-1.93
-2.54
-3.23
-4.12
-5.34
-6.87
-8.60
-10.35
-11.92
-13.14
-13.92
-14.16
-13.82
-12.81
-11.12
-8.82
-6.08
-3.16
-0.36
2.09
4.06
5.58
6.70
7.50
8.03
8.28
8.28
8.11
7.92
7.85
7.95
8.18
8.37
8.37
8.09
7.55
6.86
6.04
5.13
4.07
2.86
1.53
0.19
-1.02
-2.01
-2.78
-3.40
-3.95
-4.47
-4.94
-5.33
-5.58
-5.76
-5.97
-6.39
-7.17
-8.38
-9.93
-11.60
-13.07
-14.06
-14.37
-13.98
-12.97
-11.50
-9.73
-7.80
-5.82
-3.89
-2.15
-0.66
0.53
1.49
2.29
3.02
3.70
4.28
4.69
4.88
4.90
4.89
4.96
5.20
5.57
5.99
6.38
6.64
6.77
6.74
6.55
6.17
5.60
4.82
3.87
2.83
1.79
0.86
0.14
-0.29
-0.49
-0.58
-0.76
-1.22
-2.10
-3.42
-5.07
-6.89
-8.71
-10.36
-11.73
-12.71
-13.22
-13.20
-12.62
-11.50
-9.98
-8.23
-6.49
-4.94
-3.66
-2.57
-1.53
-0.38
0.92
2.26
3.42
4.22
4.58
4.57
4.35
4.11
3.97
3.96
4.07
4.25
4.45
4.67
4.91
5.16
5.37
5.50
5.48
5.27
4.89
4.32
3.62
2.83
1.99
1.17
0.37
-0.41
-1.17
-1.89
-2.55
-3.11
-3.59
-4.03
-4.56
-5.19
-5.89
-6.47
-6.66
-6.29
-5.35
-4.04
-2.70
-1.61
-0.91
-0.49
-0.12
0.44
1.30
2.39
3.54
4.59
5.50
6.30
7.06
7.72
8.13
8.09
7.53
6.58
5.59
4.93
4.83
5.28
6.04
6.73
7.00
6.65
5.63
4.00
2.00
-0.13
-2.06
-3.55
-4.46
-4.81
-4.79
-4.67
-4.69
-5.04
-5.76
-6.78
-8.03
-9.43
-10.93
-12.44
-13.84
-14.94
-15.51
-15.35
-14.37
-12.65
-10.39
-7.93
-5.61
-3.67
-2.26
-1.36
-0.84
-0.51
-0.20
0.19
0.67
1.15
1.51
1.71
1.74
1.67
1.57
1.48
1.36
1.14
0.78
0.30
-0.22
-0.68
-1.01
-1.21
-1.31
-1.36
-1.40
-1.44
-1.47
-1.50
-1.54
-1.68
-2.03
-2.68
-3.71
-5.09
-6.65
-8.12
-9.20
-9.65
-9.32
-8.20
-6.39
-4.03
-1.32
1.50
4.18
6.42
8.00
8.83
8.97
8.67
8.18
7.76
7.56
7.60
7.84
8.19
8.56
8.86
8.98
8.86
8.50
7.93
7.27
6.58
5.90
5.22
4.49
3.66
2.76
1.87
1.06
0.40
-0.07
-0.40
-0.71
-1.16
-1.90
-3.04
-4.52
-6.14
-7.56
-8.45
-8.60
-8.01
-6.92
-5.67
-4.54
-3.66
-3.01
-2.42
-1.78
-1.00
-0.11
0.87
1.85
2.75
3.50
4.03
4.32
4.36
4.17
3.84
3.46
3.16
3.07
3.19
3.43
3.61
3.49
2.91
1.87
0.56
-0.78
-1.91
-2.72
-3.23
-3.55
-3.85
-4.28
-4.99
-6.10
-7.64
-9.50
-11.38
-12.87
-13.58
-13.25
-11.93
-9.89
-7.52
-5.14
-2.96
-1.01
0.76
2.35
3.68
4.66
5.21
5.36
5.24
4.98
4.70
4.49
4.38
4.44
4.71
5.20
5.83
6.42
6.79
6.79
6.40
5.66
4.75
3.81
2.94
2.23
1.68
1.29
1.07
0.97
0.98
1.03
0.96
0.64
-0.07
-1.22
-2.71
-4.37
-5.94
-7.24
-8.09
-8.43
-8.25
-7.59
-6.55
-5.32
-4.08
-2.99
-2.12
-1.39
-0.65
0.31
1.58
3.12
4.74
6.16
7.09
7.39
7.07
6.29
5.33
4.44
3.82
3.53
3.49
3.60
3.75
3.87
3.88
3.70
3.24
2.44
1.33
0.08
-1.09
-1.99
-2.54
-2.85
-3.14
-3.61
-4.37
-5.40
-6.60
-7.80
-8.88
-9.69
-10.08
-9.95
-9.27
-8.16
-6.82
-5.50
-4.35
-3.40
-2.50
-1.49
-0.27
1.10
2.40
3.40
3.94
4.07
4.01
4.03
4.34
4.96
5.77
6.56
7.17
7.50
7.54
7.28
6.69
5.76
4.58
3.32
2.24
1.47
1.04
0.76
0.38
-0.32
-1.46
-3.04
-4.96
-7.05
-9.13
-10.95
-12.19
-12.60
-12.01
-10.43
-8.11
-5.41
-2.71
-0.33
1.54
2.84
3.61
3.96
4.04
4.00
4.00
4.12
4.41
4.83
5.32
5.80
6.20
6.46
6.52
6.31
5.83
5.14
4.37
3.67
3.08
2.59
2.13
1.64
1.08
0.46
-0.22
-0.96
-1.78
-2.66
-3.63
-4.65
-5.71
-6.82
-7.92
-8.85
-9.35
-9.12
-8.02
-6.14
-3.80
-1.43
0.63
2.23
3.49
4.56
5.60
6.62
7.54
8.31
8.90
9.38
9.79
10.17
10.44
10.49
10.25
9.67
8.80
7.76
6.66
5.64
4.77
4.07
3.45
2.80
1.98
0.95
-0.21
-1.37
-2.40
-3.24
-3.95
-4.65
-5.46
-6.44
-7.59
-8.88
-10.22
-11.49
-12.54
-13.16
-13.14
-12.38
-10.89
-8.84
-6.47
-4.04
-1.71
0.44
2.40
4.18
5.77
7.07
8.04
8.62
8.90
8.98
9.03
9.11
9.20
9.19
8.98
8.54
7.97
7.41
7.01
6.78
6.63
6.36
5.84
4.99
3.91
2.73
1.57
0.49
-0.53
-1.55
-2.60
-3.65
-4.66
-5.60
-6.53
-7.52
-8.65
-9.98
-11.45
-12.93
-14.25
-15.21
-15.64
-15.42
-14.48
-12.91
-10.86
-8.56
-6.20
-3.91
-1.69
0.49
2.61
4.57
6.21
7.38
8.02
8.17
8.01
7.71
7.46
7.31
7.24
7.13
6.84
6.30
5.53
4.65
3.86
3.34
3.16
3.26
3.42
3.42
3.10
2.51
1.78
1.14
0.70
0.43
0.14
-0.43
-1.41
-2.75
-4.21
-5.49
-6.39
-6.90
-7.24
-7.72
-8.59
-9.94
-11.56
-13.08
-14.04
-14.08
-13.06
-11.10
-8.49
-5.68
-3.00
-0.67
1.25
2.78
4.01
4.94
5.60
6.04
6.41
6.87
7.52
8.39
9.34
10.17
10.65
10.67
10.21
9.40
8.42
7.45
6.65
6.07
5.74
5.58
5.45
5.20
4.69
3.80
2.54
0.97
-0.76
-2.46
-3.97
-5.23
-6.27
-7.24
-8.29
-9.52
-10.89
-12.20
-13.18
-13.50
-12.96
-11.47
-9.16
-6.31
-3.29
-0.48
1.85
3.60
4.84
5.74
6.47
7.15
7.79
8.35
8.72
8.85
8.76
8.47
8.10
7.80
7.67
7.79
8.09
8.41
8.56
8.36
7.79
6.96
6.04
5.15
4.29
3.37
2.26
0.96
-0.44
-1.76
-2.86
-3.70
-4.36
-4.97
-5.64
-6.42
-7.33
-8.35
-9.49
-10.65
-11.72
-12.47
-12.63
-11.99
-10.49
-8.22
-5.46
-2.56
0.15
2.46
4.30
5.73
6.87
7.85
8.75
9.61
10.47
11.34
12.20
13.00
13.62
13.94
13.85
13.30
12.34
11.10
9.74
8.41
7.22
6.24
5.47
4.88
4.39
3.95
3.48
2.96
2.40
1.81
1.19
0.57
-0.03
-0.61
-1.16
-1.75
-2.49
-3.50
-4.83
-6.42
-8.09
-9.62
-10.79
-11.46
-11.58
-11.13
-10.12
-8.63
-6.80
-4.83
-2.99
-1.53
-0.55
-0.03
0.17
0.24
0.30
0.40
0.53
0.65
0.72
0.74
0.73
0.71
0.69
0.66
0.60
0.51
0.39
0.28
0.20
0.19
0.23
0.27
0.27
0.24
0.19
0.18
0.21
0.23
0.16
-0.11
-0.66
-1.59
-2.94
-4.77
-7.12
-9.96
-13.16
-16.51
-19.77
-22.73
-25.26
-27.30
-28.79
-29.62
-29.62
-28.62
-26.52
-23.35
-19.33
-14.77
-10.09
-5.65
-1.74
1.50
4.06
6.04
7.64
9.05
10.48
12.08
13.94
16.03
18.21
20.23
21.78
22.53
22.29
20.98
18.74
15.80
12.47
8.99
5.53
2.23
-0.81
-3.46
-5.59
-7.13
-8.14
-8.78
-9.33
-9.98
-10.85
-11.93
-13.09
-14.21
-15.17
-15.94
-16.52
-17.00
-17.44
-17.89
-18.32
-18.57
-18.44
-17.68
-16.18
-13.94
-11.09
-7.79
-4.21
-0.49
3.19
6.63
9.59
11.86
13.39
14.25
14.62
14.70
14.63
14.53
14.39
14.17
13.78
13.07
11.89
10.14
7.82
5.07
2.09
-0.91
-3.71
-6.15
-8.00
-9.00
-8.91
-7.63
-5.27
-2.15
1.26
4.54
7.32
9.37
10.51
10.60
9.67
7.91
5.81
4.06
3.36
4.11
6.25
9.21
12.20
14.48
15.67
15.83
15.33
14.60
13.91
13.28
12.57
11.63
10.47
9.25
8.14
7.25
6.52
5.75
4.78
3.56
2.23
1.05
0.24
-0.18
-0.36
-0.61
-1.17
-2.15
-3.43
-4.81
-6.11
-7.21
-8.11
-8.84
-9.44
-9.92
-10.34
-10.83
-11.56
-12.67
-14.13
-15.64
-16.77
-17.04
-16.19
-14.23
-11.49
-8.39
-5.34
-2.56
-0.09
2.12
4.13
5.94
7.49
8.77
9.82
10.71
11.51
12.20
12.68
12.85
12.71
12.37
12.01
11.81
11.78
11.83
11.77
11.43
10.71
9.58
8.09
6.34
4.46
2.62
0.95
-0.46
-1.63
-2.66
-3.68
-4.79
-6.02
-7.37
-8.89
-10.68
-12.79
-15.15
-17.43
-19.14
-19.74
-18.89
-16.64
-13.37
-9.70
-6.20
-3.20
-0.73
1.38
3.36
5.34
7.26
8.95
10.26
11.14
11.66
11.95
12.10
12.15
12.07
11.84
11.51
11.17
10.91
10.79
10.73
10.59
10.20
9.45
8.27
6.72
4.87
2.81
0.61
-1.65
-3.90
-6.00
-7.87
-9.43
-10.69
-11.76
-12.78
-13.92
-15.28
-16.92
-18.79
-20.73
-22.50
-23.70
-23.99
-23.06
-20.86
-17.58
-13.60
-9.40
-5.34
-1.68
1.50
4.20
6.50
8.47
10.17
11.63
12.85
13.77
14.32
14.43
14.13
13.50
12.69
11.83
10.98
10.15
9.31
8.42
7.46
6.44
5.36
4.22
3.00
1.71
0.36
-0.97
-2.17
-3.13
-3.81
-4.27
-4.68
-5.21
-6.00
-7.13
-8.56
-10.23
-12.01
-13.75
-15.20
-16.04
-15.94
-14.69
-12.29
-9.00
-5.25
-1.51
1.87
4.74
7.05
8.84
10.13
10.93
11.28
11.26
11.04
10.76
10.51
10.28
9.98
9.52
8.85
8.05
7.26
6.62
6.18
5.88
5.50
4.82
3.66
2.01
0.03
-2.00
-3.74
-4.91
-5.45
-5.42
-5.04
-4.62
-4.44
-4.70
-5.48
-6.74
-8.30
-9.91
-11.26
-12.06
-12.02
-11.02
-8.99
-6.08
-2.53
1.34
5.17
8.64
11.53
13.68
15.02
15.57
15.46
14.94
14.29
13.77
13.54
13.63
13.95
14.33
14.62
14.67
14.43
13.85
12.94
11.71
10.23
8.59
6.87
5.14
3.43
1.75
0.12
-1.41
-2.85
-4.20
-5.51
-6.85
-8.32
-10.00
-11.86
-13.75
-15.41
-16.45
-16.51
-15.32
-12.89
-9.45
-5.48
-1.49
2.12
5.15
7.62
9.66
11.35
12.71
13.68
14.17
14.15
13.70
13.00
12.25
11.58
11.04
10.64
10.28
9.86
9.26
8.40
7.25
5.84
4.33
2.91
1.73
0.87
0.25
-0.30
-1.01
-1.99
-3.29
-4.82
-6.43
-7.95
-9.19
-9.98
-10.22
-9.91
-9.25
-8.51
-7.96
-7.73
-7.74
-7.75
-7.45
-6.62
-5.14
-3.01
-0.35
2.64
5.71
8.53
10.79
12.25
12.83
12.61
11.77
10.57
9.24
8.00
7.02
6.34
5.93
5.65
5.31
4.80
4.03
3.05
1.94
0.73
-0.54
-1.84
-3.15
-4.38
-5.45
-6.38
-7.23
-8.10
-9.09
-10.21
-11.36
-12.40
-13.28
-14.02
-14.77
-15.70
-16.88
-18.26
-19.63
-20.70
-21.15
-20.75
-19.40
-17.13
-14.11
-10.59
-6.84
-3.14
0.25
3.18
5.53
7.28
8.49
9.24
9.63
9.77
9.74
9.59
9.40
9.22
9.14
9.12
9.09
8.94
8.58
8.05
7.50
7.11
6.96
6.97
6.89
6.42
5.42
3.91
2.15
0.38
-1.22
-2.61
-3.85
-5.03
-6.18
-7.25
-8.22
-9.12
-10.07
-11.21
-12.63
-14.25
-15.82
-16.98
-17.40
-16.86
-15.37
-13.11
-10.33
-7.27
-4.12
-1.02
1.89
4.46
6.59
8.27
9.62
10.75
11.72
12.47
12.82
12.63
11.89
10.84
9.82
9.13
8.90
9.03
9.28
9.37
9.10
8.35
7.11
5.50
3.68
1.82
0.06
-1.52
-2.90
-4.10
-5.15
-6.07
-6.87
-7.53
-8.07
-8.49
-8.82
-9.11
-9.34
-9.51
-9.60
-9.59
-9.40
-8.98
-8.21
-7.03
-5.40
-3.39
-1.15
1.13
3.25
5.12
6.71
8.09
9.25
10.15
10.67
10.70
10.24
9.41
8.46
7.61
7.07
6.89
7.02
7.33
7.59
7.62
7.31
6.67
5.87
5.11
4.56
4.23
3.96
3.51
2.71
1.55
0.23
-1.01
-2.01
-2.78
-3.50
-4.37
-5.55
-7.01
-8.63
-10.17
-11.45
-12.30
-12.60
-12.28
-11.27
-9.59
-7.34
-4.74
-2.06
0.43
2.52
4.16
5.43
6.45
7.39
8.32
9.21
9.94
10.36
10.37
9.97
9.26
8.43
7.63
6.98
6.52
6.19
5.91
5.63
5.28
4.89
4.46
3.97
3.40
2.72
1.91
0.96
-0.10
-1.26
-2.49
-3.79
-5.16
-6.63
-8.20
-9.89
-11.70
-13.60
-15.52
-17.36
-18.98
-20.25
-21.04
-21.26
-20.84
-19.73
-17.96
-15.62
-12.88
-9.98
-7.17
-4.66
-2.55
-0.81
0.66
1.96
3.16
4.24
5.14
5.81
6.22
6.46
6.61
6.72
6.76
6.67
6.41
6.02
5.58
5.22
4.99
4.81
4.55
4.08
3.39
2.61
1.92
1.43
1.12
0.86
0.44
-0.29
-1.34
-2.62
-3.95
-5.24
-6.46
-7.64
-8.90
-10.31
-11.87
-13.52
-15.10
-16.37
-17.08
-16.98
-15.95
-14.02
-11.41
-8.47
-5.56
-2.98
-0.85
0.85
2.25
3.48
4.63
5.67
6.57
7.25
7.75
8.09
8.35
8.57
8.75
8.84
8.76
8.44
7.84
7.02
6.12
5.31
4.72
4.37
4.15
3.85
3.30
2.41
1.23
-0.11
-1.44
-2.67
-3.75
-4.71
-5.62
-6.54
-7.55
-8.72
-10.09
-11.65
-13.28
-14.81
-15.94
-16.40
-16.00
-14.71
-12.65
-10.09
-7.33
-4.61
-2.09
0.15
2.06
3.63
4.81
5.65
6.20
6.55
6.76
6.85
6.79
6.62
6.41
6.28
6.31
6.49
6.68
6.72
6.49
6.01
5.41
4.83
4.33
3.88
3.34
2.61
1.66
0.51
-0.72
-1.92
-3.02
-3.96
-4.73
-5.33
-5.87
-6.48
-7.38
-8.70
-10.39
-12.19
-13.66
-14.33
-13.86
-12.18
-9.50
-6.24
-2.84
0.33
3.06
5.29
7.00
8.22
8.97
9.30
9.28
9.05
8.76
8.51
8.35
8.25
8.10
7.80
7.29
6.65
6.00
5.49
5.21
5.12
5.07
4.85
4.32
3.44
2.27
0.97
-0.34
-1.55
-2.66
-3.73
-4.87
-6.18
-7.76
-9.54
-11.36
-12.91
-13.84
-13.89
-12.93
-11.04
-8.42
-5.37
-2.19
0.86
3.57
5.79
7.45
8.57
9.26
9.63
9.82
9.94
10.00
10.02
9.96
9.79
9.54
9.21
8.84
8.43
7.97
7.44
6.80
6.01
5.03
3.88
2.55
1.11
-0.37
-1.77
-3.03
-4.12
-5.10
-6.07
-7.14
-8.39
-9.81
-11.32
-12.70
-13.72
-14.10
-13.63
-12.22
-9.96
-7.15
-4.14
-1.31
1.18
3.34
5.35
7.39
9.50
11.53
13.22
14.36
14.92
15.05
15.01
15.02
15.16
15.35
15.41
15.16
14.54
13.54
12.32
11.02
9.79
8.66
7.63
6.65
5.68
4.73
3.81
2.93
2.05
1.03
-0.27
-1.94
-4.01
-6.40
-8.96
-11.52
-13.86
-15.75
-16.96
-17.28
-16.66
-15.16
-13.02
-10.50
-7.87
-5.26
-2.73
-0.26
2.13
4.39
6.44
8.17
9.53
10.45
10.92
10.93
10.52
9.78
8.88
7.98
7.21
6.61
6.11
5.68
5.26
4.86
4.49
4.12
3.70
3.15
2.44
1.56
0.48
-0.82
-2.42
-4.34
-6.47
-8.61
-10.52
-12.02
-13.13
-14.03
-15.01
-16.31
-18.00
-19.92
-21.79
-23.21
-23.82
-23.40
-21.86
-19.33
-16.07
-12.44
-8.81
-5.46
-2.52
0.02
2.26
4.30
6.19
7.91
9.36
10.48
11.21
11.58
11.66
11.55
11.32
11.04
10.75
10.45
10.13
9.79
9.46
9.12
8.75
8.28
7.61
6.69
5.53
4.24
2.98
1.89
1.00
0.23
-0.54
-1.44
-2.53
-3.81
-5.21
-6.66
-8.08
-9.44
-10.66
-11.78
-12.86
-14.01
-15.28
-16.61
-17.75
-18.32
-17.98
-16.55
-14.10
-10.92
-7.42
-3.95
-0.72
2.13
4.55
6.53
8.04
9.14
9.89
10.39
10.72
10.93
11.02
11.01
10.94
10.85
10.78
10.72
10.61
10.41
10.10
9.69
9.19
8.57
7.76
6.68
5.33
3.85
2.47
1.42
0.85
0.73
0.87
1.03
0.97
0.57
-0.18
-1.24
-2.58
-4.21
-6.15
-8.36
-10.65
-12.72
-14.17
-14.66
-13.97
-12.12
-9.34
-6.04
-2.64
0.44
2.97
4.87
6.22
7.18
7.91
8.53
9.09
9.56
9.97
10.30
10.56
10.74
10.77
10.57
10.05
9.22
8.14
6.97
5.86
4.92
4.18
3.60
3.10
2.60
2.02
1.37
0.68
0.04
-0.46
-0.79
-0.98
-1.09
-1.23
-1.48
-1.91
-2.61
-3.70
-5.27
-7.33
-9.71
-12.04
-13.80
-14.51
-13.90
-12.03
-9.28
-6.16
-3.17
-0.59
1.49
3.14
4.45
5.45
6.13
6.46
6.48
6.32
6.17
6.14
6.25
6.45
6.60
6.62
6.46
6.14
5.71
5.24
4.78
4.40
4.12
3.92
3.71
3.36
2.79
1.99
1.02
0.02
-0.91
-1.70
-2.36
-2.94
-3.53
-4.18
-4.99
-5.99
-7.25
-8.81
-10.73
-12.98
-15.44
-17.88
-19.95
-21.24
-21.42
-20.38
-18.22
-15.28
-11.96
-8.59
-5.42
-2.58
-0.11
1.97
3.65
4.94
5.86
6.42
6.64
6.54
6.21
5.77
5.41
5.27
5.37
5.63
5.89
6.05
6.08
6.01
5.84
5.55
5.07
4.36
3.52
2.68
2.00
1.56
1.26
0.87
0.19
-0.90
-2.34
-3.91
-5.41
-6.68
-7.73
-8.65
-9.60
-10.69
-12.01
-13.54
-15.19
-16.76
-17.97
-18.54
-18.25
-17.00
-14.83
-11.96
-8.66
-5.25
-1.99
0.94
3.45
5.51
7.14
8.37
9.22
9.69
9.81
9.66
9.41
9.25
9.32
9.62
10.07
10.46
10.60
10.40
9.90
9.24
8.59
8.08
7.75
7.53
7.25
6.74
5.89
4.75
3.44
2.13
0.92
-0.25
-1.48
-2.87
-4.40
-5.98
-7.54
-9.06
-10.65
-12.42
-14.33
-16.14
-17.40
-17.67
-16.64
-14.34
-11.03
-7.19
-3.30
0.21
3.09
5.24
6.70
7.60
8.07
8.21
8.09
7.76
7.33
6.93
6.70
6.72
6.94
7.19
7.25
6.90
6.08
4.87
3.52
2.35
1.59
1.32
1.36
1.41
1.13
0.35
-0.88
-2.34
-3.71
-4.79
-5.56
-6.15
-6.75
-7.53
-8.52
-9.70
-11.02
-12.40
-13.71
-14.77
-15.26
-14.82
-13.23
-10.42
-6.64
-2.35
1.94
5.72
8.72
10.85
12.18
12.86
13.01
12.73
12.10
11.22
10.29
9.55
9.17
9.21
9.55
9.96
10.24
10.26
10.06
9.71
9.28
8.74
7.98
6.92
5.58
4.07
2.58
1.22
0.03
-1.06
-2.14
-3.33
-4.63
-6.02
-7.45
-8.85
-10.18
-11.49
-12.84
-14.37
-16.14
-18.04
-19.80
-20.96
-21.02
-19.69
-16.96
-13.17
-8.82
-4.44
-0.40
3.17
6.26
8.98
11.39
13.50
15.24
16.52
17.23
17.28
16.64
15.41
13.76
11.95
10.25
8.84
7.83
7.21
6.92
6.86
6.92
6.97
6.85
6.43
5.62
4.43
3.00
1.55
0.27
-0.74
-1.57
-2.40
-3.45
-4.81
-6.42
-8.14
-9.81
-11.43
-13.15
-15.17
-17.57
-20.13
-22.36
-23.62
-23.42
-21.54
-18.19
-13.85
-9.09
-4.41
-0.15
3.54
6.56
8.89
10.49
11.42
11.78
11.75
11.50
11.19
10.89
10.65
10.44
10.27
10.13
9.97
9.73
9.32
8.68
7.84
6.93
6.10
5.47
5.03
4.68
4.30
3.83
3.30
2.79
2.31
1.76
0.98
-0.19
-1.80
-3.70
-5.67
-7.43
-8.78
-9.53
-9.60
-8.94
-7.60
-5.77
-3.70
-1.62
0.27
1.95
3.46
4.88
6.23
7.47
8.48
9.18
9.51
9.50
9.19
8.64
7.91
7.06
6.15
5.33
4.72
4.44
4.53
4.92
5.44
5.87
6.01
5.73
4.98
3.79
2.24
0.46
-1.37
-3.06
-4.45
-5.50
-6.30
-7.05
-7.93
-9.12
-10.66
-12.55
-14.72
-17.01
-19.12
-20.60
-20.96
-19.83
-17.17
-13.34
-8.97
-4.75
-1.07
2.00
4.67
7.18
9.65
11.98
13.98
15.48
16.46
17.01
17.30
17.45
17.50
17.43
17.18
16.77
16.22
15.55
14.75
13.78
12.60
11.21
9.73
8.26
6.90
5.63
4.35
2.90
1.21
-0.69
-2.60
-4.30
-5.63
-6.61
-7.39
-8.22
-9.32
-10.81
-12.67
-14.74
-16.82
-18.62
-19.86
-20.29
-19.71
-18.06
-15.44
-12.06
-8.24
-4.28
-0.40
3.24
6.57
9.49
11.93
13.83
15.16
15.98
16.35
16.37
16.15
15.71
15.08
14.29
13.41
12.51
11.67
10.93
10.30
9.74
9.23
8.73
8.19
7.57
6.80
5.84
4.71
3.48
2.28
1.17
0.20
-0.72
-1.70
-2.87
-4.29
-5.94
-7.70
-9.41
-10.91
-12.11
-13.06
-13.91
-14.88
-16.20
-17.98
-20.14
-22.38
-24.25
-25.24
-24.97
-23.23
-20.14
-16.01
-11.37
-6.78
-2.73
0.52
2.93
4.70
6.12
7.47
8.86
10.22
11.37
12.08
12.20
11.75
10.88
9.79
8.66
7.60
6.69
5.95
5.36
4.91
4.52
4.09
3.49
2.67
1.62
0.50
-0.55
-1.34
-1.82
-1.99
-1.98
-1.90
-1.85
-1.92
-2.13
-2.49
-2.97
-3.50
-3.98
-4.34
-4.60
-4.86
-5.29
-6.09
-7.38
-9.13
-11.14
-13.09
-14.58
-15.22
-14.75
-13.11
-10.42
-7.01
-3.30
0.28
3.43
6.01
8.03
9.57
10.71
11.49
11.91
11.99
11.81
11.47
11.10
10.79
10.59
10.48
10.42
10.34
10.23
10.08
9.90
9.70
9.43
9.02
8.39
7.46
6.25
4.82
3.31
1.89
0.66
-0.33
-1.18
-2.03
-2.99
-4.13
-5.37
-6.56
-7.51
-8.14
-8.46
-8.65
-8.99
-9.73
-10.98
-12.69
-14.61
-16.38
-17.62
-18.01
-17.36
-15.68
-13.09
-9.89
-6.38
-2.88
0.34
3.15
5.46
7.27
8.61
9.53
10.11
10.44
10.64
10.78
10.94
11.06
11.09
10.92
10.53
9.97
9.37
8.90
8.66
8.66
8.78
8.83
8.63
8.03
7.01
5.63
4.04
2.42
0.96
-0.21
-1.03
-1.55
-1.90
-2.26
-2.81
-3.65
-4.78
-6.12
-7.57
-9.08
-10.65
-12.31
-14.12
-16.07
-18.05
-19.86
-21.24
-21.89
-21.54
-20.04
-17.42
-13.90
-9.85
-5.70
-1.81
1.63
4.53
6.96
8.99
10.67
11.97
12.86
13.33
13.43
13.25
12.89
12.40
11.75
10.90
9.83
8.66
7.56
6.74
6.30
6.16
6.13
5.95
5.46
4.65
3.63
2.62
1.74
1.05
0.48
-0.06
-0.67
-1.41
-2.31
-3.37
-4.59
-5.91
-7.22
-8.43
-9.42
-10.21
-10.87
-11.53
-12.34
-13.39
-14.71
-16.23
-17.75
-19.05
-19.80
-19.74
-18.63
-16.49
-13.50
-10.02
-6.48
-3.20
-0.41
1.85
3.64
5.07
6.23
7.12
7.73
8.01
8.00
7.82
7.62
7.58
7.77
8.13
8.47
8.58
8.34
7.77
7.04
6.32
5.68
5.13
4.53
3.77
2.79
1.61
0.32
-0.94
-2.04
-2.87
-3.38
-3.63
-3.71
-3.77
-3.92
-4.23
-4.70
-5.32
-6.05
-6.90
-7.88
-9.01
-10.30
-11.76
-13.42
-15.26
-17.16
-18.90
-20.15
-20.55
-19.87
-18.06
-15.29
-11.87
-8.22
-4.69
-1.53
1.15
3.40
5.27
6.80
7.99
8.83
9.33
9.59
9.80
10.10
10.56
11.09
11.57
11.89
12.06
12.14
12.20
12.22
12.10
11.71
11.01
10.07
9.01
7.94
6.89
5.78
4.56
3.17
1.67
0.16
-1.28
-2.62
-3.89
-5.10
-6.31
-7.51
-8.72
-10.00
-11.41
-13.00
-14.69
-16.31
-17.56
-18.12
-17.70
-16.18
-13.63
-10.31
-6.62
-2.97
0.29
2.93
4.93
6.35
7.34
8.03
8.51
8.82
9.00
9.08
9.11
9.11
9.14
9.22
9.37
9.57
9.74
9.77
9.53
8.94
8.03
6.91
5.75
4.69
3.78
2.96
2.13
1.17
0.07
-1.12
-2.36
-3.62
-4.91
-6.30
-7.80
-9.40
-11.03
-12.68
-14.40
-16.35
-18.64
-21.26
-23.93
-26.16
-27.33
-26.95
-24.85
-21.23
-16.61
-11.63
-6.83
-2.56
1.07
4.11
6.65
8.74
10.38
11.56
12.29
12.63
12.72
12.71
12.69
12.72
12.74
12.69
12.55
12.31
11.99
11.62
11.13
10.42
9.42
8.13
6.63
5.08
3.64
2.40
1.36
0.46
-0.39
-1.28
-2.30
-3.50
-4.89
-6.48
-8.25
-10.13
-12.10
-14.16
-16.34
-18.63
-21.00
-23.29
-25.25
-26.57
-26.90
-26.00
-23.74
-20.25
-15.84
-11.01
-6.27
-2.03
1.53
4.46
6.91
9.07
11.09
12.95
14.60
15.92
16.87
17.47
17.81
17.95
17.94
17.74
17.33
16.65
15.73
14.62
13.38
12.05
10.62
9.08
7.42
5.70
4.03
2.48
1.10
-0.11
-1.19
-2.21
-3.21
-4.23
-5.31
-6.50
-7.86
-9.46
-11.42
-13.87
-16.95
-20.69
-24.95
-29.33
-33.30
-36.19
-37.41
-36.57
-33.58
-28.65
-22.31
-15.21
-8.03
-1.33
4.53
9.39
13.28
16.26
18.49
20.16
21.49
22.70
23.94
25.23
26.42
27.35
27.87
27.99
27.78
27.35
26.73
25.86
24.64
22.98
20.91
18.51
15.92
13.23
10.53
7.86
5.23
2.68
0.16
-2.38
-5.00
-7.64
-10.21
-12.51
-14.40
-15.86
-17.13
-18.57
-20.59
-23.44
-27.02
-30.84
-34.12
-35.93
-35.54
-32.59
-27.26
-20.17
-12.25
-4.40
2.67
8.61
13.37
17.09
19.90
21.88
23.03
23.33
22.87
21.84
20.57
19.43
18.70
18.48
18.71
19.18
19.56
19.60
19.12
18.10
16.66
15.01
13.38
11.96
10.87
10.07
9.49
8.93
8.25
7.29
6.01
4.42
2.62
0.74
-1.09
-2.83
-4.56
-6.41
-8.57
-11.21
-14.38
-17.95
-21.54
-24.54
-26.28
-26.21
-24.07
-20.03
-14.63
-8.63
-2.75
2.47
6.78
10.20
12.88
15.01
16.72
18.07
19.05
19.66
19.94
19.95
19.81
19.59
19.30
18.88
18.26
17.39
16.29
15.03
13.66
12.16
10.39
8.28
5.78
3.07
0.46
-1.66
-3.00
-3.46
-3.19
-2.55
-1.94
-1.76
-2.23
-3.43
-5.29
-7.62
-10.19
-12.77
-15.22
-17.51
-19.76
-22.10
-24.60
-27.11
-29.25
-30.43
-30.07
-27.87
-23.88
-18.65
-12.90
-7.35
-2.44
1.75
5.41
8.84
12.18
15.37
18.12
20.17
21.37
21.82
21.78
21.56
21.31
21.03
20.61
19.93
19.00
17.92
16.87
15.95
15.14
14.34
13.38
12.14
10.58
8.77
6.83
4.93
3.18
1.63
0.23
-1.16
-2.68
-4.44
-6.43
-8.56
-10.67
-12.60
-14.25
-15.64
-16.86
-18.10
-19.58
-21.46
-23.81
-26.48
-29.07
-31.06
-31.86
-31.03
-28.38
-24.13
-18.72
-12.80
-6.94
-1.59
3.02
6.87
10.05
12.69
14.89
16.71
18.15
19.18
19.76
19.90
19.64
19.06
18.29
17.43
16.56
15.75
15.05
14.44
13.89
13.31
12.57
11.60
10.36
8.95
7.49
6.16
5.03
4.11
3.29
2.42
1.32
-0.09
-1.83
-3.76
-5.70
-7.47
-8.95
-10.18
-11.30
-12.53
-14.11
-16.15
-18.65
-21.45
-24.24
-26.55
-27.84
-27.57
-25.40
-21.30
-15.64
-9.13
-2.60
3.19
7.80
11.12
13.36
14.83
15.81
16.47
16.85
16.94
16.79
16.50
16.20
16.03
15.98
15.97
15.88
15.58
15.00
14.14
13.01
11.64
10.10
8.46
6.83
5.29
3.89
2.54
1.17
-0.28
-1.77
-3.20
-4.46
-5.51
-6.45
-7.47
-8.69
-10.18
-11.92
-13.89
-16.09
-18.49
-20.99
-23.25
-24.74
-24.87
-23.22
-19.72
-14.76
-9.01
-3.23
1.97
6.29
9.66
12.16
13.95
15.18
15.94
16.31
16.36
16.09
15.55
14.82
14.03
13.36
12.96
12.84
12.88
12.86
12.58
11.95
11.01
9.87
8.69
7.50
6.28
4.94
3.41
1.66
-0.21
-2.11
-3.91
-5.52
-6.95
-8.24
-9.47
-10.76
-12.21
-13.94
-16.00
-18.37
-20.84
-23.07
-24.58
-24.86
-23.59
-20.73
-16.53
-11.51
-6.31
-1.49
2.57
5.71
8.00
9.62
10.78
11.68
12.39
12.87
13.05
12.86
12.30
11.48
10.57
9.73
9.03
8.45
7.90
7.27
6.53
5.72
4.89
4.10
3.31
2.43
1.41
0.24
-1.00
-2.24
-3.41
-4.52
-5.62
-6.77
-7.98
-9.26
-10.58
-11.99
-13.58
-15.48
-17.66
-19.90
-21.78
-22.73
-22.31
-20.36
-17.08
-12.94
-8.49
-4.18
-0.24
3.26
6.36
9.05
11.24
12.86
13.85
14.20
14.03
13.44
12.62
11.72
10.92
10.38
10.13
10.11
10.13
10.00
9.57
8.82
7.83
6.71
5.49
4.17
2.68
0.99
-0.84
-2.68
-4.39
-5.87
-7.08
-8.03
-8.79
-9.47
-10.23
-11.29
-12.80
-14.81
-17.15
-19.43
-21.16
-21.86
-21.23
-19.23
-16.12
-12.28
-8.17
-4.11
-0.35
3.02
5.94
8.35
10.20
11.43
12.03
12.11
11.83
11.39
10.95
10.65
10.55
10.65
10.90
11.18
11.27
10.99
10.19
8.89
7.22
5.32
3.32
1.24
-0.97
-3.30
-5.64
-7.79
-9.49
-10.61
-11.22
-11.58
-12.03
-12.88
-14.31
-16.27
-18.57
-20.91
-22.93
-24.25
-24.52
-23.46
-21.00
-17.32
-12.85
-8.17
-3.83
-0.20
2.64
4.81
6.54
8.02
9.34
10.50
11.49
12.26
12.84
13.23
13.46
13.53
13.45
13.20
12.76
12.07
11.10
9.86
8.43
6.96
5.59
4.39
3.32
2.28
1.16
-0.06
-1.31
-2.50
-3.56
-4.53
-5.53
-6.67
-7.97
-9.29
-10.37
-10.94
-10.81
-9.91
-8.30
-6.13
-3.58
-0.83
1.96
4.64
7.09
9.19
10.83
11.91
12.40
12.36
11.95
11.41
10.96
10.66
10.39
9.99
9.30
8.37
7.38
6.57
6.04
5.67
5.22
4.45
3.25
1.76
0.20
-1.21
-2.37
-3.30
-4.13
-4.94
-5.82
-6.85
-8.08
-9.55
-11.24
-12.99
-14.45
-15.25
-15.06
-13.73
-11.34
-8.12
-4.44
-0.63
3.02
6.26
8.95
11.00
12.43
13.32
13.80
14.04
14.08
13.94
13.59
13.00
12.18
11.22
10.18
9.16
8.21
7.36
6.65
6.08
5.64
5.26
4.83
4.22
3.32
2.06
0.45
-1.40
-3.33
-5.17
-6.80
-8.17
-9.38
-10.62
-12.06
-13.77
-15.69
-17.57
-19.07
-19.82
-19.54
-18.13
-15.62
-12.29
-8.52
-4.72
-1.24
1.76
4.31
6.50
8.46
10.17
11.57
12.54
13.03
13.11
12.95
12.73
12.51
12.28
11.96
11.45
10.73
9.88
8.96
8.04
7.15
6.25
5.24
4.05
2.66
1.06
-0.64
-2.37
-3.99
-5.42
-6.64
-7.72
-8.76
-9.90
-11.26
-12.86
-14.65
-16.50
-18.24
-19.70
-20.69
-21.08
-20.70
-19.46
-17.34
-14.46
-11.07
-7.46
-3.93
-0.69
2.18
4.70
6.86
8.64
9.93
10.64
10.74
10.34
9.60
8.77
8.02
7.48
7.18
7.04
6.98
6.85
6.58
6.12
5.49
4.72
3.85
2.92
1.92
0.86
-0.26
-1.42
-2.61
-3.78
-4.90
-5.94
-6.83
-7.55
-8.10
-8.53
-8.91
-9.39
-10.10
-11.12
-12.46
-13.95
-15.30
-16.13
-16.14
-15.21
-13.47
-11.21
-8.77
-6.39
-4.14
-1.96
0.20
2.31
4.27
5.91
7.11
7.86
8.23
8.36
8.36
8.35
8.38
8.49
8.68
8.91
9.09
9.14
9.02
8.71
8.29
7.78
7.20
6.47
5.51
4.29
2.89
1.44
0.13
-0.98
-1.89
-2.75
-3.68
-4.80
-6.17
-7.77
-9.56
-11.42
-13.17
-14.50
-15.06
-14.56
-12.91
-10.25
-6.94
-3.45
-0.20
2.54
4.72
6.41
7.72
8.77
9.58
10.09
10.27
10.09
9.64
9.03
8.45
7.99
7.68
7.45
7.17
6.77
6.25
5.74
5.36
5.21
5.17
5.03
4.52
3.48
1.94
0.16
-1.53
-2.87
-3.76
-4.27
-4.59
-4.95
-5.54
-6.47
-7.77
-9.37
-11.13
-12.76
-13.94
-14.36
-13.82
-12.32
-10.02
-7.26
-4.39
-1.69
0.68
2.69
4.40
5.89
7.22
8.37
9.26
9.83
10.10
10.17
10.19
10.32
10.60
10.98
11.32
11.49
11.41
11.05
10.43
9.60
8.61
7.55
6.52
5.59
4.77
3.99
3.08
1.87
0.31
-1.54
-3.45
-5.21
-6.72
-8.00
-9.20
-10.48
-11.97
-13.67
-15.48
-17.23
-18.70
-19.65
-19.91
-19.32
-17.88
-15.69
-12.98
-10.04
-7.10
-4.37
-1.94
0.16
1.90
3.32
4.44
5.30
5.96
6.45
6.74
6.80
6.58
6.11
5.46
4.82
4.30
3.95
3.75
3.58
3.33
2.95
2.44
1.85
1.20
0.48
-0.34
-1.24
-2.20
-3.16
-4.08
-4.92
-5.67
-6.30
-6.79
-7.15
-7.45
-7.85
-8.48
-9.40
-10.50
-11.57
-12.35
-12.60
-12.26
-11.32
-9.91
-8.21
-6.39
-4.62
-3.00
-1.62
-0.43
0.63
1.66
2.75
3.88
5.00
6.04
6.95
7.66
8.14
8.39
8.38
8.15
7.71
7.10
6.35
5.48
4.53
3.54
2.58
1.68
0.88
0.16
-0.48
-1.06
-1.56
-1.99
-2.36
-2.72
-3.18
-3.81
-4.68
-5.79
-7.05
-8.26
-9.20
-9.57
-9.15
-7.84
-5.76
-3.20
-0.59
1.72
3.59
5.02
6.18
7.18
8.04
8.69
9.04
9.12
9.06
9.02
9.12
9.40
9.80
10.20
10.49
10.60
10.46
10.05
9.36
8.43
7.37
6.33
5.41
4.63
3.94
3.20
2.30
1.19
-0.07
-1.42
-2.75
-4.05
-5.36
-6.76
-8.31
-10.00
-11.70
-13.17
-14.15
-14.37
-13.67
-12.03
-9.63
-6.77
-3.79
-1.01
1.41
3.44
5.13
6.57
7.80
8.77
9.39
9.57
9.29
8.60
7.59
6.41
5.22
4.16
3.29
2.64
2.14
1.67
1.11
0.41
-0.39
-1.20
-1.91
-2.49
-2.92
-3.29
-3.66
-4.07
-4.53
-5.06
-5.69
-6.49
-7.56
-8.93
-10.56
-12.32
-14.00
-15.37
-16.19
-16.31
-15.68
-14.33
-12.39
-10.04
-7.49
-4.91
-2.43
-0.13
1.97
3.85
5.47
6.80
7.82
8.53
8.93
9.10
9.10
9.02
8.87
8.64
8.29
7.80
7.19
6.55
5.99
5.55
5.25
4.97
4.59
3.96
3.01
1.74
0.27
-1.23
-2.59
-3.69
-4.47
-5.00
-5.45
-6.05
-7.04
-8.55
-10.55
-12.82
-14.98
-16.61
-17.35
-17.03
-15.66
-13.44
-10.66
-7.59
-4.50
-1.58
1.00
3.11
4.70
5.81
6.58
7.16
7.64
8.04
8.28
8.27
8.01
7.57
7.15
6.91
6.90
7.01
7.06
6.84
6.25
5.36
4.32
3.28
2.30
1.32
0.30
-0.78
-1.87
-2.86
-3.67
-4.28
-4.78
-5.32
-6.04
-7.05
-8.37
-9.92
-11.57
-13.05
-14.08
-14.36
-13.73
-12.16
-9.84
-7.08
-4.23
-1.59
0.67
2.49
3.92
5.06
6.00
6.79
7.50
8.19
8.91
9.69
10.45
11.05
11.30
11.06
10.30
9.16
7.88
6.68
5.70
4.92
4.18
3.35
2.37
1.33
0.37
-0.36
-0.82
-1.11
-1.41
-1.93
-2.80
-4.09
-5.73
-7.49
-9.08
-10.17
-10.49
-9.90
-8.46
-6.36
-3.88
-1.27
1.26
3.62
5.72
7.54
8.98
10.01
10.61
10.84
10.76
10.47
10.04
9.54
9.00
8.51
8.14
7.94
7.91
7.95
7.89
7.56
6.83
5.70
4.23
2.56
0.89
-0.61
-1.76
-2.48
-2.78
-2.89
-3.12
-3.86
-5.36
-7.62
-10.30
-12.84
-14.67
-15.40
-14.95
-13.49
-11.38
-8.92
-6.36
-3.81
-1.35
0.92
2.93
4.61
5.93
6.90
7.61
8.15
8.58
8.94
9.27
9.57
9.79
9.90
9.83
9.55
9.07
8.44
7.69
6.83
5.89
4.82
3.64
2.36
1.05
-0.23
-1.36
-2.27
-2.94
-3.42
-3.82
-4.29
-5.01
-6.06
-7.48
-9.15
-10.88
-12.40
-13.44
-13.79
-13.36
-12.17
-10.37
-8.13
-5.66
-3.13
-0.65
1.71
3.92
5.92
7.63
8.96
9.82
10.19
10.11
9.73
9.18
8.61
8.07
7.55
7.02
6.45
5.84
5.23
4.61
3.96
3.23
2.39
1.42
0.38
-0.65
-1.60
-2.40
-3.04
-3.55
-4.00
-4.49
-5.12
-5.97
-7.11
-8.56
-10.25
-12.06
-13.74
-15.04
-15.68
-15.46
-14.27
-12.17
-9.35
-6.09
-2.70
0.50
3.34
5.75
7.71
9.25
10.38
11.05
11.20
10.84
10.07
9.06
8.03
7.10
6.33
5.69
5.11
4.53
3.93
3.33
2.74
2.14
1.47
0.69
-0.23
-1.25
-2.24
-3.04
-3.57
-3.86
-4.06
-4.41
-5.07
-6.06
-7.21
-8.34
-9.32
-10.19
-11.10
-12.19
-13.42
-14.52
-15.10
-14.77
-13.35
-10.89
-7.70
-4.21
-0.85
2.06
4.32
5.90
6.84
7.28
7.39
7.35
7.35
7.53
7.90
8.44
8.96
9.31
9.34
8.98
8.32
7.54
6.79
6.18
5.72
5.31
4.84
4.18
3.30
2.24
1.07
-0.10
-1.19
-2.15
-3.02
-3.91
-4.94
-6.26
-7.92
-9.78
-11.50
-12.63
-12.75
-11.64
-9.38
-6.31
-2.92
0.35
3.18
5.46
7.18
8.39
9.14
9.49
9.58
9.56
9.62
9.84
10.17
10.44
10.45
10.05
9.24
8.21
7.19
6.38
5.78
5.25
4.57
3.57
2.26
0.80
-0.57
-1.63
-2.34
-2.76
-3.08
-3.48
-4.09
-4.97
-6.14
-7.60
-9.27
-10.98
-12.44
-13.30
-13.22
-12.06
-9.87
-6.97
-3.80
-0.78
1.85
4.03
5.91
7.66
9.40
11.12
12.65
13.83
14.52
14.69
14.43
13.86
13.10
12.21
11.21
10.10
8.89
7.61
6.32
5.09
3.90
2.74
1.52
0.21
-1.19
-2.61
-3.91
-4.99
-5.79
-6.39
-6.93
-7.60
-8.55
-9.86
-11.44
-13.08
-14.51
-15.40
-15.57
-14.95
-13.59
-11.66
-9.39
-6.98
-4.60
-2.36
-0.33
1.46
3.00
4.33
5.45
6.37
7.03
7.41
7.46
7.26
6.91
6.51
6.13
5.77
5.33
4.73
3.91
2.93
1.92
1.02
0.25
-0.45
-1.23
-2.23
-3.48
-4.88
-6.21
-7.26
-7.91
-8.20
-8.32
-8.49
-8.92
-9.69
-10.76
-12.00
-13.21
-14.19
-14.71
-14.63
-13.84
-12.37
-10.34
-7.99
-5.55
-3.23
-1.17
0.60
2.08
3.27
4.20
4.93
5.55
6.14
6.82
7.61
8.48
9.35
10.10
10.60
10.78
10.60
10.11
9.40
8.59
7.77
7.00
6.24
5.45
4.54
3.50
2.37
1.25
0.23
-0.63
-1.38
-2.15
-3.07
-4.29
-5.80
-7.45
-8.97
-10.05
-10.46
-10.12
-9.08
-7.55
-5.76
-3.93
-2.22
-0.71
0.65
1.93
3.23
4.57
5.94
7.23
8.34
9.21
9.83
10.26
10.51
10.58
10.42
9.98
9.25
8.27
7.11
5.86
4.58
3.29
2.02
0.80
-0.33
-1.35
-2.24
-3.02
-3.73
-4.39
-5.02
-5.63
-6.24
-6.91
-7.70
-8.70
-9.90
-11.23
-12.50
-13.50
-14.01
-13.90
-13.10
-11.66
-9.63
-7.15
-4.39
-1.59
0.98
3.12
4.74
5.91
6.75
7.44
8.03
8.51
8.81
8.91
8.85
8.72
8.59
8.47
8.32
8.04
7.61
7.06
6.46
5.87
5.34
4.82
4.26
3.56
2.66
1.58
0.44
-0.61
-1.41
-1.91
-2.20
-2.47
-2.92
-3.68
-4.72
-5.92
-7.11
-8.12
-8.81
-9.07
-8.82
-7.99
-6.63
-4.84
-2.82
-0.81
1.02
2.58
3.87
4.93
5.80
6.49
6.95
7.13
6.98
6.54
5.92
5.32
4.87
4.66
4.62
4.60
4.45
4.08
3.53
2.92
2.42
2.10
1.93
1.83
1.68
1.41
0.99
0.49
-0.03
-0.52
-0.99
-1.52
-2.22
-3.21
-4.55
-6.20
-8.08
-10.02
-11.83
-13.29
-14.21
-14.45
-13.88
-12.53
-10.51
-8.08
-5.56
-3.23
-1.27
0.30
1.58
2.67
3.63
4.39
4.91
5.13
5.13
5.06
5.04
5.11
5.17
5.10
4.79
4.24
3.52
2.72
1.90
1.07
0.21
-0.64
-1.40
-1.98
-2.35
-2.54
-2.66
-2.83
-3.08
-3.39
-3.69
-3.96
-4.27
-4.77
-5.63
-6.94
-8.61
-10.38
-11.87
-12.72
-12.65
-11.64
-9.84
-7.54
-5.09
-2.77
-0.74
0.97
2.31
3.26
3.78
3.82
3.44
2.80
2.17
1.81
1.90
2.45
3.31
4.26
5.10
5.76
6.22
6.54
6.74
6.80
6.67
6.28
5.65
4.84
3.95
3.04
2.14
1.22
0.23
-0.85
-2.02
-3.29
-4.64
-6.04
-7.51
-8.99
-10.37
-11.44
-11.96
-11.76
-10.74
-9.02
-6.85
-4.57
-2.49
-0.78
0.50
1.41
2.07
2.53
2.83
2.98
2.98
2.90
2.85
2.90
3.06
3.32
3.58
3.72
3.67
3.38
2.92
2.37
1.85
1.42
1.07
0.71
0.25
-0.35
-1.06
-1.82
-2.64
-3.58
-4.72
-6.08
-7.54
-8.88
-9.80
-10.12
-9.78
-8.91
-7.68
-6.23
-4.67
-3.05
-1.40
0.19
1.60
2.74
3.54
4.06
4.43
4.80
5.27
5.89
6.59
7.22
7.64
7.75
7.52
6.99
6.26
5.49
4.80
4.27
3.88
3.51
3.03
2.31
1.34
0.20
-1.02
-2.20
-3.31
-4.39
-5.48
-6.62
-7.76
-8.81
-9.66
-10.20
-10.34
-10.01
-9.15
-7.75
-5.87
-3.63
-1.25
1.08
3.21
5.05
6.62
8.01
9.25
10.37
11.30
11.98
12.35
12.40
12.23
11.91
11.53
11.11
10.61
10.00
9.22
8.29
7.26
6.14
4.95
3.65
2.21
0.62
-1.03
-2.65
-4.10
-5.36
-6.50
-7.73
-9.24
-11.18
-13.48
-15.89
-18.01
-19.38
-19.64
-18.60
-16.37
-13.22
-9.61
-5.99
-2.71
0.08
2.39
4.32
5.97
7.39
8.52
9.32
9.77
9.95
9.93
9.84
9.72
9.65
9.65
9.75
9.92
10.08
10.07
9.78
9.09
7.99
6.50
4.70
2.69
0.57
-1.47
-3.26
-4.70
-5.76
-6.59
-7.39
-8.37
-9.63
-11.15
-12.80
-14.45
-16.00
-17.36
-18.42
-19.05
-19.08
-18.40
-17.00
-15.00
-12.67
-10.26
-7.99
-5.93
-4.01
-2.13
-0.22
1.71
3.54
5.14
6.39
7.27
7.80
8.10
8.23
8.24
8.11
7.78
7.16
6.23
5.05
3.73
2.38
1.07
-0.19
-1.47
-2.78
-4.07
-5.18
-5.90
-6.15
-5.98
-5.60
-5.28
-5.25
-5.62
-6.40
-7.54
-9.00
-10.70
-12.49
-14.09
-15.18
-15.46
-14.79
-13.27
-11.18
-8.85
-6.57
-4.48
-2.57
-0.80
0.91
2.56
4.14
5.62
7.02
8.41
9.89
11.54
13.41
15.45
17.50
19.33
20.74
21.58
21.86
21.71
21.35
20.94
20.54
20.12
19.54
18.72
17.67
16.45
15.19
13.91
12.51
10.81
8.63
5.90
2.77
-0.45
-3.36
-5.60
-6.96
-7.41
-7.08
-6.18
-4.94
-3.57
-2.20
-0.88
0.39
1.60
2.79
3.93
4.94
5.72
6.20
6.41
6.46
6.56
6.84
7.39
8.15
8.95
9.60
9.93
9.88
9.44
8.66
7.59
6.26
4.75
3.15
1.57
0.11
-1.16
-2.26
-3.30
-4.45
-5.96
-8.00
-10.64
-13.73
-16.90
-19.68
-21.55
-22.14
-21.31
-19.17
-16.02
-12.28
-8.35
-4.59
-1.26
1.52
3.72
5.40
6.67
7.61
8.26
8.66
8.80
8.76
8.62
8.50
8.41
8.32
8.14
7.80
7.33
6.84
6.41
6.10
5.80
5.38
4.69
3.68
2.44
1.12
-0.18
-1.37
-2.50
-3.58
-4.66
-5.74
-6.83
-7.99
-9.27
-10.66
-12.05
-13.23
-13.89
-13.78
-12.77
-10.86
-8.25
-5.20
-2.02
1.05
3.82
6.23
8.28
10.01
11.46
12.60
13.39
13.78
13.77
13.45
12.98
12.47
11.98
11.48
10.87
10.07
9.07
7.97
6.92
6.06
5.42
4.93
4.38
3.59
2.50
1.17
-0.23
-1.53
-2.66
-3.67
-4.67
-5.77
-6.95
-8.15
-9.27
-10.29
-11.30
-12.37
-13.48
-14.44
-14.92
-14.60
-13.30
-11.11
-8.33
-5.37
-2.59
-0.18
1.85
3.57
5.08
6.43
7.56
8.41
8.85
8.84
8.43
7.80
7.20
6.88
6.99
7.51
8.25
8.96
9.41
9.50
9.28
8.81
8.15
7.29
6.17
4.79
3.24
1.68
0.31
-0.73
-1.41
-1.80
-2.07
-2.35
-2.78
-3.46
-4.43
-5.68
-7.14
-8.63
-9.93
-10.74
-10.82
-10.03
-8.37
-6.02
-3.28
-0.42
2.33
4.85
7.11
9.08
10.73
11.98
12.77
13.10
13.01
12.56
11.86
10.97
10.00
9.06
8.26
7.66
7.26
6.95
6.61
6.12
5.43
4.54
3.47
2.19
0.66
-1.11
-3.04
-4.96
-6.68
-8.02
-8.93
-9.46
-9.79
-10.16
-10.78
-11.81
-13.25
-15.01
-16.83
-18.38
-19.34
-19.43
-18.55
-16.76
-14.25
-11.28
-8.12
-5.00
-2.15
0.26
2.10
3.30
3.93
4.13
4.09
3.98
3.86
3.78
3.72
3.70
3.77
3.96
4.31
4.79
5.30
5.76
6.12
6.36
6.47
6.44
6.24
5.84
5.19
4.25
3.01
1.54
-0.02
-1.51
-2.80
-3.81
-4.67
-5.57
-6.77
-8.40
-10.36
-12.32
-13.79
-14.32
-13.64
-11.80
-9.10
-5.99
-2.90
-0.15
2.11
3.83
5.06
5.87
6.39
6.74
7.02
7.27
7.45
7.54
7.50
7.38
7.25
7.17
7.14
7.08
6.93
6.65
6.27
5.81
5.23
4.46
3.39
2.02
0.47
-1.05
-2.36
-3.39
-4.29
-5.26
-6.50
-8.06
-9.78
-11.45
-12.85
-13.86
-14.45
-14.52
-13.95
-12.61
-10.48
-7.75
-4.80
-2.05
0.18
1.84
3.04
3.99
4.82
5.54
6.09
6.43
6.60
6.72
6.90
7.13
7.32
7.31
6.93
6.12
4.95
3.54
2.10
0.80
-0.25
-1.05
-1.66
-2.25
-2.95
-3.84
-4.90
-6.06
-7.22
-8.36
-9.50
-10.73
-12.13
-13.71
-15.32
-16.73
-17.60
-17.67
-16.79
-15.01
-12.53
-9.68
-6.78
-4.03
-1.56
0.65
2.58
4.17
5.36
6.08
6.32
6.19
5.87
5.55
5.31
5.13
4.93
4.60
4.09
3.39
2.53
1.53
0.43
-0.76
-1.98
-3.15
-4.16
-4.93
-5.47
-5.80
-6.01
-6.16
-6.27
-6.37
-6.49
-6.69
-6.98
-7.31
-7.53
-7.38
-6.62
-5.14
-2.98
-0.39
2.30
4.81
6.92
8.57
9.78
10.62
11.13
11.33
11.21
10.82
10.20
9.44
8.59
7.66
6.64
5.57
4.54
3.72
3.29
3.35
3.82
4.45
4.85
4.68
3.76
2.10
-0.06
-2.37
-4.45
-6.04
-7.05
-7.59
-7.91
-8.30
-9.02
-10.14
-11.54
-12.90
-13.77
-13.78
-12.71
-10.64
-7.87
-4.85
-2.00
0.40
2.29
3.73
4.90
5.89
6.75
7.45
7.98
8.32
8.49
8.51
8.37
8.09
7.69
7.20
6.67
6.17
5.73
5.36
5.03
4.66
4.17
3.48
2.57
1.49
0.42
-0.47
-1.01
-1.20
-1.14
-1.07
-1.19
-1.61
-2.29
-3.00
-3.52
-3.58
-3.06
-1.93
-0.25
1.85
4.15
6.43
8.48
10.14
11.32
12.03
12.29
12.17
11.72
11.05
10.22
9.31
8.38
7.47
6.61
5.82
5.10
4.45
3.86
3.33
2.83
2.35
1.89
1.39
0.82
0.13
-0.69
-1.59
-2.48
-3.32
-4.08
-4.82
-5.64
-6.65
-7.87
-9.28
-10.75
-12.09
-13.03
-13.32
-12.73
-11.20
-8.90
-6.14
-3.35
-0.88
1.11
2.64
3.88
4.98
6.01
6.87
7.40
7.53
7.27
6.81
6.37
6.14
6.16
6.33
6.45
6.27
5.68
4.66
3.35
1.96
0.69
-0.34
-1.11
-1.69
-2.22
-2.79
-3.47
-4.24
-5.01
-5.69
-6.16
-6.32
-6.07
-5.36
-4.19
-2.67
-0.97
0.72
2.29
3.73
5.08
6.41
7.67
8.73
9.35
9.32
8.56
7.15
5.30
3.25
1.28
-0.43
-1.76
-2.64
-3.11
-3.30
-3.42
-3.68
-4.23
-5.04
-6.01
-6.93
-7.70
-8.33
-8.92
-9.58
-10.36
-11.16
-11.80
-12.07
-11.85
-11.10
-9.83
-8.10
-5.99
-3.62
-1.14
1.27
3.41
5.18
6.59
7.69
8.55
9.19
9.58
9.65
9.40
8.89
8.21
7.49
6.79
6.10
5.39
4.59
3.72
2.79
1.86
0.94
0.05
-0.88
-1.89
-3.03
-4.25
-5.49
-6.64
-7.64
-8.51
-9.29
-9.99
-10.54
-10.76
-10.42
-9.38
-7.65
-5.40
-2.91
-0.46
1.77
3.65
5.14
6.21
6.87
7.16
7.21
7.21
7.36
7.83
8.61
9.60
10.56
11.24
11.46
11.11
10.24
8.98
7.47
5.86
4.24
2.66
1.12
-0.38
-1.87
-3.42
-5.03
-6.73
-8.40
-9.87
-10.93
-11.34
-10.98
-9.84
-8.04
-5.78
-3.33
-0.94
1.18
2.90
4.20
5.14
5.84
6.36
6.73
6.94
6.95
6.78
6.49
6.13
5.73
5.27
4.70
4.01
3.23
2.46
1.81
1.33
1.00
0.68
0.19
-0.62
-1.81
-3.34
-5.06
-6.79
-8.36
-9.66
-10.67
-11.41
-11.87
-11.97
-11.59
-10.63
-9.10
-7.14
-4.94
-2.69
-0.48
1.66
3.68
5.45
6.80
7.51
7.53
6.94
5.96
4.82
3.69
2.64
1.64
0.61
-0.50
-1.74
-3.11
-4.55
-5.97
-7.28
-8.38
-9.25
-9.92
-10.45
-10.88
-11.19
-11.25
-10.91
-10.05
-8.65
-6.76
-4.52
-2.09
0.39
2.82
5.14
7.32
9.36
11.23
12.91
14.33
15.43
16.23
16.80
17.23
17.60
17.88
17.95
17.60
16.64
15.01
12.85
10.46
8.17
6.20
4.62
3.33
2.18
1.12
0.17
-0.60
-1.11
-1.40
-1.56
-1.71
-1.93
-2.27
-2.75
-3.42
-4.36
-5.61
-7.16
-8.90
-10.70
-12.41
-14.01
-15.47
-16.77
-17.80
-18.38
-18.33
-17.56
-16.13
-14.26
-12.24
-10.31
-8.58
-7.02
-5.51
-3.90
-2.13
-0.21
1.75
3.60
5.18
6.38
7.13
7.45
7.45
7.23
6.90
6.51
6.00
5.32
4.41
3.28
1.96
0.55
-0.90
-2.31
-3.60
-4.68
-5.48
-5.91
-6.01
-5.87
-5.64
-5.52
-5.63
-6.00
-6.58
-7.15
-7.48
-7.36
-6.66
-5.42
-3.80
-2.06
-0.41
1.00
2.18
3.18
4.01
4.61
4.85
4.64
4.04
3.29
2.73
2.61
2.98
3.63
4.16
4.27
3.86
3.10
2.26
1.64
1.30
1.16
1.04
0.80
0.40
-0.14
-0.77
-1.50
-2.37
-3.43
-4.63
-5.85
-6.90
-7.57
-7.70
-7.26
-6.28
-4.91
-3.36
-1.79
-0.35
0.87
1.88
2.70
3.38
3.99
4.55
5.04
5.41
5.61
5.61
5.44
5.16
4.90
4.73
4.66
4.65
4.56
4.31
3.82
3.11
2.22
1.29
0.41
-0.30
-0.80
-1.12
-1.34
-1.59
-2.01
-2.72
-3.84
-5.39
-7.26
-9.23
-10.94
-12.02
-12.23
-11.51
-10.07
-8.25
-6.40
-4.77
-3.38
-2.14
-0.92
0.32
1.53
2.58
3.38
3.90
4.22
4.47
4.82
5.36
6.06
6.78
7.35
7.64
7.58
7.21
6.61
5.86
5.00
4.06
3.05
2.01
1.03
0.18
-0.50
-1.02
-1.46
-1.91
-2.43
-3.09
-3.89
-4.77
-5.64
-6.32
-6.62
-6.37
-5.53
-4.13
-2.37
-0.51
1.22
2.69
3.88
4.91
5.90
6.92
7.95
8.89
9.62
10.04
10.12
9.89
9.39
8.70
7.86
6.96
6.09
5.33
4.73
4.27
3.89
3.46
2.85
1.95
0.75
-0.69
-2.21
-3.62
-4.78
-5.64
-6.33
-7.01
-7.89
-9.06
-10.50
-12.10
-13.70
-15.12
-16.18
-16.69
-16.50
-15.50
-13.70
-11.27
-8.50
-5.75
-3.31
-1.37
0.05
1.11
2.00
2.90
3.87
4.82
5.61
6.12
6.30
6.21
5.96
5.57
5.02
4.24
3.22
2.05
0.90
-0.03
-0.68
-1.11
-1.49
-1.98
-2.63
-3.34
-3.96
-4.41
-4.69
-4.98
-5.42
-6.15
-7.15
-8.36
-9.66
-10.93
-12.03
-12.80
-13.03
-12.52
-11.19
-9.13
-6.61
-3.95
-1.51
0.52
2.09
3.26
4.16
4.92
5.63
6.32
6.96
7.51
7.91
8.13
8.19
8.20
8.23
8.36
8.57
8.77
8.83
8.60
8.03
7.13
6.01
4.78
3.54
2.38
1.28
0.20
-0.93
-2.18
-3.57
-5.09
-6.68
-8.21
-9.51
-10.43
-10.77
-10.42
-9.34
-7.59
-5.37
-2.95
-0.63
1.37
2.93
4.05
4.82
5.31
5.60
5.67
5.52
5.15
4.67
4.19
3.86
3.75
3.83
4.01
4.15
4.12
3.87
3.37
2.68
1.89
1.05
0.26
-0.49
-1.20
-1.94
-2.77
-3.72
-4.82
-6.06
-7.40
-8.75
-9.95
-10.75
-10.85
-10.02
-8.18
-5.51
-2.32
0.96
4.00
6.60
8.72
10.45
11.89
13.13
14.21
15.11
15.75
16.05
15.89
15.23
14.11
12.67
11.14
9.74
8.60
7.71
6.93
6.06
4.94
3.52
1.83
0.02
-1.73
-3.30
-4.65
-5.80
-6.82
-7.83
-8.91
-10.16
-11.60
-13.20
-14.75
-15.91
-16.31
-15.65
-13.83
-11.02
-7.60
-4.06
-0.83
1.81
3.76
5.08
5.94
6.56
7.15
7.85
8.70
9.60
10.37
10.78
10.73
10.25
9.48
8.65
7.88
7.24
6.65
6.04
5.32
4.45
3.41
2.19
0.77
-0.82
-2.46
-4.02
-5.41
-6.62
-7.79
-9.12
-10.75
-12.64
-14.60
-16.28
-17.36
-17.60
-16.88
-15.24
-12.84
-9.94
-6.81
-3.74
-0.94
1.47
3.47
5.09
6.41
7.50
8.41
9.17
9.79
10.31
10.70
10.93
10.95
10.68
10.05
9.06
7.79
6.41
5.16
4.22
3.62
3.21
2.69
1.79
0.40
-1.36
-3.21
-4.84
-6.08
-7.00
-7.81
-8.78
-10.13
-11.95
-14.15
-16.48
-18.58
-19.99
-20.31
-19.25
-16.80
-13.19
-8.91
-4.51
-0.51
2.75
5.12
6.64
7.49
7.92
8.13
8.26
8.35
8.36
8.19
7.79
7.20
6.56
6.09
6.00
6.40
7.24
8.26
9.15
9.59
9.42
8.68
7.56
6.29
5.02
3.79
2.53
1.16
-0.37
-2.02
-3.75
-5.57
-7.47
-9.39
-11.16
-12.45
-12.89
-12.19
-10.31
-7.43
-3.93
-0.22
3.40
6.74
9.77
12.44
14.73
16.54
17.83
18.58
18.90
18.94
18.88
18.82
18.75
18.55
18.03
17.05
15.54
13.56
11.23
8.74
6.21
3.75
1.40
-0.82
-2.91
-4.85
-6.67
-8.37
-9.97
-11.46
-12.86
-14.20
-15.52
-16.83
-18.14
-19.33
-20.16
-20.31
-19.46
-17.39
-14.12
-9.91
-5.24
-0.60
3.59
7.13
10.04
12.46
14.51
16.19
17.40
17.98
17.91
17.32
16.49
15.65
14.90
14.18
13.29
12.10
10.59
8.92
7.29
5.84
4.57
3.35
1.99
0.38
-1.45
-3.32
-5.01
-6.39
-7.46
-8.40
-9.43
-10.70
-12.21
-13.77
-15.12
-16.08
-16.58
-16.67
-16.40
-15.74
-14.59
-12.82
-10.40
-7.45
-4.24
-1.03
1.94
4.54
6.75
8.56
10.04
11.21
12.14
12.88
13.48
13.93
14.22
14.34
14.31
14.12
13.77
13.20
12.37
11.28
9.97
8.60
7.24
5.98
4.74
3.38
1.82
0.04
-1.83
-3.60
-5.11
-6.33
-7.40
-8.55
-9.99
-11.84
-14.00
-16.18
-17.99
-19.01
-19.00
-17.92
-15.96
-13.47
-10.72
-7.91
-5.10
-2.34
0.33
2.73
4.69
6.08
6.89
7.26
7.33
7.26
7.08
6.77
6.26
5.55
4.70
3.79
2.94
2.16
1.45
0.75
0.02
-0.75
-1.51
-2.21
-2.80
-3.30
-3.78
-4.30
-4.89
-5.55
-6.25
-6.97
-7.74
-8.57
-9.51
-10.52
-11.57
-12.64
-13.72
-14.77
-15.73
-16.42
-16.58
-15.96
-14.39
-11.94
-8.85
-5.54
-2.43
0.19
2.24
3.82
5.07
6.10
6.90
7.43
7.63
7.59
7.44
7.36
7.44
7.65
7.84
7.89
7.74
7.45
7.12
6.83
6.57
6.23
5.67
4.79
3.57
2.14
0.68
-0.62
-1.63
-2.31
-2.78
-3.23
-3.90
-4.93
-6.35
-8.06
-9.82
-11.32
-12.27
-12.41
-11.59
-9.81
-7.27
-4.28
-1.26
1.47
3.71
5.48
6.91
8.12
9.17
9.98
10.44
10.53
10.29
9.90
9.51
9.20
8.90
8.50
7.91
7.14
6.31
5.59
5.09
4.77
4.43
3.83
2.79
1.27
-0.53
-2.35
-3.92
-5.10
-5.94
-6.61
-7.37
-8.39
-9.72
-11.23
-12.64
-13.58
-13.71
-12.89
-11.14
-8.71
-5.92
-3.08
-0.36
2.16
4.44
6.45
8.10
9.32
10.08
10.41
10.45
10.30
10.06
9.75
9.33
8.81
8.22
7.62
7.10
6.69
6.40
6.15
5.84
5.33
4.54
3.46
2.15
0.78
-0.49
-1.55
-2.42
-3.22
-4.15
-5.36
-6.91
-8.67
-10.48
-12.12
-13.42
-14.23
-14.45
-13.96
-12.67
-10.53
-7.60
-4.10
-0.39
3.16
6.22
8.60
10.31
11.47
12.21
12.69
12.93
12.94
12.71
12.26
11.64
10.89
10.06
9.15
8.18
7.18
6.17
5.19
4.27
3.40
2.57
1.75
0.89
-0.10
-1.26
-2.63
-4.15
-5.70
-7.14
-8.35
-9.29
-10.05
-10.78
-11.63
-12.68
-13.86
-14.95
-15.65
-15.64
-14.75
-12.97
-10.43
-7.40
-4.14
-0.90
2.14
4.85
7.12
8.89
10.13
10.84
11.07
10.89
10.40
9.67
8.86
8.07
7.42
6.92
6.52
6.09
5.53
4.80
3.99
3.25
2.68
2.27
1.91
1.39
0.59
-0.53
-1.87
-3.31
-4.79
-6.35
-8.04
-9.90
-11.83
-13.66
-15.26
-16.60
-17.77
-18.90
-20.03
-21.00
-21.52
-21.24
-19.98
-17.74
-14.73
-11.24
-7.60
-4.00
-0.56
2.65
5.58
8.13
10.19
11.67
12.58
13.03
13.20
13.24
13.23
13.13
12.81
12.18
11.28
10.27
9.39
8.75
8.27
7.74
6.86
5.50
3.74
1.81
-0.02
-1.58
-2.87
-4.00
-5.13
-6.34
-7.67
-9.10
-10.59
-12.12
-13.59
-14.89
-15.81
-16.10
-15.57
-14.15
-11.92
-9.14
-6.14
-3.27
-0.80
1.17
2.71
4.01
5.26
6.55
7.84
8.98
9.85
10.37
10.62
10.69
10.72
10.71
10.60
10.28
9.67
8.78
7.71
6.59
5.47
4.38
3.28
2.19
1.20
0.42
-0.10
-0.42
-0.77
-1.43
-2.62
-4.40
-6.62
-8.95
-11.05
-12.57
-13.27
-13.03
-11.81
-9.71
-6.98
-3.94
-0.98
1.54
3.42
4.65
5.37
5.84
6.30
6.87
7.55
8.21
8.69
8.85
8.66
8.22
7.73
7.37
7.28
7.44
7.75
8.01
8.02
7.60
6.65
5.20
3.40
1.46
-0.36
-1.92
-3.23
-4.44
-5.76
-7.35
-9.22
-11.27
-13.31
-15.18
-16.77
-17.99
-18.70
-18.72
-17.84
-15.96
-13.19
-9.85
-6.34
-3.01
-0.02
2.66
5.14
7.48
9.60
11.34
12.49
12.97
12.85
12.35
11.74
11.18
10.74
10.32
9.80
9.10
8.17
7.11
6.04
5.07
4.25
3.50
2.66
1.59
0.20
-1.48
-3.26
-4.94
-6.33
-7.38
-8.19
-8.95
-9.91
-11.21
-12.93
-14.95
-17.05
-18.91
-20.15
-20.48
-19.71
-17.83
-15.04
-11.67
-8.13
-4.78
-1.85
0.60
2.62
4.35
5.83
7.07
7.99
8.53
8.69
8.57
8.34
8.15
8.05
7.97
7.81
7.45
6.90
6.23
5.55
4.91
4.28
3.48
2.33
0.70
-1.40
-3.81
-6.25
-8.40
-10.06
-11.20
-11.92
-12.46
-13.06
-13.88
-14.98
-16.29
-17.65
-18.80
-19.51
-19.50
-18.62
-16.84
-14.34
-11.48
-8.65
-6.17
-4.11
-2.38
-0.72
1.05
2.98
4.94
6.72
8.15
9.18
9.87
10.30
10.50
10.42
10.01
9.29
8.39
7.54
6.94
6.68
6.74
6.99
7.28
7.49
7.55
7.39
6.97
6.27
5.29
4.10
2.76
1.33
-0.20
-1.83
-3.58
-5.37
-6.98
-8.13
-8.55
-8.05
-6.60
-4.37
-1.58
1.46
4.51
7.41
10.04
12.32
14.21
15.64
16.56
16.98
17.00
16.77
16.49
16.25
16.06
15.78
15.27
14.43
13.34
12.18
11.16
10.35
9.70
9.01
8.05
6.67
4.87
2.76
0.53
-1.63
-3.63
-5.43
-7.10
-8.76
-10.54
-12.50
-14.59
-16.70
-18.66
-20.31
-21.52
-22.10
-21.87
-20.68
-18.45
-15.29
-11.43
-7.23
-3.00
1.06
4.83
8.22
11.15
13.51
15.27
16.42
17.08
17.36
17.35
17.13
16.80
16.46
16.25
16.25
16.39
16.43
16.09
15.14
13.54
11.50
9.32
7.32
5.64
4.28
3.13
2.04
0.94
-0.17
-1.25
-2.31
-3.43
-4.71
-6.23
-7.97
-9.82
-11.60
-13.16
-14.31
-14.95
-14.96
-14.28
-12.90
-10.93
-8.58
-6.11
-3.77
-1.68
0.14
1.80
3.43
5.10
6.85
8.61
10.26
11.67
12.68
13.16
13.04
12.34
11.16
9.67
8.10
6.63
5.40
4.49
3.86
3.38
2.90
2.25
1.29
-0.04
-1.67
-3.46
-5.22
-6.78
-8.04
-8.97
-9.67
-10.27
-10.97
-11.92
-13.20
-14.75
-16.32
-17.61
-18.27
-18.09
-17.02
-15.10
-12.48
-9.36
-5.96
-2.51
0.72
3.50
5.67
7.19
8.14
8.68
8.97
9.14
9.23
9.28
9.35
9.48
9.73
10.08
10.47
10.80
10.98
10.96
10.73
10.33
9.78
9.04
8.06
6.77
5.19
3.36
1.43
-0.46
-2.20
-3.73
-5.06
-6.22
-7.28
-8.27
-9.19
-10.01
-10.66
-11.05
-11.07
-10.67
-9.90
-8.91
-7.87
-6.97
-6.28
-5.77
-5.28
-4.64
-3.76
-2.63
-1.36
-0.11
1.00
1.91
2.62
3.19
3.69
4.13
4.47
4.63
4.55
4.19
3.61
2.93
2.27
1.73
1.29
0.89
0.47
-0.00
-0.49
-0.94
-1.39
-1.91
-2.67
-3.78
-5.28
-7.05
-8.80
-10.19
-10.87
-10.57
-9.13
-6.59
-3.13
0.92
5.18
9.27
12.87
15.71
17.65
18.54
18.37
17.22
15.32
13.03
10.71
8.62
6.83
5.23
3.63
1.89
0.05
-1.66
-2.96
-3.65
-3.70
-3.34
-2.91
-2.70
-2.85
-3.34
-3.98
-4.60
-5.11
-5.53
-6.01
-6.68
-7.67
-8.98
-10.51
-12.09
-13.48
-14.42
-14.64
-13.98
-12.36
-9.88
-6.78
-3.41
-0.16
2.68
4.93
6.54
7.53
7.98
7.95
7.50
6.71
5.69
4.60
3.56
2.63
1.84
1.18
0.60
0.08
-0.38
-0.82
-1.27
-1.79
-2.45
-3.30
-4.32
-5.45
-6.59
-7.66
-8.60
-9.42
-10.14
-10.83
-11.58
-12.49
-13.62
-14.94
-16.30
-17.40
-17.86
-17.39
-15.90
-13.54
-10.67
-7.67
-4.87
-2.40
-0.29
1.47
2.89
3.94
4.58
4.87
4.90
4.82
4.77
4.90
5.23
5.72
6.25
6.62
6.65
6.22
5.36
4.20
2.94
1.77
0.82
0.06
-0.56
-1.18
-1.93
-2.88
-4.07
-5.46
-7.03
-8.67
-10.25
-11.57
-12.35
-12.37
-11.43
-9.54
-6.88
-3.78
-0.60
2.38
5.02
7.28
9.17
10.64
11.63
12.06
11.98
11.56
11.00
10.50
10.16
9.95
9.82
9.72
9.63
9.53
9.37
9.01
8.34
7.27
5.79
4.08
2.32
0.77
-0.43
-1.27
-1.87
-2.46
-3.27
-4.48
-6.12
-8.06
-10.03
-11.62
-12.43
-12.18
-10.77
-8.35
-5.25
-1.93
1.19
3.85
5.93
7.52
8.76
9.77
10.61
11.30
11.81
12.11
12.23
12.20
12.06
11.80
11.43
10.89
10.20
9.36
8.43
7.40
6.23
4.86
3.24
1.40
-0.52
-2.36
-3.96
-5.30
-6.46
-7.59
-8.80
-10.15
-11.62
-13.17
-14.70
-16.07
-17.02
-17.23
-16.41
-14.40
-11.33
-7.58
-3.69
-0.11
2.88
5.20
6.95
8.25
9.22
9.92
10.42
10.80
11.15
11.50
11.84
12.10
12.16
11.93
11.34
10.39
9.14
7.70
6.21
4.81
3.53
2.34
1.13
-0.20
-1.67
-3.17
-4.51
-5.50
-6.02
-6.08
-5.87
-5.61
-5.56
-5.87
-6.62
-7.72
-8.98
-10.13
-10.90
-11.10
-10.58
-9.32
-7.37
-4.82
-1.85
1.33
4.46
7.24
9.50
11.13
12.17
12.72
12.86
12.65
12.09
11.17
9.96
8.58
7.21
5.97
4.93
4.06
3.28
2.47
1.58
0.57
-0.52
-1.66
-2.77
-3.77
-4.61
-5.24
-5.64
-5.88
-6.03
-6.20
-6.49
-6.92
-7.44
-7.96
-8.37
-8.66
-8.92
-9.32
-10.06
-11.21
-12.64
-13.99
-14.83
-14.80
-13.74
-11.73
-9.04
-6.01
-2.95
-0.07
2.46
4.57
6.27
7.60
8.68
9.58
10.36
10.94
11.23
11.20
10.88
10.41
9.94
9.54
9.17
8.72
8.08
7.24
6.26
5.26
4.33
3.49
2.69
1.82
0.81
-0.37
-1.69
-3.03
-4.25
-5.22
-5.86
-6.21
-6.38
-6.54
-6.86
-7.41
-8.17
-9.06
-9.97
-10.76
-11.24
-11.21
-10.46
-8.90
-6.59
-3.84
-1.06
1.38
3.27
4.62
5.66
6.58
7.49
8.33
8.95
9.20
9.08
8.73
8.37
8.17
8.18
8.26
8.26
8.05
7.65
7.20
6.86
6.67
6.55
6.30
5.72
4.69
3.30
1.79
0.42
-0.60
-1.22
-1.57
-1.89
-2.39
-3.22
-4.39
-5.80
-7.22
-8.41
-9.08
-9.03
-8.13
-6.43
-4.12
-1.54
0.97
3.13
4.81
6.04
6.92
7.52
7.89
8.00
7.84
7.45
6.95
6.46
6.04
5.67
5.29
4.79
4.15
3.46
2.81
2.32
1.96
1.63
1.14
0.34
-0.80
-2.12
-3.38
-4.34
-4.88
-5.01
-4.90
-4.76
-4.78
-5.02
-5.52
-6.24
-7.14
-8.14
-9.08
-9.78
-10.02
-9.64
-8.59
-6.96
-4.91
-2.66
-0.43
1.66
3.52
5.11
6.45
7.57
8.45
9.04
9.32
9.25
8.88
8.32
7.72
7.19
6.76
6.35
5.85
5.17
4.32
3.39
2.53
1.82
1.29
0.87
0.42
-0.17
-0.96
-1.93
-2.99
-4.04
-4.99
-5.83
-6.64
-7.55
-8.69
-10.15
-11.88
-13.74
-15.49
-16.84
-17.54
-17.41
-16.32
-14.29
-11.51
-8.30
-5.09
-2.26
-0.04
1.54
2.65
3.52
4.36
5.25
6.14
6.96
7.60
8.02
8.24
8.29
8.21
8.04
7.80
7.54
7.27
6.96
6.60
6.10
5.41
4.49
3.33
2.01
0.59
-0.83
-2.16
-3.34
-4.33
-5.18
-5.97
-6.85
-7.96
-9.36
-11.01
-12.75
-14.35
-15.62
-16.44
-16.74
-16.47
-15.59
-14.07
-11.96
-9.43
-6.75
-4.29
-2.32
-1.02
-0.36
-0.18
-0.23
-0.31
-0.30
-0.15
0.13
0.51
1.00
1.60
2.28
2.97
3.60
4.07
4.35
4.41
4.30
4.04
3.67
3.16
2.50
1.69
0.80
-0.09
-0.90
-1.64
-2.40
-3.35
-4.67
-6.48
-8.76
-11.37
-14.03
-16.42
-18.21
-19.15
-19.09
-18.01
-16.06
-13.50
-10.67
-7.88
-5.34
-3.14
-1.28
0.27
1.54
2.51
3.18
3.63
4.00
4.46
5.15
6.09
7.17
8.21
9.06
9.68
10.10
10.37
10.52
10.47
10.08
9.28
8.07
6.55
4.88
3.23
1.69
0.29
-1.03
-2.36
-3.82
-5.43
-7.14
-8.73
-9.87
-10.22
-9.58
-7.95
-5.60
-2.86
-0.08
2.53
4.87
6.92
8.70
10.16
11.26
11.96
12.32
12.42
12.33
12.13
11.82
11.34
10.68
9.81
8.76
7.56
6.27
4.94
3.67
2.54
1.60
0.85
0.20
-0.46
-1.24
-2.19
-3.27
-4.41
-5.58
-6.84
-8.27
-9.94
-11.78
-13.56
-14.90
-15.45
-14.93
-13.33
-10.82
-7.75
-4.50
-1.40
1.34
3.64
5.53
7.09
8.40
9.51
10.48
11.30
11.96
12.43
12.71
12.80
12.75
12.58
12.33
12.00
11.60
11.09
10.44
9.62
8.59
7.38
6.00
4.55
3.13
1.83
0.71
-0.28
-1.21
-2.23
-3.50
-5.12
-7.14
-9.48
-11.96
-14.27
-16.03
-16.90
-16.63
-15.17
-12.67
-9.47
-5.92
-2.34
1.10
4.33
7.30
9.98
12.22
13.88
14.83
15.08
14.78
14.19
13.58
13.13
12.84
12.59
12.19
11.47
10.39
9.03
7.55
6.08
4.69
3.37
2.02
0.59
-0.92
-2.44
-3.89
-5.19
-6.35
-7.43
-8.49
-9.63
-10.88
-12.28
-13.83
-15.49
-17.22
-18.81
-20.00
-20.48
-19.96
-18.31
-15.59
-12.05
-8.05
-3.97
-0.11
3.36
6.31
8.74
10.65
12.03
12.87
13.19
13.06
12.61
12.05
11.55
11.27
11.20
11.28
11.35
11.28
10.98
10.47
9.83
9.15
8.47
7.74
6.87
5.73
4.31
2.70
1.13
-0.20
-1.15
-1.79
-2.35
-3.13
-4.33
-5.98
-7.94
-9.99
-11.89
-13.46
-14.50
-14.78
-14.06
-12.19
-9.22
-5.43
-1.30
2.65
6.02
8.65
10.58
12.00
13.07
13.89
14.45
14.74
14.73
14.50
14.17
13.87
13.71
13.66
13.62
13.45
13.04
12.36
11.48
10.53
9.61
8.75
7.89
6.90
5.65
4.08
2.26
0.37
-1.38
-2.77
-3.75
-4.41
-4.97
-5.74
-6.95
-8.69
-10.86
-13.23
-15.46
-17.22
-18.20
-18.13
-16.89
-14.50
-11.23
-7.46
-3.67
-0.23
2.65
4.98
6.87
8.42
9.67
10.57
11.04
11.08
10.75
10.19
9.53
8.85
8.19
7.55
6.93
6.34
5.80
5.32
4.90
4.57
4.31
4.11
3.88
3.50
2.90
2.06
1.06
0.07
-0.78
-1.42
-1.94
-2.48
-3.20
-4.21
-5.51
-7.07
-8.82
-10.69
-12.56
-14.27
-15.54
-16.10
-15.76
-14.44
-12.19
-9.12
-5.32
-0.98
3.69
8.38
12.71
16.35
19.05
20.73
21.39
21.11
19.96
18.02
15.43
12.43
9.31
6.35
3.77
1.67
0.03
-1.22
-2.22
-3.11
-4.00
-4.95
-5.97
-7.03
-8.05
-8.97
-9.75
-10.41
-10.95
-11.37
-11.66
-11.77
-11.67
-11.38
-10.95
-10.46
-10.01
-9.66
-9.49
-9.57
-9.92
-10.58
-11.43
-12.30
-12.93
-13.00
-12.28
-10.70
-8.37
-5.55
-2.62
0.09
2.33
3.99
5.04
5.57
5.67
5.52
5.29
5.15
5.25
5.68
6.36
7.12
7.72
7.88
7.44
6.39
4.86
3.10
1.36
-0.19
-1.49
-2.60
-3.56
-4.44
-5.24
-5.97
-6.64
-7.28
-7.97
-8.77
-9.67
-10.67
-11.69
-12.65
-13.47
-14.04
-14.37
-14.48
-14.42
-14.21
-13.73
-12.80
-11.21
-8.86
-5.83
-2.43
0.93
3.89
6.26
8.04
9.33
10.26
10.87
11.15
11.08
10.68
10.08
9.43
8.83
8.30
7.73
6.89
5.61
3.79
1.49
-1.06
-3.53
-5.60
-7.05
-7.87
-8.19
-8.23
-8.24
-8.33
-8.51
-8.72
-8.86
-8.88
-8.82
-8.71
-8.58
-8.42
-8.17
-7.79
-7.22
-6.46
-5.49
-4.28
-2.77
-0.84
1.54
4.35
7.41
10.47
13.24
15.46
16.98
17.72
17.69
17.05
16.01
14.87
13.92
13.35
13.19
13.31
13.46
13.43
13.05
12.23
11.03
9.56
7.98
6.46
5.15
4.09
3.24
2.42
1.50
0.33
-1.07
-2.65
-4.32
-6.02
-7.78
-9.63
-11.63
-13.76
-15.93
-17.94
-19.55
-20.48
-20.51
-19.56
-17.68
-15.13
-12.24
-9.34
-6.64
-4.24
-2.11
-0.15
1.67
3.40
5.02
6.50
7.78
8.78
9.44
9.77
9.82
9.72
9.60
9.53
9.52
9.45
9.20
8.72
8.02
7.22
6.43
5.74
5.11
4.48
3.76
2.86
1.73
0.34
-1.35
-3.43
-5.92
-8.81
-11.97
-15.18
-18.20
-20.80
-22.82
-24.12
-24.59
-24.11
-22.69
-20.44
-17.61
-14.58
-11.69
-9.15
-6.96
-5.03
-3.24
-1.53
0.06
1.46
2.63
3.62
4.51
5.38
6.23
6.95
7.42
7.59
7.50
7.28
7.09
7.02
7.02
6.97
6.75
6.26
5.49
4.49
3.32
2.05
0.75
-0.48
-1.59
-2.55
-3.40
-4.24
-5.20
-6.40
-7.87
-9.53
-11.17
-12.51
-13.20
-13.00
-11.76
-9.55
-6.62
-3.40
-0.33
2.20
3.98
4.98
5.30
5.14
4.69
4.12
3.57
3.17
3.01
3.15
3.52
4.00
4.38
4.49
4.26
3.74
3.08
2.44
1.87
1.30
0.58
-0.39
-1.59
-2.85
-3.90
-4.51
-4.58
-4.21
-3.59
-2.96
-2.49
-2.28
-2.35
-2.74
-3.38
-4.12
-4.70
-4.79
-4.16
-2.71
-0.60
1.87
4.35
6.60
8.50
10.04
11.24
12.09
12.54
12.62
12.42
12.07
11.73
11.41
11.05
10.48
9.60
8.43
7.07
5.68
4.36
3.12
1.89
0.62
-0.68
-1.93
-3.01
-3.84
-4.40
-4.78
-5.07
-5.40
-5.81
-6.34
-6.98
-7.76
-8.67
-9.69
-10.77
-11.73
-12.36
-12.43
-11.76
-10.29
-8.12
-5.43
-2.45
0.58
3.49
6.11
8.34
10.12
11.43
12.33
12.89
13.16
13.15
12.82
12.15
11.18
9.99
8.72
7.52
6.45
5.56
4.78
4.08
3.40
2.69
1.92
1.08
0.16
-0.81
-1.76
-2.61
-3.37
-4.10
-4.95
-6.09
-7.64
-9.59
-11.78
-13.94
-15.78
-17.03
-17.55
-17.26
-16.17
-14.30
-11.76
-8.70
-5.38
-2.08
0.94
3.57
5.82
7.88
9.87
11.86
13.71
15.17
16.00
16.06
15.44
14.33
13.01
11.73
10.66
9.93
9.57
9.57
9.80
10.06
10.08
9.68
8.76
7.43
5.87
4.27
2.77
1.39
0.13
-1.01
-2.05
-2.97
-3.85
-4.75
-5.76
-6.93
-8.22
-9.62
-11.12
-12.76
-14.52
-16.33
-17.97
-19.16
-19.58
-18.99
-17.31
-14.65
-11.29
-7.63
-4.07
-0.91
1.69
3.75
5.39
6.78
8.00
9.05
9.90
10.52
10.94
11.20
11.32
11.30
11.07
10.62
9.99
9.26
8.55
7.90
7.32
6.72
6.03
5.21
4.25
3.19
2.08
0.95
-0.22
-1.46
-2.80
-4.23
-5.71
-7.19
-8.61
-9.97
-11.31
-12.72
-14.29
-16.07
-18.04
-20.08
-21.97
-23.45
-24.24
-24.08
-22.82
-20.40
-16.90
-12.55
-7.66
-2.60
2.32
6.86
10.95
14.52
17.55
19.91
21.49
22.19
22.04
21.22
19.96
18.49
16.95
15.34
13.63
11.80
9.93
8.18
6.73
5.74
5.25
5.16
5.26
5.30
5.10
4.55
3.64
2.45
1.11
-0.27
-1.57
-2.71
-3.65
-4.41
-5.06
-5.75
-6.62
-7.74
-9.08
-10.44
-11.50
-11.96
-11.57
-10.27
-8.18
-5.56
-2.74
-0.04
2.28
4.14
5.47
6.34
6.80
6.94
6.87
6.72
6.62
6.66
6.85
7.08
7.23
7.16
6.82
6.26
5.59
4.88
4.13
3.33
2.44
1.50
0.60
-0.18
-0.80
-1.35
-1.92
-2.63
-3.48
-4.43
-5.40
-6.34
-7.29
-8.34
-9.62
-11.16
-12.84
-14.32
-15.21
-15.15
-13.98
-11.75
-8.75
-5.39
-2.02
1.08
3.74
5.86
7.38
8.29
8.69
8.71
8.59
8.50
8.56
8.80
9.15
9.52
9.87
10.17
10.45
10.76
11.07
11.25
11.15
10.58
9.43
7.75
5.70
3.56
1.58
-0.10
-1.47
-2.65
-3.84
-5.21
-6.87
-8.84
-11.05
-13.40
-15.70
-17.71
-19.17
-19.82
-19.42
-17.90
-15.31
-11.86
-7.91
-3.88
-0.17
2.89
5.18
6.71
7.70
8.37
8.93
9.45
9.89
10.11
10.03
9.67
9.13
8.58
8.12
7.70
7.22
6.52
5.57
4.45
3.29
2.21
1.20
0.18
-0.93
-2.15
-3.43
-4.65
-5.73
-6.70
-7.70
-8.88
-10.31
-12.00
-13.87
-15.82
-17.66
-19.16
-20.02
-19.97
-18.83
-16.64
-13.65
-10.24
-6.80
-3.66
-0.95
1.26
2.99
4.29
5.23
5.90
6.37
6.73
6.96
7.05
6.97
6.72
6.37
5.99
5.62
5.25
4.80
4.17
3.35
2.38
1.35
0.39
-0.44
-1.15
-1.76
-2.34
-2.92
-3.56
-4.29
-5.18
-6.28
-7.66
-9.30
-11.11
-12.89
-14.33
-15.10
-14.88
-13.51
-11.01
-7.65
-3.83
-0.04
3.31
5.99
7.97
9.35
10.25
10.80
11.07
11.11
10.96
10.70
10.37
10.03
9.70
9.38
9.11
8.92
8.85
8.90
8.98
8.93
8.56
7.76
6.49
4.88
3.12
1.42
-0.11
-1.46
-2.76
-4.16
-5.78
-7.65
-9.67
-11.67
-13.39
-14.58
-14.96
-14.34
-12.61
-9.84
-6.28
-2.29
1.73
5.39
8.46
10.81
12.47
13.54
14.18
14.50
14.60
14.54
14.32
13.95
13.43
12.74
11.85
10.76
9.48
8.09
6.68
5.35
4.16
3.08
2.04
0.91
-0.34
-1.70
-3.05
-4.27
-5.28
-6.12
-6.92
-7.86
-9.09
-10.60
-12.23
-13.65
-14.53
-14.59
-13.72
-11.98
-9.58
-6.83
-3.99
-1.27
1.25
3.56
5.72
7.74
9.56
11.05
12.07
12.56
12.58
12.32
11.99
11.73
11.53
11.28
10.85
10.15
9.21
8.10
6.89
5.64
4.36
3.01
1.59
0.15
-1.27
-2.60
-3.81
-4.89
-5.86
-6.80
-7.76
-8.83
-10.11
-11.61
-13.30
-15.06
-16.65
-17.79
-18.22
-17.71
-16.18
-13.68
-10.44
-6.79
-3.09
0.34
3.35
5.92
8.12
10.01
11.57
12.67
13.17
12.99
12.23
11.14
10.03
9.16
8.67
8.54
8.62
8.74
8.75
8.54
8.06
7.37
6.52
5.59
4.64
3.64
2.53
1.28
-0.13
-1.62
-3.08
-4.35
-5.39
-6.23
-6.99
-7.88
-9.06
-10.64
-12.58
-14.68
-16.62
-17.98
-18.36
-17.52
-15.43
-12.31
-8.55
-4.64
-0.99
2.13
4.66
6.71
8.43
9.92
11.18
12.11
12.58
12.59
12.23
11.72
11.25
10.92
10.66
10.33
9.79
9.02
8.12
7.28
6.60
6.09
5.63
5.04
4.18
3.04
1.72
0.37
-0.85
-1.88
-2.71
-3.43
-4.09
-4.79
-5.60
-6.61
-7.92
-9.55
-11.41
-13.18
-14.46
-14.77
-13.79
-11.49
-8.15
-4.30
-0.53
2.70
5.19
6.96
8.20
9.12
9.82
10.28
10.48
10.42
10.20
10.00
9.93
9.97
9.96
9.67
8.99
7.92
6.63
5.35
4.28
3.43
2.70
1.92
0.93
-0.34
-1.82
-3.38
-4.87
-6.19
-7.30
-8.21
-9.00
-9.77
-10.62
-11.60
-12.76
-14.10
-15.51
-16.84
-17.79
-18.07
-17.38
-15.56
-12.68
-9.00
-4.96
-1.04
2.42
5.22
7.37
8.99
10.20
11.09
11.65
11.84
11.65
11.13
10.44
9.73
9.16
8.77
8.50
8.25
7.87
7.30
6.53
5.66
4.81
4.02
3.28
2.47
1.46
0.15
-1.40
-3.05
-4.60
-5.93
-7.03
-7.98
-8.86
-9.73
-10.56
-11.35
-12.16
-13.08
-14.21
-15.50
-16.70
-17.38
-17.13
-15.68
-13.07
-9.62
-5.83
-2.24
0.81
3.14
4.83
6.01
6.83
7.40
7.71
7.76
7.58
7.27
6.98
6.83
6.86
6.98
7.04
6.85
6.37
5.63
4.77
3.95
3.23
2.61
1.98
1.26
0.41
-0.55
-1.58
-2.62
-3.66
-4.67
-5.58
-6.38
-7.10
-7.83
-8.77
-10.09
-11.84
-13.90
-15.95
-17.62
-18.55
-18.53
-17.48
-15.48
-12.68
-9.31
-5.66
-2.04
1.24
3.95
5.97
7.35
8.18
8.63
8.78
8.74
8.61
8.49
8.51
8.73
9.11
9.45
9.52
9.12
8.24
7.07
5.87
4.88
4.17
3.61
2.98
2.10
0.92
-0.42
-1.72
-2.80
-3.61
-4.24
-4.89
-5.72
-6.82
-8.15
-9.58
-10.91
-11.92
-12.38
-12.11
-10.97
-8.99
-6.30
-3.21
-0.05
2.86
5.28
7.09
8.27
8.90
9.10
9.05
8.90
8.77
8.69
8.63
8.55
8.46
8.36
8.29
8.23
8.13
7.89
7.50
6.96
6.29
5.52
4.58
3.39
1.92
0.24
-1.47
-2.99
-4.15
-4.93
-5.46
-5.97
-6.71
-7.82
-9.32
-11.08
-12.82
-14.16
-14.71
-14.19
-12.53
-9.90
-6.69
-3.40
-0.41
2.06
3.98
5.43
6.49
7.17
7.48
7.51
7.42
7.42
7.65
8.09
8.55
8.79
8.64
8.15
7.47
6.81
6.28
5.84
5.37
4.72
3.85
2.78
1.56
0.23
-1.21
-2.76
-4.34
-5.85
-7.10
-8.04
-8.69
-9.24
-9.95
-11.02
-12.53
-14.32
-16.00
-17.08
-17.07
-15.71
-13.05
-9.45
-5.48
-1.71
1.43
3.76
5.35
6.41
7.15
7.75
8.30
8.84
9.37
9.88
10.35
10.69
10.78
10.51
9.83
8.80
7.58
6.37
5.31
4.45
3.73
3.00
2.11
0.96
-0.49
-2.18
-3.99
-5.79
-7.35
-8.52
-9.23
-9.57
-9.80
-10.24
-11.12
-12.55
-14.39
-16.32
-17.93
-18.83
-18.74
-17.54
-15.27
-12.14
-8.52
-4.80
-1.37
1.53
3.83
5.65
7.16
8.51
9.74
10.76
11.44
11.67
11.44
10.88
10.17
9.50
9.03
8.78
8.74
8.81
8.84
8.72
8.34
7.61
6.52
5.13
3.53
1.87
0.29
-1.10
-2.24
-3.15
-3.89
-4.55
-5.19
-5.88
-6.66
-7.56
-8.60
-9.77
-11.00
-12.11
-12.84
-12.87
-11.95
-10.01
-7.16
-3.67
0.05
3.59
6.60
8.86
10.30
10.99
11.12
10.94
10.67
10.45
10.30
10.17
10.00
9.74
9.42
9.08
8.74
8.35
7.81
7.06
6.06
4.85
3.54
2.23
0.99
-0.17
-1.26
-2.31
-3.30
-4.24
-5.08
-5.85
-6.55
-7.24
-8.00
-8.92
-10.09
-11.51
-13.17
-14.91
-16.52
-17.68
-18.06
-17.42
-15.64
-12.82
-9.25
-5.36
-1.59
1.71
4.38
6.45
8.08
9.42
10.59
11.61
12.42
12.94
13.15
13.04
12.68
12.16
11.56
10.91
10.23
9.49
8.72
7.93
7.18
6.51
5.90
5.30
4.59
3.71
2.62
1.36
-0.01
-1.41
-2.79
-4.12
-5.43
-6.75
-8.13
-9.58
-11.12
-12.73
-14.38
-16.04
-17.65
-19.12
-20.25
-20.75
-20.33
-18.77
-16.04
-12.37
-8.19
-3.99
-0.19
2.98
5.47
7.34
8.69
9.58
10.05
10.15
9.97
9.65
9.33
9.12
9.01
8.96
8.82
8.46
7.78
6.82
5.70
4.62
3.74
3.09
2.58
2.01
1.23
0.22
-0.92
-2.05
-3.04
-3.89
-4.70
-5.57
-6.56
-7.67
-8.84
-10.02
-11.26
-12.64
-14.24
-16.02
-17.79
-19.18
-19.75
-19.10
-17.04
-13.70
-9.47
-4.93
-0.68
2.87
5.57
7.54
9.04
10.31
11.47
12.46
13.16
13.46
13.34
12.93
12.45
12.07
11.88
11.82
11.77
11.59
11.23
10.71
10.10
9.44
8.72
7.86
6.78
5.45
3.86
2.10
0.32
-1.32
-2.71
-3.82
-4.72
-5.57
-6.57
-7.88
-9.53
-11.48
-13.53
-15.45
-16.96
-17.74
-17.52
-16.09
-13.45
-9.83
-5.67
-1.49
2.28
5.41
7.92
9.98
11.80
13.49
15.03
16.27
17.10
17.44
17.38
17.05
16.63
16.23
15.85
15.37
14.64
13.57
12.13
10.40
8.54
6.67
4.88
3.20
1.61
0.07
-1.41
-2.83
-4.17
-5.48
-6.79
-8.20
-9.79
-11.57
-13.53
-15.57
-17.56
-19.41
-21.05
-22.40
-23.34
-23.68
-23.17
-21.57
-18.79
-14.93
-10.34
-5.47
-0.80
3.33
6.75
9.45
11.52
13.05
14.10
14.71
14.94
14.87
14.66
14.49
14.48
14.63
14.85
14.95
14.76
14.18
13.23
11.98
10.54
8.95
7.25
5.49
3.71
2.01
0.43
-1.03
-2.46
-3.96
-5.62
-7.40
-9.22
-10.94
-12.45
-13.74
-14.86
-15.90
-17.01
-18.26
-19.66
-21.13
-22.46
-23.33
-23.34
-22.15
-19.61
-15.83
-11.22
-6.32
-1.70
2.27
5.45
7.92
9.83
11.32
12.45
13.17
13.48
13.46
13.25
13.03
12.92
12.93
12.97
12.89
12.56
11.94
11.08
10.09
9.08
8.12
7.22
6.34
5.41
4.41
3.34
2.24
1.15
0.09
-0.96
-2.00
-3.07
-4.14
-5.17
-6.15
-7.09
-8.07
-9.23
-10.65
-12.39
-14.38
-16.48
-18.39
-19.79
-20.27
-19.51
-17.36
-13.94
-9.58
-4.82
-0.20
3.92
7.32
10.01
12.11
13.66
14.71
15.23
15.25
14.87
14.27
13.70
13.32
13.20
13.27
13.35
13.24
12.83
12.14
11.31
10.50
9.87
9.42
9.02
8.50
7.64
6.39
4.78
2.96
1.11
-0.61
-2.15
-3.52
-4.81
-6.11
-7.50
-9.01
-10.64
-12.31
-13.87
-15.09
-15.65
-15.30
-13.86
-11.33
-7.94
-4.03
-0.02
3.73
6.95
9.53
11.44
12.70
13.40
13.62
13.45
12.97
12.26
11.43
10.60
9.87
9.31
8.92
8.67
8.45
8.20
7.88
7.53
7.19
6.91
6.71
6.56
6.38
6.08
5.54
4.65
3.39
1.78
-0.06
-2.03
-4.10
-6.30
-8.78
-11.59
-14.68
-17.83
-20.65
-22.72
-23.65
-23.19
-21.24
-17.90
-13.40
-8.17
-2.76
2.24
6.33
9.26
11.00
11.83
12.08
12.07
11.98
11.87
11.68
11.36
10.92
10.49
10.20
10.18
10.41
10.77
11.05
11.06
10.68
9.97
9.08
8.16
7.32
6.54
5.70
4.67
3.36
1.80
0.10
-1.66
-3.41
-5.17
-6.92
-8.69
-10.44
-12.15
-13.85
-15.63
-17.62
-19.86
-22.24
-24.43
-25.99
-26.46
-25.52
-23.09
-19.39
-14.79
-9.80
-4.88
-0.40
3.37
6.31
8.40
9.73
10.42
10.61
10.40
9.88
9.16
8.36
7.64
7.10
6.82
6.80
6.95
7.19
7.43
7.58
7.57
7.32
6.79
6.05
5.25
4.63
4.41
4.64
5.23
5.94
6.52
6.76
6.54
5.86
4.78
3.34
1.60
-0.47
-2.88
-5.65
-8.75
-12.02
-15.23
-18.00
-19.91
-20.62
-19.94
-17.97
-15.06
-11.78
-8.69
-6.22
-4.49
-3.41
-2.67
-1.98
-1.17
-0.22
0.73
1.51
2.00
2.15
1.98
1.54
0.93
0.23
-0.48
-1.17
-1.79
-2.35
-2.85
-3.29
-3.70
-4.07
-4.43
-4.77
-5.08
-5.34
-5.53
-5.71
-5.96
-6.42
-7.18
-8.25
-9.50
-10.77
-11.81
-12.42
-12.47
-11.94
-10.92
-9.63
-8.38
-7.42
-6.87
-6.63
-6.38
-5.76
-4.47
-2.43
0.22
3.16
6.06
8.70
10.95
12.81
14.29
15.36
16.00
16.19
15.98
15.47
14.75
13.96
13.18
12.48
11.88
11.37
10.88
10.27
9.47
8.47
7.40
6.52
6.07
6.18
6.81
7.78
8.84
9.72
10.26
10.36
10.00
9.19
7.97
6.40
4.55
2.45
0.12
-2.45
-5.26
-8.21
-11.15
-13.81
-15.87
-17.04
-17.11
-16.02
-13.89
-11.01
-7.75
-4.47
-1.50
1.00
2.93
4.34
5.31
5.94
6.27
6.34
6.14
5.75
5.29
4.95
4.94
5.39
6.36
7.78
9.54
11.47
13.38
15.07
16.26
16.70
16.13
14.49
11.85
8.50
4.83
1.22
-2.08
-4.94
-7.37
-9.42
-11.20
-12.76
-14.20
-15.61
-17.07
-18.63
-20.20
-21.57
-22.37
-22.16
-20.58
-17.54
-13.21
-8.05
-2.65
2.41
6.71
10.06
12.43
13.92
14.59
14.52
13.81
12.62
11.19
9.77
8.57
7.66
7.04
6.58
6.20
5.82
5.45
5.12
4.82
4.50
4.09
3.48
2.65
1.61
0.46
-0.67
-1.68
-2.54
-3.30
-4.06
-4.91
-5.91
-7.01
-8.13
-9.17
-10.09
-10.97
-11.91
-13.03
-14.39
-15.95
-17.50
-18.76
-19.40
-19.18
-17.95
-15.73
-12.65
-8.93
-4.87
-0.78
3.04
6.30
8.85
10.66
11.83
12.50
12.82
12.85
12.62
12.14
11.44
10.62
9.79
9.05
8.45
7.96
7.49
6.94
6.22
5.29
4.20
3.03
1.86
0.74
-0.37
-1.53
-2.80
-4.18
-5.57
-6.86
-8.01
-9.00
-9.92
-10.84
-11.77
-12.71
-13.68
-14.76
-16.07
-17.65
-19.45
-21.19
-22.49
-22.92
-22.23
-20.36
-17.49
-13.89
-9.90
-5.87
-2.07
1.23
3.89
5.89
7.34
8.41
9.27
9.96
10.41
10.55
10.34
9.90
9.47
9.27
9.44
9.92
10.52
10.99
11.15
10.95
10.42
9.61
8.57
7.34
5.96
4.55
3.24
2.14
1.26
0.44
-0.56
-1.91
-3.68
-5.70
-7.72
-9.47
-10.87
-12.06
-13.28
-14.71
-16.37
-18.01
-19.19
-19.45
-18.49
-16.28
-13.05
-9.23
-5.29
-1.62
1.55
4.19
6.33
8.06
9.44
10.45
11.08
11.33
11.28
11.07
10.85
10.72
10.68
10.64
10.52
10.27
9.92
9.57
9.28
9.07
8.90
8.62
8.13
7.39
6.42
5.29
4.09
2.86
1.64
0.45
-0.70
-1.80
-2.86
-3.91
-5.02
-6.31
-7.87
-9.77
-12.00
-14.34
-16.42
-17.75
-17.84
-16.45
-13.57
-9.60
-5.11
-0.71
3.19
6.39
8.94
11.01
12.78
14.33
15.66
16.70
17.40
17.76
17.84
17.74
17.54
17.30
17.02
16.62
16.06
15.34
14.44
13.42
12.26
10.93
9.39
7.66
5.85
4.13
2.62
1.37
0.26
-0.87
-2.20
-3.77
-5.48
-7.17
-8.72
-10.12
-11.47
-12.93
-14.60
-16.49
-18.53
-20.56
-22.36
-23.65
-24.13
-23.52
-21.66
-18.57
-14.50
-9.87
-5.16
-0.77
3.09
6.33
8.98
11.06
12.60
13.58
14.04
14.06
13.79
13.37
12.91
12.44
11.96
11.43
10.85
10.24
9.64
9.03
8.37
7.61
6.73
5.75
4.70
3.59
2.43
1.23
0.03
-1.13
-2.19
-3.13
-4.00
-4.89
-5.89
-7.05
-8.33
-9.64
-10.88
-11.97
-12.95
-13.95
-15.16
-16.72
-18.59
-20.49
-21.92
-22.36
-21.44
-19.09
-15.56
-11.35
-6.98
-2.84
0.85
4.04
6.70
8.78
10.19
10.90
10.99
10.67
10.23
9.93
9.88
9.99
10.07
9.92
9.45
8.71
7.87
7.11
6.47
5.91
5.29
4.48
3.43
2.24
1.04
-0.02
-0.90
-1.62
-2.29
-3.01
-3.83
-4.73
-5.64
-6.51
-7.34
-8.16
-9.05
-10.04
-11.13
-12.30
-13.55
-14.88
-16.25
-17.55
-18.54
-18.88
-18.26
-16.50
-13.64
-9.95
-5.89
-1.90
1.63
4.55
6.86
8.63
9.98
10.97
11.63
11.98
12.10
12.12
12.20
12.44
12.85
13.33
13.71
13.79
13.40
12.51
11.20
9.63
8.00
6.51
5.26
4.24
3.35
2.44
1.42
0.27
-0.98
-2.22
-3.37
-4.40
-5.28
-6.04
-6.77
-7.57
-8.57
-9.91
-11.65
-13.74
-15.92
-17.80
-18.88
-18.75
-17.24
-14.45
-10.75
-6.66
-2.71
0.76
3.56
5.69
7.25
8.35
9.14
9.71
10.16
10.51
10.79
11.00
11.16
11.32
11.54
11.83
12.11
12.24
12.12
11.72
11.12
10.48
9.88
9.30
8.64
7.75
6.58
5.19
3.72
2.31
1.03
-0.16
-1.34
-2.62
-4.05
-5.59
-7.21
-8.88
-10.65
-12.59
-14.74
-17.01
-19.12
-20.67
-21.18
-20.31
-17.95
-14.35
-9.99
-5.49
-1.37
2.07
4.84
7.09
9.03
10.81
12.43
13.81
14.82
15.38
15.50
15.25
14.79
14.23
13.67
13.15
12.66
12.15
11.57
10.88
10.02
8.94
7.58
5.93
4.03
2.03
0.15
-1.39
-2.45
-3.03
-3.31
-3.53
-3.91
-4.58
-5.57
-6.82
-8.30
-10.03
-12.07
-14.51
-17.34
-20.33
-23.10
-25.09
-25.79
-24.87
-22.30
-18.42
-13.81
-9.11
-4.82
-1.19
1.83
4.46
6.91
9.24
11.38
13.14
14.38
15.01
15.10
14.81
14.31
13.72
13.07
12.37
11.62
10.88
10.27
9.86
9.63
9.42
8.99
8.15
6.90
5.38
3.88
2.62
1.70
1.02
0.36
-0.50
-1.70
-3.22
-4.94
-6.67
-8.25
-9.63
-10.82
-11.96
-13.23
-14.80
-16.76
-19.03
-21.33
-23.22
-24.23
-23.92
-22.07
-18.69
-14.10
-8.87
-3.65
0.96
4.54
6.95
8.37
9.10
9.48
9.74
9.99
10.23
10.42
10.58
10.80
11.15
11.62
12.15
12.59
12.85
12.89
12.71
12.37
11.84
11.13
10.19
9.06
7.84
6.60
5.41
4.22
2.92
1.39
-0.40
-2.39
-4.40
-6.24
-7.81
-9.12
-10.27
-11.43
-12.76
-14.34
-16.16
-18.13
-20.06
-21.63
-22.42
-22.05
-20.26
-17.04
-12.68
-7.71
-2.75
1.70
5.31
8.02
9.93
11.19
11.93
12.26
12.28
12.07
11.76
11.45
11.22
11.15
11.25
11.47
11.72
11.84
11.71
11.24
10.44
9.35
8.04
6.60
5.05
3.47
1.90
0.42
-0.92
-2.08
-3.06
-3.88
-4.59
-5.32
-6.24
-7.55
-9.39
-11.76
-14.45
-17.10
-19.23
-20.40
-20.29
-18.76
-15.89
-11.94
-7.32
-2.55
1.91
5.67
8.58
10.64
12.00
12.86
13.36
13.59
13.55
13.25
12.74
12.12
11.52
11.04
10.69
10.40
10.05
9.58
8.97
8.30
7.62
6.92
6.12
5.09
3.71
2.00
0.06
-1.87
-3.60
-4.99
-6.03
-6.79
-7.43
-8.14
-9.11
-10.46
-12.27
-14.39
-16.55
-18.28
-19.07
-18.48
-16.31
-12.67
-7.99
-2.89
2.01
6.23
9.55
11.94
13.53
14.48
14.92
14.96
14.69
14.20
13.58
12.93
12.31
11.76
11.29
10.85
10.40
9.84
9.11
8.15
6.99
5.73
4.50
3.37
2.33
1.22
-0.16
-1.93
-4.03
-6.21
-8.15
-9.59
-10.48
-10.96
-11.32
-11.85
-12.75
-14.09
-15.81
-17.71
-19.50
-20.74
-20.94
-19.72
-17.00
-13.03
-8.43
-3.91
-0.05
2.91
5.11
6.86
8.44
9.95
11.31
12.31
12.82
12.83
12.48
11.97
11.46
10.99
10.51
9.93
9.21
8.31
7.29
6.17
4.99
3.79
2.60
1.41
0.25
-0.92
-2.11
-3.35
-4.62
-5.88
-7.08
-8.22
-9.33
-10.48
-11.73
-13.13
-14.68
-16.40
-18.29
-20.32
-22.32
-23.95
-24.76
-24.26
-22.20
-18.63
-13.96
-8.84
-3.91
0.41
3.97
6.89
9.33
11.39
13.01
14.05
14.38
14.04
13.24
12.29
11.49
11.00
10.77
10.66
10.46
10.06
9.46
8.74
8.01
7.31
6.60
5.77
4.72
3.37
1.77
0.05
-1.66
-3.21
-4.55
-5.68
-6.69
-7.67
-8.73
-9.94
-11.36
-12.96
-14.69
-16.43
-18.00
-19.06
-19.24
-18.20
-15.74
-11.99
-7.35
-2.42
2.18
6.00
8.89
10.93
12.31
13.21
13.73
13.93
13.85
13.62
13.37
13.23
13.22
13.26
13.17
12.76
11.93
10.69
9.21
7.72
6.42
5.38
4.52
3.63
2.49
1.02
-0.70
-2.44
-3.94
-5.03
-5.67
-5.97
-6.15
-6.50
-7.25
-8.57
-10.45
-12.64
-14.73
-16.15
-16.36
-15.06
-12.24
-8.23
-3.57
1.15
5.42
8.98
11.75
13.81
15.30
16.31
16.84
16.88
16.44
15.63
14.62
13.62
12.78
12.13
11.60
11.07
10.42
9.61
8.66
7.64
6.61
5.58
4.51
3.33
1.97
0.41
-1.31
-3.10
-4.88
-6.53
-8.02
-9.37
-10.67
-11.97
-13.35
-14.83
-16.39
-17.98
-19.50
-20.81
-21.65
-21.69
-20.59
-18.13
-14.30
-9.42
-4.02
1.31
6.08
10.04
13.17
15.59
17.39
18.62
19.21
19.13
18.43
17.31
16.12
15.17
14.65
14.57
14.72
14.78
14.42
13.45
11.82
9.66
7.19
4.67
2.30
0.25
-1.43
-2.81
-3.97
-5.08
-6.27
-7.64
-9.26
-11.17
-13.35
-15.73
-18.18
-20.55
-22.73
-24.72
-26.53
-28.23
-29.75
-30.88
-31.28
-30.63
-28.71
-25.55
-21.39
-16.57
-11.45
-6.33
-1.48
2.88
6.58
9.51
11.68
13.19
14.19
14.82
15.14
15.15
14.93
14.62
14.43
14.53
14.97
15.56
16.01
16.02
15.43
14.25
12.66
10.87
9.05
7.24
5.42
3.53
1.55
-0.50
-2.58
-4.61
-6.55
-8.39
-10.19
-12.01
-13.87
-15.84
-17.89
-20.00
-22.09
-23.98
-25.41
-26.02
-25.49
-23.57
-20.27
-15.86
-10.83
-5.72
-0.99
3.08
6.38
8.93
10.79
12.00
12.60
12.67
12.34
11.83
11.35
11.07
11.02
11.09
11.06
10.72
9.95
8.81
7.47
6.16
4.96
3.84
2.60
1.08
-0.78
-2.83
-4.85
-6.67
-8.28
-9.86
-11.67
-13.90
-16.59
-19.59
-22.67
-25.51
-27.79
-29.17
-29.32
-27.98
-25.11
-20.90
-15.77
-10.25
-4.81
0.20
4.61
8.35
11.42
13.83
15.58
16.65
17.09
16.97
16.45
15.72
14.97
14.34
13.81
13.33
12.77
12.11
11.34
10.55
9.78
8.98
8.01
6.72
5.05
3.08
1.03
-0.89
-2.51
-3.82
-4.88
-5.83
-6.85
-8.08
-9.66
-11.60
-13.78
-15.82
-17.23
-17.45
-16.07
-13.04
-8.60
-3.29
2.29
7.62
12.34
16.32
19.58
22.27
24.58
26.63
28.48
30.04
31.12
31.52
31.13
30.01
28.32
26.24
23.88
21.29
18.45
15.44
12.45
9.68
7.31
5.31
3.54
1.77
-0.13
-2.12
-4.05
-5.73
-7.09
-8.18
-9.19
-10.34
-11.79
-13.60
-15.74
-18.07
-20.32
-22.05
-22.76
-22.02
-19.63
-15.78
-11.00
-5.93
-1.17
2.94
6.34
9.14
11.48
13.38
14.80
15.59
15.69
15.16
14.20
13.10
12.12
11.40
10.91
10.44
9.78
8.77
7.40
5.81
4.21
2.70
1.31
-0.03
-1.40
-2.88
-4.42
-6.00
-7.57
-9.13
-10.68
-12.23
-13.76
-15.24
-16.72
-18.26
-19.95
-21.83
-23.79
-25.56
-26.74
-26.88
-25.64
-22.92
-18.92
-14.08
-8.93
-3.99
0.39
4.05
6.98
9.29
11.09
12.45
13.37
13.85
13.97
13.83
13.61
13.44
13.36
13.32
13.16
12.75
12.08
11.23
10.35
9.53
8.75
7.86
6.69
5.14
3.29
1.30
-0.59
-2.21
-3.50
-4.48
-5.29
-6.09
-7.12
-8.58
-10.60
-13.10
-15.72
-17.89
-18.97
-18.47
-16.23
-12.45
-7.65
-2.43
2.63
7.10
10.70
13.25
14.72
15.16
14.78
13.83
12.62
11.40
10.34
9.55
9.03
8.75
8.66
8.66
8.61
8.39
7.87
7.03
5.94
4.66
3.26
1.78
0.22
-1.37
-2.84
-4.03
-4.85
-5.32
-5.66
-6.21
-7.26
-8.95
-11.18
-13.68
-16.06
-17.94
-18.96
-18.86
-17.51
-14.93
-11.38
-7.29
-3.17
0.55
3.61
5.96
7.71
8.94
9.76
10.18
10.26
10.13
9.96
9.95
10.21
10.69
11.24
11.62
11.60
11.08
10.11
8.81
7.40
6.03
4.76
3.56
2.30
0.87
-0.76
-2.51
-4.28
-5.93
-7.44
-8.85
-10.27
-11.83
-13.62
-15.63
-17.79
-19.86
-21.53
-22.40
-22.09
-20.38
-17.29
-13.15
-8.44
-3.71
0.64
4.43
7.70
10.55
13.06
15.20
16.85
17.90
18.33
18.21
17.71
16.93
15.98
14.86
13.60
12.25
10.86
9.51
8.24
7.01
5.77
4.46
3.03
1.51
-0.08
-1.68
-3.23
-4.64
-5.82
-6.70
-7.29
-7.73
-8.27
-9.12
-10.41
-12.14
-14.16
-16.30
-18.34
-20.10
-21.36
-21.85
-21.28
-19.45
-16.39
-12.41
-8.00
-3.72
0.07
3.27
5.96
8.27
10.27
11.85
12.85
13.17
12.84
12.07
11.13
10.27
9.63
9.23
8.97
8.75
8.45
8.03
7.44
6.70
5.82
4.87
3.86
2.80
1.66
0.41
-0.98
-2.48
-4.00
-5.46
-6.77
-7.92
-8.97
-9.97
-11.03
-12.23
-13.68
-15.42
-17.39
-19.37
-20.95
-21.64
-21.06
-19.07
-15.86
-11.83
-7.50
-3.31
0.46
3.66
6.24
8.18
9.50
10.24
10.53
10.56
10.52
10.60
10.84
11.18
11.44
11.46
11.14
10.53
9.77
9.03
8.40
7.86
7.30
6.56
5.56
4.24
2.67
0.93
-0.85
-2.57
-4.16
-5.61
-6.96
-8.30
-9.69
-11.18
-12.73
-14.24
-15.50
-16.25
-16.15
-14.96
-12.59
-9.18
-5.12
-0.89
3.05
6.46
9.29
11.57
13.37
14.65
15.38
15.56
15.30
14.77
14.17
13.59
13.08
12.59
12.08
11.54
10.97
10.42
9.90
9.40
8.90
8.36
7.74
6.98
6.03
4.87
3.54
2.12
0.74
-0.50
-1.55
-2.43
-3.24
-4.13
-5.28
-6.80
-8.71
-10.85
-12.90
-14.42
-14.99
-14.32
-12.41
-9.46
-5.90
-2.16
1.39
4.57
7.31
9.65
11.54
12.92
13.71
13.86
13.46
12.70
11.81
10.98
10.32
9.84
9.49
9.14
8.64
7.82
6.56
4.81
2.60
0.12
-2.42
-4.76
-6.74
-8.31
-9.50
-10.44
-11.21
-11.84
-12.33
-12.72
-13.12
-13.68
-14.59
-15.97
-17.81
-19.99
-22.25
-24.21
-25.50
-25.69
-24.47
-21.73
-17.65
-12.69
-7.47
-2.62
1.44
4.58
6.89
8.58
9.78
10.52
10.78
10.53
9.87
9.01
8.18
7.59
7.28
7.21
7.26
7.30
7.23
6.98
6.52
5.82
4.94
3.96
3.01
2.14
1.33
0.48
-0.56
-1.88
-3.49
-5.26
-7.01
-8.58
-9.86
-10.88
-11.75
-12.67
-13.82
-15.29
-16.95
-18.47
-19.34
-19.08
-17.43
-14.42
-10.44
-6.04
-1.79
1.94
4.95
7.25
8.91
10.04
10.70
10.94
10.88
10.65
10.45
10.41
10.53
10.71
10.75
10.53
10.03
9.42
8.86
8.49
8.24
7.87
7.14
5.93
4.27
2.40
0.53
-1.13
-2.53
-3.67
-4.61
-5.44
-6.27
-7.27
-8.60
-10.30
-12.26
-14.14
-15.49
-15.89
-15.10
-13.13
-10.20
-6.70
-3.03
0.41
3.36
5.74
7.55
8.91
9.95
10.73
11.22
11.39
11.19
10.70
10.08
9.50
9.12
8.93
8.86
8.77
8.55
8.18
7.70
7.17
6.57
5.86
4.91
3.66
2.14
0.54
-0.91
-2.02
-2.74
-3.23
-3.79
-4.70
-6.09
-7.92
-9.94
-11.88
-13.45
-14.42
-14.58
-13.74
-11.80
-8.85
-5.18
-1.23
2.51
5.74
8.39
10.56
12.47
14.18
15.60
16.55
16.86
16.53
15.75
14.77
13.79
12.88
12.00
11.08
10.08
9.08
8.22
7.62
7.28
7.08
6.76
6.05
4.79
2.98
0.81
-1.34
-3.09
-4.19
-4.61
-4.57
-4.46
-4.64
-5.39
-6.81
-8.80
-11.10
-13.39
-15.29
-16.44
-16.63
-15.78
-14.02
-11.63
-8.96
-6.30
-3.89
-1.81
-0.07
1.33
2.44
3.24
3.73
3.91
3.81
3.52
3.09
2.63
2.20
1.81
1.45
1.10
0.69
0.19
-0.43
-1.17
-2.00
-2.87
-3.73
-4.55
-5.31
-6.06
-6.86
-7.72
-8.62
-9.48
-10.18
-10.68
-11.04
-11.40
-11.98
-12.93
-14.27
-15.86
-17.41
-18.54
-18.89
-18.21
-16.38
-13.49
-9.80
-5.70
-1.59
2.18
5.37
7.88
9.74
10.99
11.71
11.97
11.85
11.45
10.87
10.23
9.59
8.93
8.27
7.58
6.86
6.16
5.53
5.01
4.57
4.18
3.75
3.21
2.50
1.63
0.67
-0.29
-1.15
-1.86
-2.46
-3.05
-3.79
-4.78
-6.04
-7.56
-9.24
-10.97
-12.57
-13.84
-14.54
-14.44
-13.36
-11.32
-8.50
-5.24
-1.91
1.20
3.97
6.35
8.37
10.01
11.24
11.98
12.25
12.12
11.77
11.43
11.25
11.32
11.54
11.74
11.73
11.41
10.78
9.95
9.05
8.12
7.14
6.02
4.70
3.21
1.65
0.15
-1.19
-2.37
-3.42
-4.41
-5.41
-6.50
-7.77
-9.27
-11.02
-12.83
-14.39
-15.29
-15.13
-13.75
-11.21
-7.84
-4.11
-0.47
2.78
5.47
7.62
9.28
10.55
11.48
12.09
12.39
12.40
12.15
11.73
11.23
10.73
10.31
10.00
9.79
9.62
9.43
9.15
8.72
8.17
7.51
6.75
5.89
4.91
3.82
2.62
1.38
0.15
-1.03
-2.21
-3.47
-4.92
-6.60
-8.49
-10.52
-12.59
-14.60
-16.45
-17.96
-18.85
-18.82
-17.62
-15.21
-11.85
-8.02
-4.26
-0.99
1.64
3.74
5.49
7.05
8.41
9.47
10.09
10.26
10.09
9.78
9.51
9.38
9.34
9.31
9.19
8.95
8.57
8.03
7.34
6.50
5.58
4.62
3.66
2.70
1.66
0.45
-0.92
-2.41
-3.88
-5.22
-6.40
-7.49
-8.64
-10.00
-11.61
-13.44
-15.31
-17.04
-18.44
-19.35
-19.68
-19.35
-18.30
-16.46
-13.87
-10.62
-6.98
-3.27
0.19
3.16
5.52
7.28
8.51
9.26
9.60
9.60
9.30
8.84
8.32
7.83
7.38
6.94
6.41
5.73
4.85
3.83
2.74
1.68
0.74
-0.10
-0.88
-1.66
-2.49
-3.36
-4.25
-5.08
-5.83
-6.50
-7.09
-7.63
-8.12
-8.56
-9.02
-9.60
-10.43
-11.60
-13.06
-14.61
-15.93
-16.67
-16.53
-15.40
-13.34
-10.56
-7.35
-3.99
-0.70
2.35
5.07
7.40
9.30
10.77
11.81
12.46
12.75
12.74
12.52
12.14
11.68
11.21
10.74
10.30
9.83
9.29
8.60
7.75
6.73
5.58
4.34
2.99
1.54
-0.05
-1.75
-3.46
-5.02
-6.29
-7.23
-7.95
-8.64
-9.53
-10.73
-12.16
-13.57
-14.62
-14.96
-14.39
-12.91
-10.67
-7.95
-5.04
-2.21
0.38
2.62
4.47
5.90
6.89
7.49
7.79
7.89
7.92
7.99
8.13
8.35
8.59
8.82
9.02
9.15
9.22
9.19
9.03
8.66
8.05
7.14
5.93
4.45
2.77
0.98
-0.80
-2.49
-3.99
-5.25
-6.27
-7.15
-8.04
-9.11
-10.48
-12.10
-13.77
-15.11
-15.74
-15.34
-13.78
-11.19
-7.85
-4.15
-0.46
2.97
6.00
8.62
10.85
12.72
14.22
15.29
15.90
16.05
15.86
15.45
14.97
14.44
13.83
13.03
12.00
10.79
9.54
8.45
7.61
6.94
6.23
5.21
3.71
1.68
-0.75
-3.37
-5.94
-8.29
-10.28
-11.82
-12.89
-13.54
-13.98
-14.50
-15.38
-16.77
-18.52
-20.21
-21.29
-21.24
-19.81
-17.03
-13.21
-8.78
-4.13
0.39
4.52
8.02
10.70
12.43
13.22
13.23
12.74
12.02
11.29
10.68
10.20
9.82
9.45
9.00
8.43
7.73
6.93
6.08
5.19
4.25
3.28
2.34
1.50
0.82
0.29
-0.22
-0.93
-1.97
-3.37
-5.00
-6.66
-8.22
-9.69
-11.26
-13.17
-15.53
-18.26
-21.02
-23.33
-24.71
-24.85
-23.63
-21.17
-17.76
-13.81
-9.69
-5.76
-2.23
0.79
3.30
5.36
7.02
8.30
9.19
9.71
9.94
10.01
10.04
10.10
10.13
10.00
9.61
8.90
7.94
6.88
5.85
4.95
4.24
3.68
3.16
2.58
1.82
0.85
-0.28
-1.42
-2.38
-3.10
-3.60
-4.03
-4.55
-5.28
-6.24
-7.45
-8.83
-10.29
-11.68
-12.74
-13.17
-12.64
-11.01
-8.34
-4.94
-1.23
2.35
5.49
8.06
10.01
11.41
12.31
12.79
12.89
12.69
12.29
11.79
11.29
10.85
10.51
10.28
10.12
10.00
9.87
9.70
9.49
9.26
8.96
8.52
7.82
6.71
5.20
3.39
1.52
-0.14
-1.44
-2.38
-3.14
-3.89
-4.80
-5.93
-7.26
-8.73
-10.32
-11.91
-13.33
-14.27
-14.35
-13.30
-11.05
-7.79
-3.96
-0.06
3.50
6.49
8.86
