1556158049.000000, 1556158049.000000, 1556158049.000000
32.000000, 32.000000, 32.000000
-48,-44,9
-46,-43,7
-46,-43,9
-46,-42,10
-46,-43,9
-44,-43,9
-46,-42,10
-48,-43,10
-47,-44,9
-47,-43,10
-48,-44,10
-46,-43,10
-46,-43,11
-47,-43,11
-48,-43,9
-44,-43,11
-44,-43,12
-45,-43,12
-45,-44,13
-46,-43,12
-47,-43,11
-46,-43,11
-44,-42,14
-46,-43,12
-45,-43,13
-44,-44,13
-43,-44,13
-44,-44,13
-44,-44,14
-45,-44,13
-45,-43,13
-45,-44,13
-45,-44,13
-44,-44,13
-45,-43,14
-45,-43,13
-45,-43,14
-44,-44,14
-44,-43,14
-44,-43,14
-44,-44,14
-44,-44,14
-45,-44,15
-44,-44,15
-44,-44,15
-44,-44,15
-44,-43,15
-44,-43,15
-44,-43,15
-44,-43,15
-44,-43,15
-44,-44,15
-45,-44,15
-44,-44,16
-44,-44,15
-44,-44,15
-44,-44,15
-44,-43,16
-44,-44,15
-44,-44,15
-44,-44,15
-44,-44,15
-43,-44,15
-44,-44,15
-45,-43,16
-44,-43,16
-46,-43,16
-46,-43,16
-47,-43,20
-41,-44,19
-39,-45,17
-41,-45,15
-44,-44,14
-44,-44,12
-40,-45,14
-39,-44,17
-40,-44,17
-46,-45,17
-46,-45,19
-44,-45,18
-42,-45,18
-42,-44,18
-40,-44,18
-38,-45,18
-39,-45,19
-40,-44,19
-40,-45,19
-38,-45,18
-38,-45,19
-40,-45,18
-43,-44,18
-43,-43,18
-45,-41,20
-47,-43,19
-47,-43,18
-46,-43,17
-44,-42,17
-43,-42,17
-44,-42,17
-44,-42,18
-45,-41,18
-43,-42,16
-44,-42,17
-44,-43,17
-44,-45,15
-44,-43,16
-45,-43,15
-44,-43,16
-45,-43,15
-45,-43,16
-45,-43,16
-45,-43,16
-46,-43,16
-46,-43,17
-46,-44,17
-46,-44,16
-44,-43,15
-41,-43,14
-40,-43,14
-40,-44,15
-40,-45,15
-41,-45,15
-41,-46,15
-42,-46,15
-43,-46,15
-44,-44,16
-45,-44,15
-46,-44,14
-45,-45,14
-45,-45,14
-45,-45,14
-44,-45,14
-44,-45,15
-44,-45,14
-44,-45,13
-44,-45,14
-45,-44,15
-46,-44,14
-46,-44,14
-47,-43,14
-46,-41,16
-45,-41,16
-44,-40,17
-42,-40,17
-43,-40,18
-45,-39,18
-46,-39,19
-46,-38,19
-46,-38,19
-46,-39,19
-46,-39,19
-45,-39,20
-45,-40,19
-45,-40,19
-46,-40,19
-46,-41,17
-46,-41,16
-47,-42,15
-46,-41,16
-46,-41,16
-44,-42,16
-44,-43,16
-44,-43,17
-45,-42,18
-46,-40,18
-45,-39,18
-44,-39,17
-45,-39,18
-45,-40,19
-45,-41,19
-46,-41,18
-46,-41,18
-48,-40,17
-48,-40,17
-47,-40,17
-45,-41,17
-45,-41,16
-44,-41,17
-44,-41,16
-44,-42,16
-43,-42,16
-45,-42,15
-47,-41,16
-47,-41,16
-48,-42,16
-46,-42,17
-46,-43,16
-45,-44,17
-44,-44,17
-42,-42,15
-39,-42,14
-40,-42,14
-39,-43,14
-41,-45,12
-43,-45,12
-46,-44,10
-46,-44,12
-48,-45,12
-47,-47,9
-43,-47,10
-44,-48,10
-43,-49,9
-45,-49,10
-45,-48,9
-45,-47,8
-46,-45,9
-44,-44,9
-42,-46,8
-40,-47,8
-40,-48,8
-40,-49,9
-41,-49,8
-43,-49,8
-43,-48,9
-44,-48,9
-44,-48,9
-42,-45,10
-44,-43,11
-43,-43,11
-43,-45,13
-45,-45,16
-44,-45,16
-42,-47,13
-44,-46,13
-43,-45,13
-40,-44,11
-39,-44,11
-40,-44,12
-42,-45,13
-46,-45,12
-47,-45,13
-46,-44,13
-45,-44,12
-44,-44,12
-43,-45,11
-44,-44,11
-43,-45,12
-45,-45,11
-43,-45,11
-44,-44,11
-45,-45,10
-45,-45,13
-45,-45,12
-45,-46,11
-46,-45,11
-45,-45,11
-43,-44,11
-43,-44,11
-45,-44,11
-46,-44,11
-46,-43,11
-45,-44,12
-46,-45,11
-46,-44,11
-45,-43,11
-43,-42,13
-46,-42,12
-46,-42,12
-45,-43,12
-46,-44,11
-42,-44,13
-45,-45,9
-45,-44,10
-45,-44,11
-45,-45,11
-46,-45,11
-46,-45,10
-45,-44,9
-44,-43,9
-45,-43,10
-46,-43,10
-44,-43,10
-47,-44,9
-46,-44,8
-45,-44,9
-47,-44,9
-46,-44,9
-45,-45,9
-45,-44,9
-46,-44,9
-45,-44,9
-45,-45,9
-46,-45,8
-46,-44,9
-46,-44,9
-46,-44,9
-46,-43,9
-45,-43,10
-45,-44,9
-46,-44,10
-46,-44,10
-45,-43,11
-45,-43,10
-45,-43,10
-46,-43,10
-45,-44,11
-46,-44,10
-43,-43,13
-43,-44,11
-46,-43,10
-46,-44,11
-45,-44,11
-46,-45,9
-45,-44,11
-45,-44,11
-45,-44,11
-45,-44,10
-45,-44,10
-45,-44,11
-46,-44,11
-45,-44,11
-45,-44,10
-45,-44,11
-45,-44,11
-46,-44,11
-46,-44,11
-46,-43,11
-45,-44,11
-45,-44,11
-44,-44,11
-45,-44,11
-44,-44,11
-44,-44,12
-45,-44,12
-45,-44,12
-45,-43,12
-45,-44,11
-45,-44,11
-45,-44,12
-45,-45,12
-45,-45,11
-45,-44,11
-45,-44,11
-45,-43,11
-45,-44,12
-44,-44,11
-45,-44,11
-45,-44,11
-45,-44,11
-45,-44,12
-45,-44,11
-45,-44,12
-45,-44,12
-45,-44,11
-45,-44,12
-45,-44,11
-45,-44,12
-45,-44,11
-45,-44,11
-44,-44,11
-45,-44,12
-45,-44,12
-45,-44,12
-45,-44,12
-45,-44,12
-45,-44,12
-45,-44,12
-45,-44,12
-45,-44,12
-45,-44,12
-45,-44,11
-45,-44,12
-44,-44,12
-44,-44,12
-44,-44,13
-45,-44,12
-45,-44,12
-45,-44,12
-44,-44,12
-44,-44,12
-44,-44,12
-44,-44,12
-44,-44,12
-44,-44,12
-44,-44,12
-45,-44,12
-45,-44,12
-44,-44,13
-44,-44,12
-45,-44,11
-44,-44,12
-45,-44,13
-45,-44,11
-45,-44,12
-45,-44,11
-45,-44,12
-45,-44,12
-45,-44,12
-46,-45,10
-44,-44,12
-42,-43,14
-45,-44,12
-45,-44,12
-45,-44,12
-44,-44,12
-45,-44,12
-45,-44,12
-45,-44,12
-45,-44,12
-44,-44,12
-45,-44,12
-45,-44,12
-45,-44,12
-45,-44,12
-45,-44,12
-44,-44,12
-44,-44,12
-45,-44,12
-44,-44,12
-45,-44,12
-45,-44,12
-45,-44,12
-45,-44,12
-45,-44,12
-44,-44,12
-45,-44,12
-44,-44,11
-44,-44,12
-45,-45,11
-45,-44,12
-45,-44,12
-44,-44,12
-44,-44,13
-44,-44,12
-45,-44,12
-44,-44,12
-45,-44,12
-44,-44,13
-44,-44,12
-45,-44,13
-44,-44,13
-44,-44,12
-45,-44,12
-44,-44,12
-45,-44,12
-45,-44,12
-45,-44,12
-45,-44,12
-45,-44,12
-44,-44,12
-45,-44,12
-45,-44,12
-45,-44,12
-44,-44,12
-44,-43,12
-44,-44,12
-44,-44,12
-45,-44,13
-45,-45,12
-44,-44,12
-45,-44,12
-45,-44,12
-44,-44,12
-44,-44,12
-45,-44,12
-45,-44,12
-45,-44,13
-45,-44,12
-44,-44,12
-45,-44,13
-45,-44,12
-44,-44,12
-45,-44,12
-46,-44,12
-44,-44,12
-45,-44,12
-45,-43,13
-45,-44,11
-45,-44,11
-46,-44,12
-45,-44,12
-44,-44,12
-44,-44,11
-44,-44,12
-44,-43,13
-44,-43,12
-47,-44,11
-44,-44,12
-44,-44,13
-45,-44,12
-43,-43,12
-46,-44,12
-46,-44,12
-43,-44,12
-43,-44,11
-45,-44,12
-46,-44,12
-45,-44,11
-42,-44,13
-46,-44,11
-48,-44,10
-44,-44,13
-45,-44,12
-45,-44,12
-44,-44,12
-46,-44,10
-45,-44,11
-44,-44,12
-45,-44,12
-44,-44,12
-45,-44,12
-45,-43,12
-45,-44,11
-44,-44,12
-45,-44,11
-45,-44,11
-44,-44,12
-44,-44,12
-46,-43,11
-45,-44,11
-45,-44,11
-46,-44,11
-45,-44,10
-45,-44,11
-45,-44,11
-45,-44,10
-46,-44,10
-45,-44,11
-45,-44,11
-45,-43,11
-45,-44,11
-44,-43,10
-45,-43,11
-45,-43,11
-45,-44,10
-45,-44,11
-44,-44,11
-46,-44,10
-46,-44,11
-45,-44,10
-45,-44,11
-44,-43,11
-45,-44,11
-45,-44,11
-45,-44,11
-46,-43,11
-45,-44,10
-44,-45,9
-45,-43,12
-45,-43,11
-46,-43,9
-46,-44,10
-46,-44,10
-44,-44,10
-46,-43,11
-46,-44,10
-45,-44,10
-45,-43,11
-45,-44,10
-45,-45,9
-41,-45,11
-42,-44,12
-50,-43,8
-49,-43,7
-46,-42,8
-46,-43,8
-44,-44,9
-44,-44,9
-46,-44,9
-46,-44,9
-46,-43,10
-45,-44,8
-47,-44,7
-44,-43,9
-46,-44,9
-45,-44,8
-44,-44,8
-46,-44,8
-47,-44,8
-46,-43,9
-46,-44,8
-46,-45,7
-46,-45,7
-45,-45,8
-46,-44,8
-46,-44,8
-46,-44,8
-46,-43,9
-46,-44,8
-46,-44,8
-46,-43,9
-46,-44,9
-46,-44,9
-46,-44,9
-46,-43,9
-46,-43,9
-47,-43,9
-47,-43,8
-46,-43,8
-46,-43,9
-46,-43,9
-46,-43,9
-46,-44,8
-47,-43,9
-46,-44,9
-45,-43,9
-46,-43,10
-46,-43,10
-45,-43,9
-46,-43,9
-47,-43,8
-47,-43,8
-47,-43,9
-47,-43,9
-46,-44,9
-46,-44,9
-46,-43,9
-46,-43,9
-45,-43,10
-46,-44,9
-46,-44,9
-46,-43,9
-46,-44,9
-46,-43,9
-46,-44,9
-46,-43,9
-46,-43,9
-43,-43,10
-47,-42,10
-49,-44,8
-46,-44,8
-46,-43,9
-47,-43,9
-45,-43,9
-45,-43,9
-46,-43,8
-46,-43,9
-46,-43,8
-47,-44,8
-47,-43,9
-47,-43,10
-46,-43,9
-46,-43,9
-46,-43,9
-46,-43,9
-47,-43,9
-48,-42,9
-48,-42,9
-48,-41,9
-48,-42,9
-48,-41,9
-48,-42,9
-48,-42,10
-48,-42,10
-46,-42,10
-47,-42,9
-47,-42,8
-48,-42,9
-45,-43,9
-46,-43,9
-47,-42,9
-48,-41,9
-48,-41,10
-48,-42,10
-47,-42,9
-47,-42,10
-47,-42,9
-47,-42,9
-48,-42,10
-47,-41,9
-47,-42,9
-47,-42,9
-47,-43,9
-47,-42,9
-47,-42,9
-48,-42,9
-47,-42,9
-47,-42,9
-47,-42,9
-47,-41,9
-47,-41,10
-47,-42,9
-47,-42,10
-48,-42,9
-47,-42,9
-48,-42,9
-47,-42,10
-47,-42,9
-47,-42,9
-47,-42,10
-46,-42,8
-47,-42,8
-49,-42,9
-47,-43,10
-47,-43,8
-48,-41,10
-45,-41,10
-46,-41,10
-48,-42,8
-48,-42,8
-48,-42,9
-48,-43,8
-48,-42,10
-48,-41,9
-45,-42,9
-48,-41,9
-49,-42,9
-46,-42,9
-48,-42,9
-48,-42,9
-48,-42,10
-47,-42,10
-47,-42,9
-47,-42,9
-47,-42,9
-47,-42,10
-47,-42,10
-47,-42,9
-48,-42,9
-48,-42,10
-47,-42,10
-47,-42,10
-47,-42,10
-47,-42,10
-46,-42,10
-47,-42,10
-47,-42,10
-47,-42,10
-47,-42,10
-47,-42,10
-47,-42,10
-47,-42,10
-48,-42,9
-47,-42,10
-47,-42,10
-47,-42,9
-47,-42,10
-47,-42,10
-48,-42,9
-48,-42,9
-46,-42,10
-47,-41,10
-47,-42,10
-47,-42,11
-47,-42,10
-47,-42,10
-48,-41,10
-47,-42,10
-47,-42,10
-46,-42,10
-46,-42,10
-46,-43,10
-43,-41,12
-48,-42,10
-48,-43,9
-47,-43,9
-48,-42,9
-47,-42,9
-47,-42,9
-46,-42,10
-46,-42,10
-47,-43,9
-48,-43,10
-48,-42,10
-47,-43,10
-46,-43,10
-47,-42,10
-46,-42,10
-46,-42,10
-46,-42,10
-48,-42,9
-47,-42,10
-47,-42,9
-47,-42,9
-47,-42,10
-47,-42,10
-47,-42,10
-47,-42,10
-47,-42,10
-47,-42,10
-47,-42,10
-46,-42,10
-47,-42,9
-47,-43,10
-46,-42,9
-48,-42,10
-47,-41,10
-45,-43,10
-49,-42,9
-47,-43,9
-47,-43,9
-47,-42,9
-47,-42,9
-46,-43,10
-46,-42,11
-46,-42,10
-48,-43,9
-49,-42,9
-47,-42,10
-46,-42,10
-46,-42,10
-46,-42,10
-47,-42,10
-47,-42,9
-47,-43,9
-47,-42,10
-47,-42,10
-47,-42,10
-47,-42,10
-47,-42,10
-45,-42,10
-48,-42,10
-48,-43,10
-48,-43,10
-47,-42,10
-46,-42,10
-46,-43,9
-47,-42,10
-49,-42,10
-47,-42,10
-46,-42,10
-46,-42,10
-47,-42,10
-47,-42,10
-47,-43,10
-47,-42,10
-46,-42,10
-46,-42,10
-47,-42,10
-46,-42,11
-47,-42,10
-46,-42,10
-47,-43,10
-47,-43,10
-46,-43,10
-47,-43,10
-47,-43,10
-47,-42,10
-47,-42,10
-49,-42,10
-46,-43,10
-48,-43,10
-48,-43,9
-47,-42,10
-46,-42,10
-46,-43,10
-46,-43,10
-46,-43,10
-47,-42,10
-47,-42,10
-47,-43,10
-46,-43,10
-46,-43,10
-42,-43,11
-48,-42,10
-46,-43,10
-46,-43,10
-47,-43,9
-47,-42,10
-46,-42,10
-46,-42,10
-47,-43,10
-46,-43,9
-47,-42,10
-47,-43,9
-47,-43,10
-47,-42,10
-47,-42,11
-47,-41,11
-46,-42,11
-46,-42,11
-47,-42,11
-47,-42,11
-46,-42,11
-47,-42,11
-46,-43,10
-47,-42,10
-49,-43,10
-46,-43,12
-46,-43,10
-46,-43,11
-47,-41,11
-47,-42,11
-47,-42,10
-46,-42,11
-47,-42,11
-47,-42,11
-47,-42,11
-47,-42,11
-47,-42,11
-46,-43,11
-46,-42,11
-46,-42,11
-47,-42,11
-47,-42,11
-47,-42,10
-47,-42,11
-47,-42,10
-47,-42,11
-46,-42,11
-47,-42,10
-48,-42,11
-46,-43,10
-47,-42,11
-47,-42,11
-46,-42,10
-46,-42,11
-46,-42,11
-46,-42,11
-46,-42,11
-47,-42,10
-46,-42,11
-46,-43,11
-46,-42,11
-46,-42,11
-47,-43,10
-47,-42,11
-46,-42,11
-47,-43,11
-47,-42,11
-47,-42,11
-46,-43,11
-46,-43,11
-46,-43,11
-46,-43,11
-46,-42,11
-46,-42,11
-46,-42,11
-46,-42,11
-47,-42,11
-47,-42,11
-47,-43,11
-47,-43,11
-47,-43,11
-47,-43,10
-46,-42,11
-46,-42,11
-46,-42,11
-46,-42,11
-46,-42,11
-46,-42,11
-46,-42,11
-47,-43,11
-47,-42,11
-47,-42,11
-47,-42,11
-46,-42,11
-46,-42,11
-46,-42,11
-46,-42,10
-46,-42,10
-47,-43,10
-47,-43,10
-48,-42,11
-47,-42,11
-47,-42,11
-47,-42,11
-47,-43,11
-46,-42,10
-46,-42,10
-46,-42,11
-46,-43,11
-47,-43,10
-46,-42,10
-47,-42,10
-47,-42,11
-47,-42,11
-47,-42,11
-47,-42,11
-47,-42,11
-47,-42,11
-47,-42,11
-47,-42,11
-47,-42,11
-46,-42,11
-46,-42,11
-47,-43,10
-47,-42,11
-47,-42,11
-47,-42,10
-47,-42,10
-47,-42,10
-47,-42,10
-47,-42,10
-46,-42,11
-47,-43,11
-46,-42,11
-47,-42,11
-47,-42,10
-47,-42,10
-47,-42,10
-47,-42,10
-47,-42,10
-47,-42,11
-46,-42,11
-46,-42,11
-46,-42,11
-47,-42,11
-47,-42,10
-47,-42,11
-48,-42,10
-48,-42,10
-46,-41,11
-47,-42,11
-47,-41,11
-47,-42,10
-47,-42,11
-47,-41,11
-47,-42,11
-48,-43,10
-47,-42,11
-47,-42,11
-46,-42,11
-46,-42,11
-46,-42,10
-47,-42,11
-47,-42,10
-47,-42,11
-47,-42,11
-47,-42,10
-47,-42,11
-47,-42,11
-46,-42,11
-47,-42,11
-47,-43,10
-46,-43,11
-47,-42,11
-47,-42,10
-47,-42,11
-46,-42,11
-46,-42,10
-47,-42,11
-47,-42,11
-47,-42,10
-47,-42,11
-47,-42,11
-47,-42,10
-46,-42,11
-46,-42,11
-47,-43,11
-47,-42,11
-46,-42,11
-47,-42,11
-47,-42,11
-46,-43,11
-46,-42,11
-47,-42,11
-47,-43,10
-46,-42,11
-47,-42,11
-47,-42,10
-47,-42,11
-47,-42,11
-46,-42,11
-46,-42,11
-47,-42,11
-47,-42,11
-46,-43,11
-47,-43,10
-47,-42,11
-48,-43,10
-46,-42,11
-46,-41,11
-46,-42,11
-47,-42,10
-48,-43,10
-47,-43,10
-46,-43,11
-46,-42,11
-46,-42,11
-46,-42,11
-46,-42,11
-46,-42,11
-47,-42,11
-47,-43,11
-47,-43,11
-47,-42,11
-46,-42,11
-46,-42,11
-46,-42,11
-46,-42,11
-46,-42,11
-46,-43,11
-46,-43,11
-47,-43,11
-47,-43,11
-46,-42,11
-46,-42,11
-46,-42,11
-47,-42,11
-46,-42,11
-46,-42,11
-46,-42,11
-46,-42,11
-46,-42,11
-49,-43,9
-49,-42,10
-46,-43,10
-45,-42,9
-47,-43,7
-48,-43,8
-48,-42,9
-49,-42,8
-47,-42,9
-46,-42,9
-46,-42,10
-49,-41,8
-46,-43,7
-43,-41,9
-49,-42,8
-48,-43,8
-46,-43,8
-46,-42,8
-49,-42,8
-49,-43,8
-48,-42,8
-47,-42,9
-47,-42,8
-46,-42,8
-47,-42,8
-48,-43,8
-47,-42,9
-48,-42,9
-48,-43,8
-47,-43,8
-47,-42,8
-47,-42,8
-46,-42,8
-47,-42,8
-47,-43,8
-48,-42,8
-48,-42,8
-47,-43,8
-48,-43,7
-48,-43,8
-47,-42,8
-47,-42,8
-47,-42,8
-47,-43,8
-47,-42,8
-48,-43,6
-48,-43,8
-46,-42,8
-46,-42,8
-44,-41,11
-40,-40,14
-37,-39,15
-44,-39,-1
-50,-35,-1
-50,-33,1
-50,-32,-5
-49,-31,-5
-49,-32,-7
-57,-33,-12
-56,-32,-14
-54,-31,-14
-58,-29,-17
-57,-28,-25
-57,-27,-24
-61,-25,-20
-63,-24,-21
-59,-23,-21
-62,-24,-21
-62,-26,-21
-61,-27,-21
-59,-31,-13
-62,-35,-18
-64,-36,-21
-57,-33,-14
-55,-29,-9
-57,-28,-13
-55,-25,-22
-51,-22,-23
-62,-22,-26
-53,-20,-25
-59,-11,-22
-61,-9,-25
-53,-7,-27
-55,-3,-22
-60,-2,-24
-57,-2,-26
-60,-1,-22
-60,0,-20
-61,-1,-25
-62,0,-26
-66,1,-27
-61,5,-26
-55,10,-15
-67,5,-25
-76,6,-34
-69,-4,-29
-48,-8,-16
-80,3,-23
-66,2,-7
-42,-14,-2
-60,-21,-22
-66,-18,-18
-82,-30,-9
-72,-26,-8
-75,-29,6
-61,-40,18
-42,-37,31
-40,-39,33
-35,-40,26
-39,-26,34
-28,-20,34
-31,-10,52
-28,-1,54
-11,-1,66
-29,6,69
-9,4,65
-13,10,67
-26,-1,57
-12,5,68
-18,-1,61
-10,-2,63
-10,0,64
-27,-3,54
-57,-27,30
-81,-23,38
-15,-32,73
-13,-23,69
-36,-1,68
-55,2,57
-66,-17,49
-23,-16,39
19,-9,51
44,-12,87
3,-32,60
0,-38,46
-15,-45,8
-73,-72,-48
-52,-86,-38
11,-44,50
-5,-41,55
-38,-45,31
33,-46,52
32,-43,49
35,-45,47
28,-45,40
19,-47,37
6,-49,32
6,-49,31
7,-47,34
9,-50,38
8,-50,35
8,-49,35
2,-53,34
5,-52,32
4,-53,32
6,-66,38
-2,-49,33
0,-46,35
9,-51,43
1,-50,35
-1,-51,32
-9,-49,35
-20,-57,44
-6,-61,29
-3,-55,27
-2,-56,50
9,-57,51
36,-56,21
-9,-56,-14
-17,-65,-16
-4,-65,-6
-27,-60,-2
-30,-58,14
-30,-52,32
-26,-50,30
-22,-51,31
-16,-55,26
-24,-56,20
-25,-56,20
-20,-56,19
-20,-56,20
-20,-56,21
-16,-56,25
-21,-56,22
-19,-55,23
-20,-55,23
-20,-56,22
-18,-56,23
-18,-56,23
-19,-56,22
-18,-56,23
-20,-56,22
-19,-56,24
-19,-56,23
-22,-56,20
-18,-56,22
-19,-56,20
-20,-56,21
-17,-56,22
-18,-56,23
-20,-53,28
-23,-55,27
-22,-54,26
-20,-55,23
-22,-55,23
-21,-55,23
-21,-55,24
-21,-55,23
-21,-55,24
-20,-55,24
-20,-55,24
-21,-55,24
-21,-55,23
-20,-55,23
-20,-55,23
-20,-55,23
-21,-55,23
-22,-55,23
-21,-55,23
-21,-55,23
-21,-55,23
-20,-55,23
-20,-55,23
-22,-55,23
-21,-55,23
-21,-55,22
-21,-55,23
-21,-55,22
-22,-55,23
-21,-55,23
-22,-55,23
-22,-55,23
-23,-55,23
-21,-55,23
-20,-55,22
-20,-55,22
-21,-55,22
-21,-55,22
-21,-56,21
-20,-55,24
-22,-55,23
-22,-55,23
-22,-55,23
-21,-55,22
-21,-55,22
-21,-56,21
-20,-56,22
-20,-56,22
-21,-55,22
-21,-55,22
-22,-56,22
-21,-55,22
-21,-56,22
-21,-56,22
-20,-56,22
-20,-56,22
-20,-56,22
-20,-56,22
-20,-56,22
-21,-55,22
-21,-55,22
-21,-56,22
-21,-55,22
-22,-55,22
-22,-55,24
-24,-54,23
-23,-54,22
-22,-56,20
-22,-55,20
-24,-55,20
-25,-55,21
-26,-54,22
-25,-54,23
-24,-53,24
-26,-53,25
-26,-53,26
-27,-52,26
-26,-52,26
-26,-51,26
-26,-53,25
-25,-52,25
-26,-53,24
-27,-53,23
-27,-53,23
-26,-53,23
-25,-53,24
-24,-53,25
-24,-53,25
-24,-53,23
-23,-54,23
-24,-53,23
-25,-54,23
-25,-53,24
-25,-53,24
-25,-53,24
-25,-53,24
-25,-53,24
-24,-54,23
-24,-53,24
-24,-53,24
-25,-53,23
-26,-53,23
-25,-53,24
-24,-54,23
-24,-54,23
-24,-54,24
-25,-54,23
-25,-54,23
-25,-54,23
-24,-54,23
-24,-54,23
-23,-54,23
-23,-54,23
-23,-53,24
-25,-54,24
-25,-54,21
-21,-55,20
-22,-55,19
-24,-57,19
-23,-54,20
-24,-55,20
-23,-54,22
-23,-54,23
-24,-54,24
-23,-53,27
-31,-48,42
-32,-47,46
-17,-46,40
-5,-45,32
-8,-50,15
-30,-50,1
-42,-48,-4
-39,-47,-3
-38,-38,2
-45,-34,4
-43,-35,16
-23,-34,31
-11,-33,42
-14,-29,61
-20,-26,67
-29,-20,64
-22,-19,66
-18,-15,68
-28,-11,74
-27,-10,77
-21,-13,60
-22,-16,55
-24,-18,60
-19,-15,64
-18,-14,60
-20,-13,56
-29,-12,56
-28,-12,56
-26,-12,55
-32,-13,56
-32,-11,57
-29,-10,59
-26,-11,57
-26,-11,56
-27,-12,57
-29,-11,56
-28,-13,53
-35,-17,45
-34,-15,50
-31,-13,54
-30,-11,56
-30,-11,55
-31,-12,54
-32,-13,53
-32,-14,52
-31,-14,53
-29,-13,55
-28,-14,53
-28,-14,54
-28,-13,56
-28,-13,55
-28,-13,55
-28,-14,55
-34,-13,52
-39,-13,52
-31,-14,52
-25,-13,49
-27,-14,49
-28,-17,53
-26,-10,63
-29,-9,61
-26,-10,58
-26,-10,57
-26,-11,57
-25,-11,56
-23,-11,58
-22,-12,57
-22,-10,58
-24,-9,59
-18,-7,63
-21,-9,60
-21,-9,60
-21,-10,59
-22,-12,57
-22,-13,57
-23,-15,56
-24,-16,54
-26,-15,54
-26,-14,55
-26,-13,56
-23,-12,58
-14,-13,56
-20,-9,63
-26,-9,62
-25,-10,58
-24,-10,57
-22,-12,56
-23,-11,58
-23,-11,57
-24,-12,55
-27,-10,60
-26,-10,58
-25,-9,57
-18,-12,58
-19,-11,55
-22,-12,56
-22,-12,57
-22,-11,58
-23,-11,58
-26,-10,58
-28,-7,62
-29,-7,60
-26,-10,56
-24,-8,55
-24,-11,56
-26,-11,57
-27,-11,58
-25,-11,57
-22,-12,58
-21,-11,58
-21,-12,57
-22,-11,58
-23,-11,58
-23,-11,58
-23,-11,59
-23,-11,59
-22,-12,58
-21,-11,59
-23,-13,57
-26,-14,54
-26,-13,55
-27,-13,56
-25,-12,57
-25,-12,57
-24,-12,58
-24,-12,58
-24,-12,57
-24,-13,57
-25,-13,56
-25,-13,55
-25,-13,55
-25,-13,57
-26,-14,53
-26,-13,57
-32,-5,58
-27,-5,59
-18,-9,59
-32,-11,60
-22,-12,54
-20,-12,53
-24,-9,56
-28,-10,64
-21,-11,57
-22,-11,53
-20,-11,59
-24,-11,57
-42,-4,62
-22,-10,57
-22,-11,51
-24,-11,54
-27,-10,59
-28,-9,60
-26,-10,58
-25,-10,58
-24,-11,57
-23,-11,57
-24,-12,57
-23,-12,57
-23,-12,57
-24,-12,57
-24,-12,57
-24,-11,58
-25,-11,58
-24,-12,57
-26,-13,56
-23,-13,56
-22,-13,56
-20,-14,57
-22,-13,58
-20,-13,58
-18,-14,58
-31,-11,60
-35,-10,59
-21,-12,58
-23,-12,54
-24,-11,58
-24,-12,57
-24,-12,55
-26,-13,55
-21,-14,56
-20,-13,56
-21,-12,56
-24,-10,60
-26,-8,58
-30,-8,58
-30,-8,58
-25,-10,58
-26,-11,56
-17,-13,56
-20,-12,56
-27,-10,57
-25,-10,63
-21,-11,59
-20,-12,51
-26,-12,57
-27,-11,59
-29,-8,59
-23,-9,56
-20,-9,58
-22,-10,59
-21,-10,58
-21,-10,59
-24,-10,58
-23,-9,59
-23,-9,58
-23,-10,58
-24,-9,58
-23,-10,58
-25,-10,58
-23,-9,59
-24,-9,59
-22,-9,59
-22,-10,58
-22,-10,58
-23,-12,58
-24,-12,57
-24,-13,56
-22,-13,58
-24,-12,58
-23,-10,57
-27,-11,59
-19,-12,53
-20,-13,54
-19,-13,56
-21,-14,57
-21,-13,60
-25,-10,61
-21,-12,61
-19,-11,59
-16,-9,52
-20,-6,61
-21,-1,63
-16,-3,64
-19,-7,60
-25,-4,66
-11,-7,59
-29,-9,59
-20,-9,61
-12,-7,61
-24,-9,59
-20,-9,60
-23,-9,51
-13,-9,57
-13,-8,50
-20,-9,69
-13,-12,68
-17,-10,64
-14,-10,55
-12,-11,57
-16,-11,59
-19,-11,62
-23,-12,59
-23,-12,58
-21,-12,56
-24,-15,54
-28,-16,50
-28,-14,57
-21,-12,61
-22,-11,60
-23,-12,58
-24,-12,56
-28,-12,56
-30,-13,54
-30,-14,52
-24,-13,55
-25,-11,59
-26,-10,59
-30,-11,55
-29,-12,55
-30,-11,56
-28,-13,54
-29,-12,55
-29,-12,55
-28,-13,54
-32,-12,54
-31,-12,54
-30,-13,53
-28,-13,55
-27,-13,55
-28,-13,55
-28,-12,55
-29,-13,55
-30,-13,55
-29,-12,55
-30,-13,55
-29,-12,54
-28,-13,55
-30,-13,55
-31,-13,54
-33,-13,53
-32,-12,53
-30,-13,53
-30,-13,53
-30,-14,53
-32,-13,53
-32,-12,54
-32,-13,52
-33,-12,54
-30,-13,54
-31,-13,54
-32,-12,54
-32,-13,52
-31,-13,54
-31,-13,53
-32,-13,53
-33,-13,53
-34,-13,52
-33,-13,53
-33,-13,53
-32,-13,53
-33,-13,52
-33,-13,53
-34,-13,55
-32,-12,52
-29,-15,54
-27,-14,53
-27,-14,51
-33,-15,52
-34,-13,51
-36,-13,50
-37,-13,51
-38,-12,51
-36,-13,50
-36,-13,52
-33,-13,53
-33,-13,52
-32,-13,53
-31,-13,53
-31,-13,53
-32,-13,53
-32,-12,53
-33,-12,54
-33,-13,52
-33,-14,52
-34,-13,52
-33,-13,52
-32,-13,53
-32,-13,52
-32,-13,53
-33,-13,52
-33,-13,53
-32,-13,53
-32,-13,53
-32,-12,53
-33,-12,53
-32,-12,53
-33,-12,54
-33,-12,53
-32,-13,52
-33,-13,53
-33,-13,52
-33,-13,53
-33,-13,52
-33,-12,54
-32,-12,53
-32,-12,53
-32,-12,53
-33,-12,52
-33,-12,53
-33,-12,53
-33,-12,53
-33,-12,53
-32,-12,53
-31,-13,52
-31,-13,53
-32,-12,54
-35,-8,60
-42,-6,63
-57,-4,79
-64,-5,66
-55,-6,50
-55,-13,21
-40,-39,3
-37,-46,2
-25,-38,24
-18,-41,28
-20,-46,23
-11,-48,22
-39,-46,22
-39,-40,37
-56,-33,42
-57,-35,39
-61,-39,23
-39,-37,34
-39,-41,26
-11,-39,38
-26,-45,32
-55,-52,28
-47,-64,18
-47,-66,26
-54,-61,22
-37,-56,25
-32,-34,48
-44,-31,34
8,-14,47
-1,17,51
0,67,34
11,-36,36
61,-128,27
-16,48,77
-55,-3,48
-38,-19,40
-17,-17,55
-44,-29,51
-36,-26,66
-29,-27,73
-38,-32,51
-51,-19,41
-67,-16,37
-25,-14,41
2,3,57
-23,-10,41
-12,-32,39
22,-27,53
2,-18,66
-47,-19,52
-72,-19,44
-50,-28,42
-22,-22,57
-60,-25,38
-46,-22,47
-44,-22,48
-41,-23,43
-34,-21,50
-32,-22,45
-49,-26,49
-34,-25,59
-12,-22,53
-14,-28,46
-14,-29,51
-21,-30,59
-23,-31,57
-26,-28,52
-27,-35,57
-13,-34,53
-44,-25,49
-52,-26,19
-49,-36,30
-8,-31,40
-12,-25,47
-56,-28,28
-78,-38,16
-36,-40,22
-26,-38,22
-20,-39,31
-38,-29,30
-50,-22,65
-73,-31,43
-17,-28,38
-20,-21,43
-34,-27,48
-28,-34,55
-32,-37,47
-19,-34,43
-29,-28,49
-22,-32,53
-34,-30,53
-30,-31,47
-31,-31,45
-39,-27,42
-26,-26,49
-24,-27,42
-23,-32,42
-30,-33,51
-29,-38,48
-21,-36,49
-24,-39,48
-25,-41,49
-23,-36,54
-23,-35,51
-22,-30,50
-32,-28,39
-48,-26,36
-26,-25,54
-27,-30,44
-31,-36,41
-33,-35,42
-28,-36,46
-24,-39,47
-23,-37,48
-28,-37,50
-27,-37,44
-27,-38,44
-24,-40,48
-22,-38,45
-27,-38,37
-28,-35,33
-33,-38,40
-27,-38,42
-34,-43,31
-39,-41,37
-40,-42,34
-40,-42,26
-39,-54,33
-44,-42,33
-37,-44,16
-41,-46,11
-40,-48,16
-34,-48,27
-33,-48,18
-34,-49,16
-35,-49,17
-37,-49,20
-35,-49,20
-35,-48,19
-36,-48,19
-36,-48,21
-36,-48,22
-35,-48,23
-35,-48,22
-36,-48,24
-36,-47,25
-37,-47,22
-35,-48,23
-35,-48,24
-36,-48,19
-34,-49,19
-37,-48,20
-38,-46,21
-36,-48,21
-36,-48,20
-36,-48,22
-34,-48,22
-34,-48,20
-36,-49,20
-36,-48,22
-35,-48,21
-35,-48,20
-35,-49,21
-35,-48,21
-36,-48,21
-36,-48,21
-35,-48,20
-35,-48,21
-35,-48,22
-35,-48,21
-35,-48,21
-36,-48,22
-36,-48,21
-36,-48,20
-35,-48,21
-36,-48,22
-36,-48,21
-36,-48,21
-37,-48,21
-36,-48,21
-36,-48,20
-36,-48,20
-36,-48,21
-36,-48,21
-36,-48,21
-35,-48,21
-35,-48,21
-36,-48,21
-36,-47,21
-35,-48,22
-35,-48,22
-32,-47,21
-34,-48,21
-38,-49,23
-38,-47,24
-34,-47,21
-36,-47,21
-36,-47,22
-37,-47,23
-36,-46,24
-36,-46,24
-36,-46,22
-36,-47,22
-37,-47,20
-36,-45,24
-37,-46,29
-36,-46,25
-35,-46,25
-34,-46,28
-36,-46,28
-36,-45,28
-35,-46,29
-31,-46,29
-30,-45,29
-34,-46,28
-33,-44,30
-33,-45,31
-35,-45,30
-34,-43,30
-36,-44,30
-37,-44,27
-37,-43,29
-39,-44,30
-34,-40,35
-36,-41,35
-37,-40,34
-33,-40,35
-32,-40,36
-31,-41,38
-29,-41,37
-34,-40,38
-38,-40,39
-39,-41,33
-30,-41,35
-30,-41,36
-30,-43,35
-24,-45,34
-24,-46,32
-22,-46,30
-19,-46,36
-25,-46,35
-32,-43,37
-30,-44,37
-30,-43,38
-30,-43,36
-20,-45,36
-20,-46,34
-30,-44,39
-35,-41,41
-30,-40,40
-24,-43,40
-31,-44,33
-33,-44,31
-29,-44,33
-27,-43,33
-30,-45,30
-30,-41,28
-32,-44,32
-42,-41,31
-29,-39,42
-37,-37,33
-87,-26,29
-39,-35,38
-33,-36,30
-38,-38,23
-44,-39,26
-44,-41,32
-41,-42,32
-37,-42,28
-32,-40,29
-42,-41,22
-35,-40,32
-45,-40,33
-43,-40,32
-31,-42,33
-33,-43,29
-47,-34,36
-32,-41,43
-34,-39,29
-35,-39,22
-39,-40,32
-41,-38,38
-31,-43,33
-41,-39,28
-40,-39,28
-36,-38,38
-44,-37,33
-38,-37,35
-36,-38,34
-36,-39,32
-44,-36,36
-40,-37,42
-32,-38,34
-36,-40,28
-37,-40,29
-32,-43,31
-33,-40,35
-32,-40,30
-31,-39,45
-28,-40,41
-30,-41,35
-35,-37,36
-30,-39,41
-34,-39,35
-31,-38,30
-32,-38,35
-48,-39,42
-36,-39,32
-39,-39,28
-43,-40,29
-40,-40,35
-37,-41,33
-38,-41,33
-26,-43,28
-23,-44,30
-21,-44,33
-26,-44,34
-27,-42,36
-35,-41,39
-33,-40,40
-32,-41,39
-34,-42,34
-36,-43,29
-35,-43,32
-32,-43,34
-35,-42,34
-34,-42,34
-33,-42,35
-35,-42,34
-34,-42,33
-32,-41,34
-34,-42,34
-33,-43,33
-24,-46,26
-29,-44,30
-43,-42,29
-40,-40,33
-35,-41,32
-39,-40,33
-33,-42,36
-36,-42,32
-36,-41,34
-33,-44,32
-33,-42,29
-35,-43,34
-30,-43,34
-30,-42,32
-31,-41,37
-30,-40,35
-36,-41,33
-33,-43,31
-35,-42,32
-34,-40,35
-35,-40,36
-35,-41,37
-35,-43,33
-35,-41,31
-31,-42,36
-30,-41,37
-34,-41,35
-34,-41,36
-34,-41,35
-33,-43,33
-32,-43,30
-32,-44,30
-32,-43,33
-33,-42,35
-33,-42,35
-33,-42,35
-33,-42,35
-32,-42,34
-33,-42,34
-33,-42,34
-33,-42,35
-32,-42,34
-33,-43,33
-32,-43,32
-33,-43,33
-33,-43,31
-33,-42,31
-32,-43,38
-33,-41,36
-32,-42,34
-30,-42,34
-29,-43,34
-31,-41,22
-52,-42,8
-50,-40,15
-59,-40,11
-46,-40,15
-44,-41,17
-47,-42,13
-44,-41,16
-46,-40,16
-47,-40,17
-43,-41,19
-44,-40,21
-45,-40,19
-44,-41,21
-44,-40,22
-45,-40,21
-44,-40,22
-44,-40,21
-45,-40,21
-45,-40,22
-45,-40,21
-44,-40,21
-44,-40,21
-44,-41,20
-45,-41,19
-45,-40,21
-44,-41,22
-43,-41,21
-45,-41,21
-44,-40,22
-44,-41,21
-42,-41,21
-43,-41,20
-43,-41,19
-44,-40,22
-44,-41,25
-44,-40,23
-45,-40,23
-45,-41,23
-44,-40,23
-44,-40,21
-44,-40,22
-44,-41,24
-44,-40,23
-44,-40,22
-43,-41,21
-44,-41,22
-43,-41,22
-43,-41,23
-44,-40,24
-43,-41,23
-42,-41,22
-41,-41,23
-42,-41,23
-43,-41,23
-41,-41,22
-42,-42,23
-43,-41,23
-42,-42,23
-42,-41,22
-42,-43,21
-42,-41,23
-41,-41,23
-41,-42,19
-44,-41,26
-45,-41,27
-44,-39,27
-44,-40,26
-44,-40,24
-44,-40,23
-44,-40,24
-44,-40,24
-44,-40,22
-43,-40,22
-43,-41,23
-43,-41,22
-43,-41,23
-44,-41,24
-42,-41,23
-41,-41,23
-42,-42,22
-42,-41,22
-42,-41,23
-42,-41,24
-43,-41,24
-43,-41,24
-43,-41,25
-42,-41,24
-42,-41,24
-41,-41,23
-42,-41,23
-42,-41,24
-42,-41,24
-42,-41,24
-42,-41,24
-42,-41,24
-42,-41,23
-42,-41,22
-42,-41,23
-41,-41,23
-41,-41,24
-40,-41,21
-41,-42,22
-43,-41,24
-44,-39,27
-45,-39,27
-44,-40,25
-43,-41,23
-43,-41,23
-43,-40,24
-43,-40,25
-43,-40,24
-43,-40,23
-43,-40,24
-43,-40,24
-43,-40,24
-43,-40,24
-44,-40,26
-45,-41,25
-42,-41,22
-41,-42,20
-41,-42,22
-43,-41,24
-43,-41,23
-44,-41,22
-43,-41,23
-42,-41,23
-43,-41,22
-43,-41,23
-43,-41,23
-43,-41,22
-42,-41,22
-42,-41,22
-42,-41,22
-42,-41,22
-43,-41,22
-44,-40,25
-43,-40,25
-44,-41,22
-42,-41,23
-43,-41,24
-43,-40,25
-43,-40,24
-43,-40,24
-43,-40,25
-43,-41,23
-43,-41,22
-44,-41,21
-43,-41,22
-43,-41,23
-43,-40,24
-42,-40,27
-39,-40,31
-41,-40,29
-41,-40,26
-40,-41,26
-40,-41,26
-41,-40,28
-41,-39,28
-42,-40,28
-44,-40,27
-37,-38,30
-41,-40,27
-39,-38,30
-43,-40,28
-41,-39,29
-40,-39,31
-37,-39,29
-39,-39,30
-40,-39,28
-39,-38,30
-40,-38,32
-41,-37,33
-40,-39,30
-40,-39,28
-41,-39,30
-39,-38,30
-40,-39,30
-41,-39,30
-40,-38,31
-40,-38,31
-40,-39,31
-40,-39,30
-40,-39,29
-39,-39,29
-39,-40,29
-39,-40,29
-39,-40,30
-40,-39,31
-39,-40,29
-40,-40,29
-40,-40,28
-40,-40,28
-40,-40,27
-40,-40,27
-40,-40,28
-40,-40,28
-40,-40,27
-40,-41,28
-41,-40,28
-43,-44,27
-44,-36,30
-44,-38,30
-36,-37,33
-33,-41,32
-37,-39,30
-36,-39,32
-35,-40,33
-42,-36,35
-47,-36,37
-47,-35,43
-30,-41,42
-29,-40,37
-16,-41,26
-19,-39,28
-22,-37,33
-26,-35,47
-8,-37,50
-8,-37,47
-11,-37,51
-11,-38,54
-5,-39,52
-11,-39,49
-27,-32,52
-24,-30,58
-26,-26,51
-19,-26,50
-28,-25,55
-27,-26,59
-29,-27,54
-28,-26,54
-27,-26,51
-28,-28,49
-29,-27,50
-27,-26,52
-27,-25,51
-27,-25,52
-28,-26,52
-24,-26,51
-26,-25,54
-24,-26,51
-19,-26,56
-27,-28,46
-29,-28,46
-21,-23,57
-20,-23,59
-20,-23,56
-22,-24,55
-23,-26,55
-22,-25,54
-21,-25,56
-21,-26,55
-22,-25,51
-23,-25,52
-21,-26,53
-22,-26,53
-22,-26,55
-17,-25,60
-23,-26,52
-24,-27,50
-23,-29,49
-19,-22,60
-9,-29,63
-23,-30,43
-20,-31,44
-15,-30,51
-16,-28,57
-18,-28,55
-18,-27,54
-19,-29,52
-17,-29,55
-18,-28,55
-19,-28,54
-20,-29,51
-20,-29,52
-19,-28,54
-19,-28,53
-19,-28,53
-19,-28,53
-17,-29,54
-19,-30,53
-19,-29,52
-18,-31,51
-19,-31,51
-19,-30,51
-18,-30,52
-18,-30,53
-17,-30,53
-19,-31,51
-20,-31,51
-16,-31,50
-16,-31,50
-18,-31,51
-18,-31,52
-20,-31,51
-21,-30,53
-15,-30,57
-13,-30,56
-13,-31,54
-14,-32,54
-13,-31,54
-13,-32,54
-13,-33,50
-14,-34,49
-13,-34,50
-12,-33,51
-12,-34,52
-12,-34,53
-9,-34,53
-15,-33,54
-14,-35,53
-10,-36,48
-11,-36,47
-12,-36,49
-11,-35,51
-10,-36,50
-11,-36,49
-7,-36,49
-7,-35,49
-10,-35,51
-8,-34,55
-7,-34,54
-12,-34,52
-11,-34,52
-10,-35,52
-9,-35,51
-6,-36,50
-6,-36,48
-8,-36,48
-11,-35,53
-13,-34,55
-11,-35,52
-9,-37,49
-19,-36,51
-17,-32,50
-18,-34,48
-16,-34,51
-21,-34,51
-20,-33,50
-21,-34,49
-18,-34,51
-16,-35,51
-14,-35,50
-15,-36,49
-16,-36,49
-15,-36,48
-16,-35,49
-14,-35,50
-14,-35,51
-20,-35,47
-9,-36,53
-3,-35,51
-15,-36,51
-15,-35,50
-13,-35,51
-10,-35,51
-13,-36,51
-14,-36,51
-13,-33,51
-11,-34,52
-14,-35,52
-15,-35,51
-14,-34,50
-18,-36,49
-18,-34,49
-12,-35,50
-16,-35,49
-16,-34,51
-14,-35,51
-14,-35,51
-14,-36,49
-14,-36,50
-14,-36,50
-14,-35,50
-14,-35,51
-14,-35,51
-15,-35,50
-15,-35,51
-13,-35,51
-15,-35,51
-16,-35,50
-12,-35,50
-11,-36,49
-16,-36,50
-12,-34,52
-13,-35,50
-13,-35,50
-14,-35,50
-12,-35,51
-11,-36,52
-12,-35,51
-16,-34,51
-13,-34,52
-20,-34,47
-23,-34,48
-23,-34,47
-24,-33,45
-28,-32,45
-28,-33,45
-28,-32,48
-29,-31,48
-28,-31,49
-29,-31,48
-31,-31,45
-32,-31,45
-33,-31,43
-35,-31,44
-34,-31,45
-33,-31,45
-34,-31,44
-34,-31,43
-34,-31,43
-34,-31,44
-33,-31,43
-35,-31,43
-33,-32,43
-33,-32,43
-32,-32,45
-32,-32,44
-32,-32,44
-32,-32,43
-32,-32,43
-32,-32,44
-32,-32,44
-32,-32,45
-33,-32,44
-32,-32,43
-31,-33,44
-31,-32,45
-31,-32,45
-32,-32,44
-32,-32,45
-32,-32,44
-31,-32,44
-32,-33,43
-33,-33,43
-32,-32,44
-33,-32,44
-31,-32,46
-29,-32,45
-29,-32,46
-27,-32,48
-27,-32,47
-28,-32,46
-28,-32,46
-29,-32,46
-26,-32,48
-27,-32,48
-28,-32,47
-29,-32,45
-28,-32,46
-28,-32,48
-27,-32,48
-28,-32,46
-27,-32,46
-28,-33,47
-29,-32,47
-28,-32,47
-29,-33,46
-28,-33,45
-28,-33,47
-27,-33,46
-27,-33,45
-27,-34,45
-26,-33,46
-26,-34,46
-26,-33,46
-27,-34,47
-27,-33,46
-26,-33,46
-26,-34,46
-26,-34,47
-25,-33,48
-27,-33,48
-27,-33,46
-27,-33,45
-26,-34,46
-25,-33,50
-23,-32,51
-25,-33,49
-23,-33,49
-22,-33,49
-21,-33,50
-23,-34,47
-24,-33,46
-22,-34,45
-23,-34,48
-23,-34,48
-23,-33,50
-22,-33,49
-23,-33,49
-23,-34,49
-22,-33,48
-22,-33,48
-22,-34,48
-23,-34,49
-23,-34,49
-22,-33,48
-22,-34,48
-23,-34,48
-22,-34,49
-22,-33,49
-23,-33,49
-22,-34,48
-22,-33,48
-23,-34,48
-23,-33,49
-23,-34,49
-22,-34,47
-24,-34,48
-24,-33,49
-23,-34,47
-22,-34,48
-24,-34,46
-22,-34,47
-23,-35,45
-26,-36,43
-20,-33,51
-24,-31,53
-23,-31,53
-23,-32,51
-22,-32,50
-22,-32,51
-22,-32,51
-20,-31,52
-20,-32,53
-22,-31,53
-21,-32,49
-22,-32,46
-26,-31,40
-19,-36,56
-22,-32,52
-24,-32,50
-20,-33,53
-16,-35,52
-25,-34,41
-26,-34,42
-27,-34,42
-30,-30,46
-34,-31,49
-39,-29,47
-35,-30,45
-33,-32,42
-33,-32,42
-33,-32,42
-32,-31,45
-32,-31,46
-32,-31,46
-31,-31,48
-30,-31,46
-31,-32,45
-31,-31,44
-30,-32,45
-29,-32,46
-31,-32,45
-32,-32,45
-32,-32,45
-30,-32,46
-30,-32,46
-32,-32,45
-32,-32,46
-33,-32,46
-35,-31,46
-36,-31,44
-21,-36,47
-20,-36,50
-17,-37,51
-18,-37,44
-21,-39,41
-22,-38,42
-19,-39,42
-17,-39,43
-15,-40,43
-17,-38,50
-11,-39,49
-11,-38,50
-20,-39,48
-14,-36,49
-19,-39,49
-23,-40,40
-19,-41,36
-29,-42,33
-28,-40,40
-25,-39,43
-28,-39,43
-28,-38,42
-36,-39,35
-38,-38,38
-31,-36,46
-32,-36,45
-36,-37,41
-35,-38,36
-36,-39,33
-32,-39,36
-33,-38,38
-36,-38,37
-38,-38,37
-37,-38,34
-40,-38,31
-36,-38,35
-35,-36,46
-36,-38,38
-38,-38,37
-32,-37,42
-37,-40,36
-36,-39,38
-22,-38,39
-30,-41,34
-28,-39,39
-17,-41,47
-27,-40,40
-26,-39,40
-25,-41,40
-27,-44,31
-28,-43,32
-10,-46,38
-36,-45,32
-41,-41,31
-41,-37,40
-40,-38,40
-37,-39,39
-21,-39,39
-21,-40,47
-27,-42,42
-32,-35,37
-35,-37,38
-35,-36,37
-32,-37,43
-37,-36,42
-40,-36,43
-37,-37,41
-30,-38,39
-29,-40,35
-30,-40,38
-29,-39,39
-28,-39,39
-33,-39,39
-32,-38,40
-30,-39,40
-29,-39,39
-29,-39,39
-27,-38,41
-28,-38,42
-30,-38,42
-28,-38,42
-28,-38,42
-28,-38,42
-30,-39,42
-26,-38,43
-26,-39,41
-26,-40,40
-28,-39,40
-29,-38,41
-30,-38,42
-29,-38,44
-31,-38,42
-31,-37,40
-30,-38,41
-29,-38,42
-33,-38,38
-34,-38,38
-33,-38,38
-34,-38,37
-34,-37,38
-34,-38,38
-33,-38,38
-35,-37,36
-36,-37,37
-35,-37,37
-41,-37,32
-40,-37,32
-41,-37,32
-38,-37,35
-39,-37,35
-39,-37,32
-34,-38,34
-34,-38,33
-42,-37,30
-44,-36,33
-45,-36,31
-44,-37,28
-41,-37,29
-39,-37,31
-43,-37,30
-43,-37,30
-42,-36,30
-45,-36,31
-42,-36,30
-43,-36,29
-42,-36,30
-43,-36,29
-43,-36,30
-46,-35,31
-44,-34,31
-46,-34,34
-48,-33,38
-49,-33,38
-31,-37,34
-22,-39,32
-24,-43,32
-34,-41,34
-37,-38,38
-37,-37,38
-31,-37,40
-31,-38,40
-29,-39,39
-36,-40,39
-25,-44,30
-25,-36,32
-34,-40,32
-17,-39,23
-18,-31,49
-61,-34,45
-27,-30,55
-18,-32,53
-23,-35,45
-18,-33,48
-24,-32,46
-26,-28,66
-27,-28,58
-22,-31,52
-19,-33,51
-26,-33,49
-25,-33,49
-14,-32,49
-21,-33,50
-21,-33,52
-15,-33,51
-14,-34,49
-20,-34,49
-18,-33,49
-14,-35,46
-17,-36,46
-15,-39,45
-38,-35,54
-14,-31,51
-21,-37,43
-20,-36,47
-16,-32,49
-22,-34,52
-19,-33,51
-21,-34,51
-29,-36,41
-22,-34,48
-18,-39,54
-12,-36,46
-14,-36,45
-24,-40,41
-26,-38,42
-32,-38,39
-24,-37,39
-25,-37,50
-31,-35,53
-40,-35,47
-30,-36,43
-25,-38,38
-23,-40,37
-23,-42,39
-23,-41,40
-29,-40,45
-26,-39,51
-26,-38,49
-23,-40,39
-27,-41,35
-27,-43,36
-35,-44,35
-17,-46,23
-19,-43,21
-23,-49,28
-25,-42,39
-32,-39,45
-44,-39,37
-20,-42,32
-23,-44,31
-33,-49,27
-45,-34,22
-52,-44,21
-54,-37,16
-37,-42,23
-52,-44,17
-64,-43,19
-31,-42,17
-34,-44,15
-48,-43,19
-39,-41,24
-45,-42,18
-41,-43,11
-46,-42,18
-43,-41,20
-46,-44,17
-40,-42,21
-45,-43,20
-47,-40,19
-45,-41,21
-44,-43,17
-43,-43,17
-46,-43,14
-43,-43,15
-37,-43,19
-49,-40,18
-52,-38,19
-49,-39,28
-53,-39,25
-55,-40,20
-39,-41,20
-30,-43,24
-40,-45,21
-45,-43,21
-42,-42,24
-35,-42,27
-38,-42,27
-41,-42,24
-41,-42,24
-41,-42,24
-40,-42,25
-39,-42,26
-42,-42,24
-43,-42,24
-40,-42,25
-40,-42,25
-41,-42,24
-41,-42,25
-41,-42,24
-41,-42,24
-40,-42,24
-41,-43,23
-40,-43,23
-41,-43,24
-41,-43,24
-39,-43,23
-40,-43,24
-40,-43,23
-40,-43,24
-42,-42,24
-40,-43,25
-39,-42,26
-40,-42,25
-40,-43,24
-40,-43,23
-40,-42,25
-41,-42,25
-40,-42,25
-40,-42,24
-40,-43,24
-40,-43,24
-40,-43,25
-40,-42,25
-40,-43,25
-40,-43,25
-40,-43,25
-40,-43,25
-40,-43,25
-40,-42,25
-40,-42,25
-40,-42,25
-40,-42,25
-40,-42,25
-40,-42,25
-40,-42,25
-40,-42,25
-40,-43,25
-40,-43,26
-40,-43,25
-40,-42,26
-40,-43,26
-40,-42,25
-40,-43,25
-40,-42,25
-40,-42,26
-40,-42,25
-40,-43,25
-40,-42,25
-40,-42,25
-40,-43,25
-40,-43,25
-40,-43,25
-40,-43,25
-40,-43,25
-40,-43,24
-40,-43,25
-40,-42,25
-40,-43,25
-40,-43,24
-40,-43,24
-40,-43,24
-40,-42,25
-40,-43,24
-40,-42,24
-40,-43,25
-39,-42,26
-40,-42,26
-41,-42,26
-42,-42,25
-39,-43,24
-38,-43,24
-40,-42,25
-40,-42,26
-40,-42,26
-40,-42,26
-39,-42,28
-39,-42,28
-39,-42,28
-39,-42,27
-39,-43,27
-39,-43,27
-41,-44,22
-42,-44,20
-53,-41,19
-34,-38,43
-33,-37,57
-42,-37,49
-30,-33,46
-25,-26,53
-34,-34,34
-26,-35,21
-24,-30,24
-29,-20,37
-40,-22,29
-39,-20,23
-58,-19,-6
-67,-39,-24
-70,-45,-31
-70,-56,-44
-69,-51,-32
-54,-41,-12
-1,-26,19
-6,-13,72
-31,-14,70
-31,-11,85
-32,-12,79
-30,-14,67
-36,-12,49
-31,-16,56
-33,-15,62
-34,-7,60
-30,-8,60
-27,-8,58
-27,-10,53
-29,-10,54
-34,-8,54
-33,-8,55
-31,-9,54
-32,-11,54
-30,-10,54
-31,-9,55
-34,-9,58
-31,-11,53
-29,-11,53
-28,-11,52
-29,-13,52
-26,-13,54
-30,-11,57
-30,-10,56
-30,-10,55
-30,-11,55
-30,-11,53
-34,-10,54
-33,-11,52
-35,-11,51
-35,-11,52
-33,-11,53
-31,-12,53
-30,-11,54
-29,-12,55
-25,-9,57
-24,-8,58
-27,-7,60
-26,-8,58
-26,-9,57
-27,-10,56
-27,-11,55
-28,-11,55
-29,-10,55
-30,-11,54
-31,-10,54
-30,-11,54
-30,-11,54
-30,-11,54
-32,-12,53
-32,-11,53
-31,-11,53
-29,-12,53
-29,-12,55
-31,-11,55
-35,-10,53
-35,-10,51
-35,-10,52
-34,-11,53
-33,-11,52
-32,-11,54
-32,-11,53
-30,-11,55
-24,-10,58
-30,-11,54
-34,-11,52
-34,-11,52
-32,-10,53
-32,-11,52
-33,-6,61
-30,-8,50
-32,-7,55
-26,-9,55
-28,-10,54
-29,-8,56
-33,-7,55
-40,-12,48
-40,-12,50
-32,-11,55
-27,-11,61
-24,-11,59
-31,-14,46
-34,-13,48
-28,-13,55
-30,-10,58
-36,-9,54
-32,-13,51
-30,-13,50
-42,-15,48
-33,-12,53
-28,-8,59
-25,-7,61
-26,-13,49
-32,-13,51
-28,-12,56
-29,-11,57
-34,-11,53
-34,-11,52
-36,-11,52
-31,-12,53
-32,-12,54
-30,-12,53
-32,-11,54
-31,-12,53
-31,-12,53
-32,-11,54
-32,-12,53
-32,-12,52
-32,-11,54
-30,-11,55
-30,-13,53
-33,-11,55
-28,-12,53
-33,-10,50
-33,-11,59
-27,-11,47
-31,-13,51
-32,-15,51
-29,-13,53
-31,-13,54
-29,-12,54
-30,-12,55
-30,-12,54
-33,-12,53
-34,-12,53
-34,-12,52
-35,-12,52
-32,-12,54
-30,-11,54
-32,-12,53
-33,-12,53
-34,-12,52
-33,-12,53
-34,-13,52
-35,-12,51
-33,-11,54
-31,-10,55
-36,-11,52
-37,-12,49
-37,-13,49
-35,-12,52
-30,-12,53
-32,-12,53
-32,-12,54
-30,-11,55
-30,-11,55
-32,-11,54
-32,-12,53
-32,-12,53
-35,-12,52
-33,-11,53
-32,-11,53
-33,-11,53
-33,-11,53
-33,-12,53
-33,-12,53
-31,-11,55
-33,-11,53
-34,-12,52
-32,-12,53
-33,-12,52
-33,-11,53
-33,-12,52
-33,-12,53
-33,-12,53
-33,-11,53
-33,-12,53
-33,-11,53
-33,-12,53
-33,-12,53
-33,-11,53
-33,-12,52
-34,-13,52
-33,-11,54
-32,-11,53
-33,-12,53
-33,-12,53
-34,-12,51
-34,-12,52
-33,-11,53
-33,-12,52
-33,-12,53
-33,-12,53
-33,-12,53
-33,-12,53
-33,-12,53
-33,-12,52
-33,-12,52
-33,-12,52
-33,-12,53
-33,-12,53
-32,-12,53
-33,-12,52
-33,-12,52
-33,-12,53
-33,-12,53
-33,-12,53
-33,-12,53
-33,-12,53
-33,-12,52
-33,-12,53
-33,-12,53
-33,-12,52
-33,-12,53
-33,-12,53
-33,-12,53
-33,-12,53
-33,-12,53
-32,-11,54
-32,-11,53
-32,-12,53
-33,-12,53
-33,-12,52
-33,-12,53
-33,-12,53
-33,-12,53
-32,-12,52
-33,-12,53
-33,-12,52
-33,-12,53
-33,-12,53
-32,-12,52
-33,-12,53
-33,-12,53
-33,-12,53
-33,-12,52
-34,-12,52
-31,-12,53
-33,-12,53
-33,-12,53
-34,-12,52
-34,-12,52
-36,-13,50
-33,-12,52
-32,-12,54
-31,-10,55
-32,-12,53
-33,-12,53
-33,-12,52
-34,-12,52
-34,-12,52
-33,-12,53
-33,-11,53
-33,-12,53
-33,-12,53
-33,-12,52
-33,-12,53
-33,-12,53
-33,-11,53
-31,-12,53
-33,-12,53
-33,-12,53
-33,-12,53
-32,-11,53
-32,-11,54
-32,-12,53
-33,-11,54
-32,-11,54
-32,-12,53
-32,-11,53
-32,-11,53
-33,-12,53
-34,-11,53
-33,-12,52
-32,-13,52
-32,-11,54
-33,-11,54
-31,-12,54
-31,-11,54
-32,-12,53
-33,-12,52
-33,-11,53
-32,-11,54
-32,-12,53
-33,-11,54
-32,-12,53
-31,-12,53
-35,-12,51
-34,-11,53
-33,-12,53
-31,-11,54
-30,-12,54
-30,-12,53
-31,-12,53
-32,-12,54
-32,-12,54
-31,-12,54
-31,-12,53
-31,-12,54
-30,-11,54
-30,-11,55
-31,-11,54
-28,-11,56
-30,-11,54
-30,-12,53
-32,-11,54
-32,-12,54
-30,-12,55
-31,-12,53
-32,-13,53
-32,-13,53
-31,-12,54
-31,-12,54
-32,-12,53
-32,-13,53
-32,-12,54
-31,-12,54
-31,-13,53
-31,-13,53
-32,-12,53
-31,-12,54
-31,-12,54
-31,-12,54
-31,-12,54
-31,-13,53
-31,-12,54
-31,-12,54
-30,-12,54
-31,-12,54
-31,-12,54
-32,-12,53
-31,-13,53
-31,-12,54
-31,-12,53
-31,-12,54
-31,-12,54
-31,-12,54
-31,-12,54
-31,-12,54
-31,-12,54
-31,-12,54
-31,-12,54
-30,-12,54
-31,-12,53
-31,-12,54
-31,-12,54
-31,-12,54
-31,-12,54
-31,-12,53
-31,-12,54
-31,-12,54
-31,-12,54
-30,-12,54
-30,-12,54
-31,-12,54
-30,-12,54
-31,-12,54
-30,-12,54
-31,-12,54
-31,-12,54
-30,-12,54
-31,-12,54
-31,-12,54
-31,-12,53
-31,-11,54
-31,-11,55
-30,-12,55
-31,-12,54
-31,-12,53
-31,-11,54
-28,-11,56
-26,-11,57
-28,-12,57
-29,-12,55
-30,-12,55
-29,-13,53
-33,-14,52
-32,-14,51
-31,-15,52
-31,-15,51
-31,-15,51
-32,-14,53
-31,-13,55
-30,-12,56
-30,-14,53
-32,-14,53
-29,-13,55
-32,-13,53
-33,-13,53
-32,-13,54
-29,-13,54
-30,-14,54
-30,-14,53
-31,-15,52
-30,-15,52
-32,-14,52
-31,-13,55
-29,-13,55
-32,-14,52
-30,-14,53
-29,-13,56
-29,-14,55
-32,-14,53
-32,-14,52
-32,-15,51
-33,-15,51
-35,-15,50
-32,-14,53
-29,-13,55
-32,-14,53
-29,-13,56
-32,-14,52
-33,-14,52
-33,-15,51
-34,-15,50
-33,-14,52
-33,-14,53
-31,-14,53
-32,-14,53
-33,-14,52
-32,-14,53
-33,-14,53
-33,-14,51
-33,-14,52
-28,-13,52
-36,-15,52
-36,-14,51
-33,-14,52
-31,-15,52
-33,-14,52
-34,-14,52
-33,-14,52
-34,-14,52
-33,-14,52
-32,-16,53
-37,-13,52
-34,-13,52
-31,-14,53
-31,-15,52
-34,-15,51
-34,-14,52
-29,-14,55
-35,-15,53
-34,-14,51
-32,-14,52
-32,-15,52
-34,-14,52
-33,-14,52
-32,-14,52
-33,-14,52
-33,-14,52
-33,-15,51
-33,-13,53
-32,-13,54
-35,-14,53
-32,-14,52
-33,-14,52
-33,-14,51
-30,-16,50
-32,-14,52
-37,-12,53
-32,-13,53
-32,-14,53
-32,-13,53
-35,-13,52
-33,-14,52
-32,-14,52
-32,-13,52
-33,-13,52
-34,-13,52
-34,-14,51
-33,-13,52
-33,-13,52
-33,-14,52
-34,-14,52
-34,-13,52
-33,-13,52
-34,-14,52
-34,-13,52
-34,-13,51
-35,-14,51
-34,-14,52
-34,-13,52
-34,-13,52
-34,-14,51
-35,-14,49
-33,-15,50
-33,-13,54
-34,-13,52
-34,-14,51
-34,-14,52
-33,-14,52
-34,-14,52
-33,-13,53
-34,-13,52
-34,-13,52
-34,-14,51
-32,-13,53
-33,-13,53
-33,-13,53
-33,-13,52
-34,-13,52
-33,-13,52
-33,-13,52
-33,-14,52
-34,-13,52
-34,-13,52
-34,-13,51
-33,-13,53
-33,-13,52
-34,-13,52
-33,-13,52
-33,-13,52
-34,-13,52
-33,-13,52
-33,-13,52
-33,-13,52
-33,-13,52
-33,-13,52
-33,-13,52
-33,-13,53
-31,-13,54
-33,-13,53
-32,-13,53
-32,-13,52
-34,-14,51
-34,-14,51
-33,-13,53
-32,-13,53
-32,-13,53
-34,-13,53
-34,-14,51
-32,-14,52
-32,-13,53
-34,-13,53
-34,-14,50
-33,-13,53
-32,-12,54
-31,-13,53
-31,-14,52
-36,-12,52
-35,-13,51
-34,-13,51
-31,-13,53
-35,-13,51
-35,-13,51
-35,-14,50
-40,-15,46
-34,-11,56
-19,-9,65
-36,-15,48
-38,-14,47
-40,-14,45
-40,-14,45
-39,-14,47
-37,-14,49
-35,-13,52
-35,-12,53
-35,-12,53
-38,-13,49
-36,-12,51
-37,-12,51
-36,-12,50
-36,-13,51
-36,-13,51
-36,-12,50
-36,-12,51
-36,-12,51
-36,-13,50
-36,-13,50
-36,-12,51
-36,-13,51
-36,-12,51
-36,-12,51
-36,-13,51
-36,-12,51
-36,-12,51
-36,-12,51
-36,-12,51
-35,-12,51
-36,-12,51
-36,-13,51
-35,-13,51
-36,-13,51
-36,-12,51
-36,-12,51
-35,-12,51
-36,-12,51
-36,-12,51
-36,-13,51
-36,-13,50
-36,-12,51
-35,-12,52
-35,-12,51
-35,-12,51
-35,-12,51
-38,-13,49
-35,-12,53
-33,-11,54
-35,-13,51
-36,-14,49
-36,-14,49
-40,-13,48
-34,-13,52
-34,-12,53
-35,-12,52
-36,-12,51
-37,-13,50
-36,-13,50
-36,-13,50
-36,-13,51
-36,-13,51
-35,-12,52
-35,-12,51
-36,-12,51
-36,-12,51
-36,-13,51
-35,-13,51
-36,-12,51
-36,-12,51
-35,-12,51
-35,-12,51
-36,-13,51
-36,-13,51
-35,-13,51
-35,-12,51
-35,-13,51
-36,-13,51
-36,-12,51
-35,-13,51
-35,-13,51
-36,-13,51
-36,-13,51
-36,-13,50
-37,-13,50
-36,-13,49
-38,-13,50
-36,-13,51
-36,-13,51
-35,-12,52
-33,-13,52
-35,-12,52
-40,-14,48
-40,-13,48
-34,-14,50
-34,-13,52
-32,-13,54
-35,-14,50
-37,-13,50
-35,-13,51
-36,-14,50
-36,-13,51
-35,-13,51
-36,-14,50
-34,-13,52
-36,-13,50
-36,-13,50
-35,-14,51
-36,-14,50
-35,-14,51
-36,-14,51
-37,-13,51
-36,-13,51
-36,-14,50
-35,-14,50
-35,-14,50
-36,-14,50
-36,-14,51
-35,-14,51
-35,-14,51
-35,-13,51
-35,-14,52
-35,-14,51
-35,-13,51
-36,-14,50
-36,-14,50
-33,-13,52
-35,-13,52
-36,-13,52
-37,-14,49
-36,-14,50
-36,-14,50
-36,-14,50
-36,-14,50
-36,-14,51
-35,-14,51
-35,-14,51
-35,-14,51
-36,-14,51
-35,-14,50
-35,-14,50
-36,-14,50
-36,-14,51
-36,-14,51
-35,-14,50
-35,-14,51
-36,-14,50
-36,-13,51
-35,-14,51
-36,-14,50
-35,-14,51
-35,-14,51
-36,-14,50
-35,-14,51
-35,-14,51
-35,-14,50
-36,-13,51
-34,-14,51
-35,-14,51
-36,-14,51
-35,-14,50
-36,-14,51
-36,-14,51
-35,-14,50
-35,-14,51
-35,-14,50
-36,-14,51
-35,-14,50
-35,-14,51
-35,-14,51
-37,-14,50
-36,-14,51
-36,-15,50
-35,-15,50
-36,-14,51
-35,-13,52
-35,-14,50
-35,-16,45
-39,-12,56
-34,-15,48
-34,-15,52
-34,-14,52
-36,-14,50
-36,-15,50
-36,-15,50
-36,-14,51
-35,-15,50
-35,-14,51
-34,-14,51
-36,-15,50
-36,-14,51
-35,-13,52
-34,-13,52
-35,-14,51
-35,-14,50
-38,-15,46
-35,-14,47
-35,-14,53
-37,-12,53
-34,-12,53
-33,-13,53
-34,-13,52
-35,-13,52
-34,-14,51
-35,-14,51
-34,-14,51
-34,-14,52
-34,-13,51
-34,-14,52
-35,-14,51
-35,-14,51
-34,-14,51
-34,-14,51
-34,-14,51
-35,-14,52
-34,-14,52
-34,-14,51
-35,-14,51
-34,-14,51
-34,-14,52
-34,-14,51
-35,-14,51
-35,-14,51
-34,-14,52
-35,-14,51
-35,-14,51
-34,-14,51
-34,-14,52
-34,-14,51
-34,-14,51
-34,-14,51
-34,-14,51
-35,-14,51
-34,-14,51
-34,-14,51
-35,-14,51
-34,-14,51
-34,-14,51
-35,-14,51
-34,-14,51
-34,-14,51
-34,-14,51
-35,-13,51
-35,-13,52
-34,-14,51
-35,-14,51
-35,-14,51
-35,-14,51
-34,-14,51
-34,-14,51
-34,-14,51
-34,-14,51
-34,-14,51
-34,-14,51
-34,-14,51
-35,-14,51
-35,-14,51
-34,-14,52
-34,-14,52
-35,-14,51
-34,-14,51
-34,-14,51
-34,-14,52
-34,-14,51
-34,-14,52
-34,-14,52
-35,-14,52
-35,-14,52
-34,-14,52
-34,-14,51
-34,-14,51
-35,-14,51
-34,-14,51
-34,-14,52
-34,-14,51
-34,-14,51
-34,-14,51
-34,-14,52
-34,-14,51
-34,-14,51
-35,-14,51
-34,-14,52
-34,-14,52
-34,-14,51
-35,-14,51
-34,-14,51
-35,-14,51
-34,-14,51
-34,-14,52
-32,-14,52
-33,-13,52
-36,-15,49
-35,-13,51
-37,-12,52
-35,-12,52
-35,-14,51
-34,-14,51
-35,-13,51
-36,-13,51
-35,-13,52
-36,-13,51
-34,-13,51
-33,-13,52
-33,-14,52
-32,-14,52
-32,-13,53
-34,-13,52
-36,-13,51
-34,-13,52
-33,-14,52
-35,-14,50
-36,-13,51
-37,-14,49
-33,-13,52
-33,-14,52
-35,-14,51
-35,-13,51
-34,-13,52
-35,-14,51
-35,-13,51
-35,-14,51
-34,-14,51
-34,-14,52
-34,-14,51
-35,-14,51
-35,-13,52
-34,-14,51
-35,-14,51
-35,-14,51
-35,-14,51
-35,-14,51
-34,-14,52
-34,-14,51
-35,-14,51
-33,-14,51
-36,-14,51
-34,-14,50
-34,-14,51
-35,-14,52
-33,-14,52
-38,-14,49
-31,-13,56
-33,-13,52
-35,-14,51
-29,-12,56
-36,-16,46
-42,-16,47
-38,-14,48
-36,-14,50
-40,-13,49
-31,-12,54
-32,-12,55
-33,-13,51
-35,-12,54
-33,-13,52
-34,-13,52
-37,-14,48
-36,-13,51
-35,-13,50
-36,-13,51
-36,-13,51
-35,-13,52
-31,-14,55
-31,-13,52
-35,-13,47
-48,-13,39
-54,-15,33
-54,-14,34
-48,-13,39
-52,-13,34
-52,-14,34
-52,-14,35
-50,-14,37
-49,-14,37
-49,-15,36
-50,-14,37
-50,-14,36
-50,-14,37
-49,-15,37
-50,-15,37
-49,-15,37
-47,-15,37
-48,-14,35
-53,-14,38
-46,-12,44
-44,-12,44
-46,-14,42
-45,-14,41
-45,-14,41
-43,-13,45
-43,-13,46
-43,-13,46
-43,-14,43
-43,-13,45
-43,-13,45
-42,-14,44
-43,-14,45
-42,-13,45
-43,-14,45
-43,-14,44
-42,-13,45
-41,-13,46
-41,-13,46
-43,-13,46
-42,-13,46
-42,-13,45
-41,-14,46
-40,-13,46
-41,-13,48
-40,-13,47
-41,-14,44
-40,-14,45
-40,-14,46
-41,-14,47
-41,-13,47
-40,-13,47
-40,-13,48
-40,-13,48
-40,-14,46
-41,-13,47
-40,-13,47
-40,-13,48
-40,-13,48
-40,-13,48
-41,-14,46
-40,-14,47
-40,-13,48
-39,-13,48
-40,-13,48
-39,-14,46
-40,-14,47
-40,-13,48
-40,-13,47
-40,-13,48
-40,-14,47
-39,-14,47
-40,-14,47
-38,-14,47
-42,-11,54
-41,-14,45
-39,-14,47
-39,-14,47
-40,-13,47
-38,-13,50
-37,-13,50
-39,-13,49
-39,-13,48
-40,-13,47
-38,-13,49
-40,-13,49
-39,-13,49
-37,-13,50
-40,-13,48
-39,-14,46
-39,-13,50
-40,-14,46
-39,-14,46
-40,-15,46
-39,-15,47
-39,-14,49
-39,-14,48
-39,-14,48
-40,-14,48
-38,-14,49
-38,-14,48
-38,-14,47
-43,-14,45
-40,-13,47
-37,-13,50
-38,-14,49
-39,-14,48
-40,-14,48
-38,-14,49
-35,-13,51
-38,-14,49
-39,-13,48
-41,-14,47
-38,-14,48
-39,-14,47
-38,-14,48
-38,-14,48
-39,-13,49
-38,-13,49
-39,-14,48
-38,-13,49
-39,-13,49
-38,-13,50
-38,-13,49
-38,-13,49
-39,-13,48
-38,-13,48
-39,-13,48
-38,-14,48
-39,-13,48
-39,-13,49
-38,-13,49
-38,-13,49
-38,-13,50
-38,-13,49
-39,-13,49
-38,-13,49
-38,-13,48
-38,-13,49
-38,-13,49
-38,-13,49
-38,-13,49
-38,-13,49
-39,-13,48
-37,-13,50
-39,-13,48
-38,-13,49
-36,-14,48
-38,-14,48
-40,-13,48
-36,-12,51
-37,-13,50
-38,-13,49
-38,-13,48
-40,-14,47
-38,-13,48
-38,-13,50
-38,-13,49
-40,-14,47
-38,-13,49
-38,-14,48
-39,-14,48
-39,-14,48
-38,-12,50
-39,-14,48
-38,-14,48
-37,-14,48
-38,-13,49
-38,-13,49
-37,-13,49
-36,-12,52
-37,-13,51
-35,-12,55
-37,-13,50
-38,-14,47
-40,-16,44
-41,-16,44
-41,-15,44
-39,-15,47
-38,-14,49
-39,-14,49
-36,-12,53
-40,-14,48
-40,-14,47
-38,-15,47
-38,-14,48
-39,-14,48
-37,-13,50
-38,-14,50
-38,-13,50
-38,-14,47
-37,-14,48
-39,-14,48
-38,-13,50
-38,-14,48
-39,-14,48
-38,-11,55
-37,-14,47
-39,-15,48
-37,-15,47
-40,-15,47
-39,-14,49
-36,-13,51
-40,-15,45
-42,-14,47
-39,-14,47
-40,-15,46
-40,-15,45
-40,-14,47
-38,-13,49
-39,-14,48
-39,-13,49
-39,-14,47
-39,-14,47
-39,-14,48
-39,-13,50
-38,-13,50
-40,-14,47
-40,-14,47
-39,-15,47
-40,-14,47
-39,-14,48
-39,-14,48
-39,-14,47
-39,-14,47
-38,-14,48
-39,-14,48
-39,-14,48
-37,-14,50
-39,-14,49
-39,-14,47
-39,-14,48
-39,-14,47
-40,-14,48
-39,-13,48
-39,-14,48
-39,-14,49
-38,-14,48
-40,-14,47
-40,-14,48
-38,-14,49
-39,-14,49
-38,-14,49
-39,-14,49
-40,-14,47
-40,-15,46
-39,-14,47
-39,-15,48
-40,-14,48
-40,-14,47
-39,-15,47
-39,-14,47
-40,-14,48
-39,-14,49
-39,-14,48
-38,-14,49
-39,-14,48
-39,-14,48
-39,-14,48
-38,-14,49
-38,-14,49
-40,-14,48
-38,-14,49
-38,-14,49
-39,-14,48
-39,-14,48
-38,-14,48
-38,-14,48
-39,-14,48
-39,-14,48
-38,-14,48
-39,-14,48
-39,-14,48
-38,-14,48
-39,-14,49
-39,-14,48
-39,-14,48
-39,-14,48
-38,-14,48
-41,-15,46
-41,-14,47
-39,-14,47
-37,-12,52
-35,-14,52
-32,-16,45
-37,-13,54
-34,-13,52
-32,-13,51
-36,-11,53
-40,-11,51
-31,-9,55
-32,-10,55
-31,-12,53
-32,-12,53
-35,-11,55
-36,-10,54
-33,-11,53
-30,-10,54
-28,-10,55
-25,-12,55
-25,-12,57
-26,-11,58
-28,-11,55
-30,-11,55
-29,-11,56
-32,-10,54
-31,-10,55
-31,-11,55
-29,-13,53
-28,-14,55
-27,-13,56
-25,-11,56
-29,-8,65
-28,-14,56
-33,-12,57
-17,-14,52
-21,-10,49
-25,-12,55
-19,-11,56
-25,-9,59
-26,-7,60
-25,-5,62
-29,-2,64
-24,-7,57
-19,-9,56
-33,-7,59
-21,-8,56
-12,-12,58
-21,-8,59
-22,-7,59
-26,-7,59
-29,-7,59
-27,-9,57
-27,-12,56
-29,-14,55
-30,-15,54
-33,-16,52
-35,-15,52
-35,-12,51
-31,-12,53
-32,-11,54
-29,-11,55
-31,-11,53
-30,-13,53
-35,-12,53
-34,-12,51
-31,-11,54
-29,-12,54
-32,-12,53
-32,-11,54
-29,-11,55
-29,-11,55
-29,-12,54
-32,-11,55
-31,-11,54
-31,-12,53
-31,-11,54
-30,-11,55
-30,-11,54
-32,-11,53
-30,-11,54
-31,-11,54
-30,-11,55
-30,-11,54
-31,-12,53
-31,-11,55
-31,-11,54
-30,-11,55
-32,-11,54
-31,-11,53
-31,-12,54
-30,-12,53
-30,-12,54
-29,-11,55
-32,-12,53
-31,-12,54
-28,-11,55
-29,-12,55
-29,-12,54
-29,-12,55
-30,-12,54
-31,-12,54
-29,-12,54
-31,-11,55
-31,-11,54
-30,-11,55
-30,-12,53
-31,-12,53
-31,-12,54
-30,-12,55
-30,-12,54
-30,-12,54
-30,-12,54
-30,-12,54
-30,-12,54
-31,-12,54
-31,-12,54
-31,-12,54
-30,-12,54
-30,-12,55
-30,-12,54
-30,-12,54
-30,-12,54
-31,-12,54
-30,-12,54
-30,-12,54
-30,-12,54
-30,-12,54
-30,-12,54
-30,-12,54
-31,-12,54
-30,-12,55
-33,-12,52
-29,-12,53
-24,-9,61
-29,-12,53
-30,-13,53
-36,-12,52
-35,-11,51
-34,-12,52
-32,-12,53
-31,-12,54
-30,-11,54
-30,-12,54
-33,-12,53
-32,-12,53
-28,-11,55
-31,-11,55
-28,-11,57
-32,-11,54
-32,-12,53
-31,-12,53
-35,-13,50
-38,-13,48
-38,-12,49
-35,-12,52
-36,-12,51
-36,-12,51
-35,-12,52
-34,-12,52
-35,-12,52
-36,-12,51
-36,-12,51
-35,-13,51
-36,-13,50
-35,-12,51
-35,-13,51
-35,-13,51
-36,-12,51
-36,-12,51
-36,-12,51
-35,-12,51
-35,-12,51
-37,-13,50
-36,-12,52
-35,-12,52
-36,-13,51
-36,-12,52
-36,-13,50
-36,-12,51
-35,-13,50
-36,-13,50
-36,-13,50
-36,-12,52
-36,-12,51
-35,-12,51
-36,-13,51
-36,-12,50
-36,-12,51
-36,-12,51
-35,-12,51
-36,-12,51
-36,-12,51
-36,-12,51
-36,-13,51
-36,-13,51
-36,-12,51
-36,-13,49
-37,-13,50
-35,-12,52
-35,-12,52
-36,-12,51
-36,-12,51
-36,-12,51
-36,-12,50
-35,-12,51
-36,-12,51
-36,-12,51
-36,-12,51
-36,-12,51
-36,-11,52
-35,-12,51
-35,-13,50
-36,-13,50
-36,-13,50
-35,-12,52
-35,-12,52
-36,-12,51
-31,-12,60
-26,-15,54
-54,-14,28
-54,-12,38
-45,-15,36
-57,-16,31
-45,-16,29
-52,-16,28
-55,-17,23
-55,-14,25
-62,-13,22
-62,-15,13
-61,-14,15
-62,-13,14
-62,-15,8
-64,-14,7
-62,-13,7
-65,-14,5
-63,-13,5
-62,-13,4
-63,-14,3
-63,-14,3
-62,-13,3
-63,-13,4
-63,-13,3
-63,-14,2
-63,-13,3
-62,-14,3
-63,-13,3
-63,-13,3
-63,-13,3
-62,-13,3
-63,-13,2
-62,-14,2
-62,-14,2
-63,-13,3
-63,-13,2
-62,-14,2
-63,-13,2
-63,-13,2
-63,-13,2
-63,-13,3
-63,-13,2
-63,-13,2
-62,-13,3
-63,-13,2
-63,-13,2
-62,-13,3
-62,-13,2
-63,-14,2
-63,-13,2
-63,-13,3
-63,-13,3
-62,-13,3
-62,-13,3
-63,-13,2
-63,-13,2
-63,-13,2
-63,-13,2
-62,-13,2
-62,-13,2
-63,-13,1
-62,-13,2
-63,-13,2
-64,-13,1
-62,-13,3
-61,-14,2
-63,-13,-1
-64,-13,0
-62,-14,1
-61,-15,0
-62,-14,-1
-63,-14,-2
-63,-14,-1
-63,-13,-2
-63,-13,-2
-63,-13,-1
-63,-13,-2
-62,-13,-1
-63,-13,-1
-63,-13,-2
-63,-13,-3
-63,-13,-1
-63,-13,-1
-64,-13,-2
-63,-13,-1
-61,-12,1
-68,-13,-3
-60,-12,-2
-59,-15,0
-63,-15,-2
-64,-12,-2
-63,-13,-1
-62,-13,0
-62,-13,-1
-62,-14,-3
-63,-14,-4
-63,-13,-2
-62,-13,-1
-63,-14,-2
-63,-13,-2
-63,-14,-2
-63,-14,-2
-62,-14,-1
-63,-13,-1
-63,-13,-2
-63,-13,-2
-63,-14,-2
-62,-14,-2
-62,-14,-1
-63,-14,-2
-62,-14,-2
-63,-14,-1
-63,-14,-1
-63,-14,-1
-63,-14,0
-63,-14,-1
-62,-14,-2
-63,-14,-2
-62,-14,-2
-63,-14,-1
-63,-14,0
-62,-14,0
-62,-14,0
-63,-14,-1
-63,-14,-1
-63,-14,-1
-63,-13,-1
-63,-14,0
-62,-14,0
-63,-14,0
-63,-14,0
-63,-13,0
-63,-14,0
-63,-14,0
-64,-14,-1
-64,-14,0
-64,-14,1
-64,-13,3
-65,-13,5
-63,-14,5
-56,-17,5
-64,-14,6
-63,-14,5
-60,-16,5
-62,-15,7
-62,-14,8
-63,-14,8
-62,-14,9
-61,-14,9
-62,-14,9
-62,-15,8
-62,-14,8
-62,-14,8
-62,-14,9
-62,-14,10
-62,-14,9
-63,-14,8
-61,-14,10
-62,-13,11
-63,-13,11
-62,-14,8
-62,-14,9
-62,-14,9
-62,-14,9
-61,-14,10
-62,-14,9
-62,-14,10
-61,-14,10
-61,-14,10
-61,-14,11
-62,-14,11
-62,-14,10
-62,-14,9
-62,-14,10
-62,-14,10
-62,-14,10
-61,-14,10
-61,-15,10
-62,-14,9
-61,-14,10
-61,-14,10
-61,-14,11
-61,-14,10
-61,-15,10
-62,-14,9
-62,-14,10
-61,-14,10
-62,-14,9
-61,-14,10
-62,-15,9
-62,-14,10
-62,-14,10
-62,-14,10
-61,-14,10
-61,-14,10
-61,-15,9
-62,-14,9
-62,-14,9
-62,-14,9
-61,-15,10
-61,-14,10
-61,-14,10
-62,-14,9
-62,-14,10
-62,-14,10
-62,-14,10
-62,-14,9
-61,-14,10
-62,-14,10
-61,-14,9
-62,-15,9
-62,-14,10
-61,-14,11
-62,-14,10
-62,-14,10
-62,-14,10
-62,-14,10
-62,-14,10
-61,-14,10
-61,-14,10
-62,-14,10
-62,-14,10
-62,-14,10
-61,-14,10
-61,-14,10
-62,-14,10
-62,-14,10
-61,-14,11
-62,-13,11
-62,-14,11
-62,-14,10
-62,-14,11
-62,-14,10
-62,-14,10
-62,-14,10
-61,-14,11
-62,-14,11
-62,-14,10
-61,-14,10
-61,-15,10
-61,-14,10
-62,-14,10
-61,-14,10
-61,-14,11
-62,-14,10
-62,-14,10
-62,-14,10
-61,-14,10
-62,-14,10
-62,-14,10
-62,-14,10
-62,-14,10
-61,-14,10
-61,-14,11
-61,-14,10
-62,-14,10
-62,-14,10
-61,-14,10
-62,-14,10
-61,-14,10
-61,-14,11
-61,-14,11
-62,-14,9
-62,-14,10
-62,-14,10
-61,-14,10
-62,-14,10
-61,-14,10
-62,-14,10
-62,-14,11
-62,-14,11
-62,-14,10
-62,-14,10
-62,-14,10
-61,-14,11
-61,-14,11
-62,-14,10
-62,-14,10
-62,-14,10
-61,-14,10
-62,-15,9
-61,-14,10
-62,-14,10
-62,-14,10
-62,-14,10
-62,-14,10
-62,-14,11
-62,-13,12
-62,-14,10
-61,-14,10
-61,-14,11
-62,-13,11
-61,-13,12
-62,-14,11
-61,-14,11
-61,-14,12
-62,-14,12
-62,-14,11
-61,-14,11
-62,-14,11
-62,-13,11
-62,-14,11
-61,-14,11
-61,-14,11
-62,-14,11
-62,-14,11
-62,-14,11
-62,-13,11
-61,-14,12
-61,-14,11
-61,-14,11
-62,-14,11
-62,-14,11
-61,-14,11
-61,-14,11
-62,-13,11
-61,-13,12
-61,-14,11
-61,-14,11
-62,-14,11
-62,-13,11
-62,-14,11
-62,-13,12
-61,-14,11
-61,-14,12
-61,-14,11
-61,-14,11
-62,-14,11
-62,-14,11
-61,-14,11
-61,-14,11
-61,-14,11
-61,-14,12
-61,-14,11
-62,-14,11
-62,-13,11
-61,-14,11
-61,-14,11
-62,-13,11
-62,-13,11
-61,-13,12
-61,-14,11
-61,-14,11
-61,-14,11
-62,-13,11
-62,-13,11
-61,-14,11
-62,-14,11
-62,-14,11
-62,-13,11
-62,-14,11
-62,-13,11
-61,-14,11
-62,-14,11
-61,-13,11
-61,-14,11
-62,-14,11
-62,-13,11
-61,-14,11
-61,-14,11
-62,-14,11
-62,-13,11
-61,-14,11
-62,-14,12
-62,-13,11
-61,-14,11
-61,-14,11
-61,-14,11
-61,-14,12
-61,-14,11
-62,-14,11
-62,-14,11
-61,-13,12
-62,-13,11
-62,-14,11
-62,-13,11
-62,-14,11
-62,-13,11
-63,-13,11
-60,-14,11
-61,-14,12
-61,-14,11
-62,-14,11
-62,-14,12
-61,-13,12
-62,-14,11
-61,-14,11
-62,-14,11
-62,-14,12
-61,-14,11
-61,-14,11
-61,-14,11
-61,-14,11
-61,-14,11
-61,-14,11
-62,-14,11
-62,-14,11
-61,-14,12
-61,-14,11
-62,-14,11
-62,-13,12
-63,-14,11
-60,-14,10
-63,-15,9
-60,-14,11
-61,-14,10
-64,-14,11
-63,-10,22
-62,-11,20
-65,-15,10
-64,-16,9
-55,-18,3
-65,-21,10
-63,-15,20
-59,-10,28
-54,-20,26
-52,-18,29
-52,-17,24
-53,-21,20
-54,-20,23
-55,-17,24
-56,-17,25
-58,-15,28
-56,-15,29
-57,-14,30
-57,-15,29
-55,-15,28
-54,-16,29
-53,-16,28
-55,-16,26
-55,-15,28
-54,-15,30
-54,-15,30
-54,-14,32
-54,-13,32
-54,-14,31
-53,-14,30
-54,-14,30
-54,-14,31
-54,-14,30
-54,-14,31
-54,-14,31
-54,-14,31
-54,-14,31
-54,-14,31
-54,-13,31
-54,-14,31
-54,-14,30
-54,-14,31
-53,-14,31
-53,-14,32
-53,-14,32
-54,-13,33
-54,-14,30
-54,-14,32
-53,-14,31
-51,-14,34
-50,-13,37
-51,-13,35
-51,-13,35
-52,-13,37
-52,-13,36
-50,-13,35
-52,-14,35
-51,-14,34
-52,-14,34
-51,-14,35
-51,-14,35
-51,-14,35
-51,-14,34
-52,-14,33
-51,-13,36
-51,-14,35
-51,-13,35
-52,-14,34
-53,-13,34
-52,-13,35
-51,-14,35
-50,-14,36
-51,-14,34
-51,-13,35
-51,-14,35
-51,-14,34
-51,-13,36
-51,-13,36
-51,-14,34
-51,-14,35
-51,-13,35
-51,-13,37
-51,-14,35
-51,-14,35
-51,-14,35
-51,-14,35
-51,-14,36
-51,-13,36
-51,-13,36
-51,-14,35
-51,-14,35
-51,-14,35
-51,-14,35
-51,-14,35
-51,-14,35
-51,-14,36
-51,-14,35
-50,-14,36
-50,-14,35
-51,-14,35
-51,-13,35
-51,-13,36
-51,-13,36
-51,-13,36
-51,-14,36
-50,-14,35
-51,-14,36
-50,-14,36
-51,-14,35
-51,-13,36
-51,-14,36
-51,-14,36
-50,-14,36
-50,-14,36
-51,-14,36
-51,-14,36
-50,-14,36
-51,-14,36
-51,-14,36
-51,-14,36
-51,-13,36
-51,-13,36
-51,-14,36
-50,-14,35
-51,-14,36
-51,-14,35
-51,-13,36
-51,-13,36
-51,-14,36
-51,-13,36
-51,-14,36
-51,-13,36
-50,-14,35
-50,-14,35
-51,-14,36
-51,-14,36
-51,-14,35
-50,-14,36
-51,-14,35
-51,-14,35
-51,-14,35
-50,-14,36
-50,-14,36
-51,-13,36
-51,-14,36
-51,-14,36
-51,-14,36
-51,-13,36
-51,-14,36
-50,-14,36
-51,-13,36
-51,-13,36
-51,-13,36
-50,-14,36
-50,-14,36
-51,-13,36
-51,-13,36
-50,-14,36
-50,-14,36
-51,-14,36
-51,-13,36
-51,-13,36
-51,-13,36
-51,-13,36
-51,-13,36
-51,-14,35
-51,-13,36
-51,-13,36
-51,-13,36
-51,-14,36
-51,-13,36
-50,-14,36
-51,-13,36
-51,-13,36
-51,-14,36
-51,-14,36
-51,-14,36
-51,-14,35
-51,-13,36
-51,-13,36
-51,-13,36
-50,-14,36
-51,-13,36
-51,-14,36
-51,-13,36
-51,-13,36
-51,-14,36
-51,-13,36
-51,-13,36
-50,-14,36
-51,-13,36
-51,-14,36
-51,-14,36
-51,-14,36
-51,-14,36
-51,-14,35
-51,-14,36
-50,-14,36
-50,-14,36
-51,-14,36
-51,-14,36
-51,-14,36
-51,-14,36
-50,-14,36
-51,-14,35
-51,-13,36
-50,-14,35
-51,-14,36
-51,-13,36
-51,-13,35
-51,-13,36
-51,-13,36
-51,-13,36
-51,-13,36
-51,-13,36
-51,-13,36
-51,-14,36
-51,-14,36
-51,-13,36
-51,-13,36
-51,-13,36
-50,-14,36
-50,-14,35
-51,-14,36
-51,-14,36
-51,-14,36
-51,-14,36
-51,-13,36
-51,-14,36
-51,-14,36
-50,-14,36
-51,-14,36
-51,-13,36
-51,-14,35
-51,-14,36
-51,-14,36
-51,-13,36
-51,-13,37
-50,-14,36
-51,-14,34
-51,-14,35
-51,-14,35
-50,-14,35
-51,-14,36
-51,-13,36
-51,-14,36
-50,-14,36
-50,-14,36
-51,-14,36
-51,-13,36
-51,-13,36
-51,-13,36
-51,-13,36
-50,-14,36
-51,-14,36
-50,-14,35
-51,-13,36
-51,-14,35
-51,-13,36
-51,-13,36
-51,-14,35
-51,-14,35
-51,-14,35
-51,-13,36
-51,-14,36
-51,-13,36
-51,-13,36
-51,-14,35
-51,-13,36
-51,-13,36
-51,-13,36
-51,-13,36
-51,-13,36
-51,-14,35
-51,-13,37
-51,-13,36
-51,-14,35
-51,-13,36
-51,-14,36
-51,-13,36
-51,-14,36
-51,-13,36
-51,-13,36
-51,-13,36
-51,-14,36
-51,-14,35
-51,-13,36
-51,-13,36
-51,-14,35
-50,-14,36
-51,-13,36
-51,-13,36
-51,-14,36
-51,-13,36
-51,-13,36
-51,-13,36
-51,-13,36
-51,-14,36
-51,-13,36
-50,-13,37
-50,-14,35
-51,-13,36
-51,-14,36
-50,-14,35
-51,-13,36
-51,-13,37
-51,-14,36
-50,-14,35
-51,-13,37
-50,-14,36
-51,-13,36
-51,-14,35
-51,-13,37
-50,-13,36
-50,-14,35
-51,-13,37
-50,-14,36
-50,-14,36
-50,-14,36
-50,-14,37
-51,-14,36
-50,-13,37
-50,-13,36
-50,-14,36
-51,-14,35
-51,-14,36
-50,-13,36
-50,-14,36
-50,-14,36
-51,-13,37
-50,-14,36
-51,-14,37
-51,-13,36
-51,-14,36
-50,-14,36
-50,-14,36
-51,-13,37
-50,-13,37
-50,-14,36
-50,-14,36
-51,-13,37
-50,-14,36
-51,-14,36
-51,-13,37
-50,-13,37
-50,-14,36
-50,-14,36
-50,-13,36
-50,-14,36
-50,-14,36
-50,-13,36
-50,-13,37
-50,-14,36
-51,-13,37
-50,-14,36
-51,-14,36
-51,-13,36
-51,-13,37
-50,-13,37
-51,-13,36
-51,-13,36
-51,-14,36
-50,-14,36
-51,-14,36
-51,-14,36
-50,-14,36
-51,-13,36
-51,-13,37
-50,-15,34
-51,-13,37
-50,-13,37
-50,-14,36
-50,-14,36
-51,-14,36
-51,-14,36
-50,-13,36
-50,-14,36
-50,-13,36
-50,-14,36
-50,-14,36
-51,-14,36
-50,-14,36
-50,-14,36
-50,-14,36
-51,-14,36
-51,-14,36
-50,-14,37
-50,-13,37
-51,-14,36
-51,-14,36
-50,-14,36
-50,-14,36
-50,-14,36
-50,-14,36
-51,-14,36
-50,-14,36
-50,-14,36
-50,-14,36
-50,-13,36
-51,-14,36
-51,-13,36
-50,-14,36
-50,-14,36
-51,-14,36
-50,-14,36
-51,-14,36
-50,-14,36
-50,-14,36
-51,-13,36
-51,-13,37
-51,-14,36
-50,-14,36
-50,-14,36
-51,-14,36
-51,-13,36
-50,-14,36
-50,-14,36
-51,-14,36
-50,-14,36
-50,-14,36
-50,-14,36
-50,-13,36
-50,-14,36
-50,-14,36
-51,-13,36
-51,-14,36
-51,-14,36
-50,-13,37
-50,-14,36
-50,-13,36
-50,-14,36
-50,-13,36
-50,-13,36
-50,-13,37
-50,-13,36
-50,-13,36
-51,-14,36
-50,-13,36
-50,-13,36
-50,-13,36
-50,-13,37
-51,-13,36
-50,-13,37
-50,-13,36
-51,-13,36
-50,-13,36
-50,-13,36
-50,-13,36
-50,-14,36
-51,-13,36
-50,-13,36
-50,-13,37
-50,-14,36
-51,-13,37
-51,-14,35
-51,-14,34
-50,-14,37
-50,-13,37
-50,-13,37
-51,-13,36
-51,-14,36
-50,-13,37
-50,-13,37
-51,-13,36
-50,-14,36
-51,-13,36
-50,-13,37
-50,-13,37
-51,-13,36
-50,-13,37
-50,-13,37
-50,-14,36
-50,-14,36
-50,-13,37
-50,-13,37
-50,-14,36
-50,-13,37
-50,-14,36
-50,-14,36
-51,-14,36
-51,-13,37
-50,-13,37
-50,-14,37
-51,-14,36
-50,-14,36
-50,-14,36
-50,-14,36
-51,-13,37
-50,-13,36
-51,-14,36
-50,-13,37
-50,-13,37
-51,-14,35
-50,-14,36
-50,-14,36
-50,-13,37
-50,-14,36
-50,-14,36
-51,-14,36
-50,-14,37
-50,-14,36
-50,-13,37
-50,-13,37
-50,-14,36
-51,-13,37
-50,-14,37
-50,-14,36
-51,-14,36
-51,-13,37
-50,-13,37
-50,-14,36
-50,-14,36
-50,-14,36
-50,-14,36
-51,-14,36
-50,-14,37
-50,-14,37
-50,-14,36
-50,-14,36
-51,-13,37
-50,-13,37
-50,-14,36
-51,-14,36
-50,-14,36
-50,-13,36
-50,-14,37
-50,-14,36
-51,-14,37
-50,-14,36
-50,-14,37
-51,-13,37
-50,-13,37
-51,-14,36
-50,-14,36
-51,-14,36
-50,-14,36
-50,-14,36
-51,-13,37
-50,-13,37
-50,-13,37
-50,-14,36
-51,-14,35
-50,-13,37
-50,-14,36
-50,-14,36
-51,-14,36
-50,-14,37
-50,-13,37
-50,-13,36
-51,-14,36
-50,-14,36
-50,-13,37
-50,-14,36
-50,-13,37
-51,-13,36
-50,-14,36
-51,-14,36
-51,-14,36
-50,-14,37
-50,-14,37
-50,-13,37
-50,-14,36
-50,-14,37
-51,-14,36
-50,-13,37
-50,-13,37
-50,-14,36
-50,-14,36
-50,-13,37
-50,-14,37
-50,-14,36
-50,-14,36
-50,-14,36
-50,-14,36
-50,-13,36
-50,-14,36
-50,-14,36
-50,-14,36
-51,-13,36
-50,-13,37
-50,-13,37
-50,-14,36
-50,-14,36
-51,-14,36
-50,-14,37
-50,-14,37
-50,-14,36
-51,-13,36
-50,-13,36
-50,-14,37
-50,-14,37
-51,-14,36
-50,-14,36
-50,-13,37
-50,-13,37
-50,-14,37
-50,-14,36
-50,-14,36
-50,-14,36
-50,-14,37
-50,-14,37
-50,-14,36
-51,-13,36
-50,-13,37
-50,-13,37
-50,-14,37
-50,-14,36
-50,-13,37
-50,-14,36
-50,-13,37
-50,-14,37
-50,-13,37
-50,-13,37
-50,-14,36
-50,-14,37
-51,-14,36
-50,-14,37
-50,-14,36
-50,-14,37
-50,-14,36
-50,-14,36
-50,-13,36
-50,-14,36
-50,-14,36
-50,-14,36
-50,-13,37
-50,-14,36
-50,-14,36
-50,-14,36
-50,-14,37
-50,-14,36
-50,-14,36
-50,-14,36
-51,-14,36
-50,-14,36
-50,-14,36
-50,-13,37
-50,-14,36
-51,-14,35
-50,-14,37
-50,-13,37
-51,-14,35
-51,-13,36
-50,-14,37
-49,-13,37
-50,-13,37
-51,-14,36
-51,-14,36
-50,-13,36
-50,-14,36
-50,-13,37
-50,-13,36
-50,-13,36
-50,-14,37
-50,-14,36
-51,-14,36
-50,-14,36
-50,-14,37
-50,-14,36
-50,-14,36
-50,-13,37
-51,-13,36
-50,-13,36
-50,-14,37
-50,-14,36
-51,-14,36
-50,-14,37
-50,-14,36
-50,-14,36
-51,-14,37
-50,-13,37
-50,-14,37
-50,-14,37
-51,-14,36
-50,-14,36
-50,-13,37
-50,-13,37
-50,-13,37
-50,-14,36
-50,-14,36
-50,-14,36
-50,-14,36
-50,-14,37
-50,-14,37
-50,-14,37
-50,-14,37
-50,-14,36
-50,-14,36
-50,-14,37
-50,-14,36
-50,-14,36
-50,-14,37
-50,-13,37
-50,-14,36
-50,-14,36
-51,-13,38
-50,-14,37
-50,-13,38
-49,-14,36
-53,-12,37
-48,-14,37
-47,-15,37
-52,-13,37
-48,-14,38
-46,-13,42
-43,-13,43
-43,-13,43
-46,-13,43
-44,-13,43
-44,-13,43
-46,-13,43
-45,-13,43
-44,-13,43
-45,-13,43
-45,-13,43
-45,-13,42
-46,-13,42
-45,-13,43
-45,-13,43
-46,-13,42
-46,-13,42
-45,-13,43
-45,-13,43
-44,-13,43
-44,-13,43
-45,-13,43
-45,-13,43
-45,-13,43
-44,-14,43
-44,-13,44
-44,-13,44
-44,-13,44
-44,-13,44
-44,-13,45
-42,-13,48
-40,-14,47
-42,-14,47
-47,-13,49
-34,-15,47
-36,-17,44
-39,-19,42
-39,-16,45
-39,-16,47
-40,-14,48
-41,-13,50
-42,-13,49
-40,-14,47
-40,-15,45
-40,-15,45
-40,-15,46
-41,-14,46
-41,-14,46
-42,-13,47
-40,-13,48
-40,-13,48
-40,-14,47
-40,-14,47
-40,-14,46
-41,-14,46
-40,-14,46
-40,-14,47
-40,-13,47
-40,-14,46
-41,-14,46
-40,-14,47
-40,-14,47
-40,-14,47
-40,-14,46
-40,-14,46
-41,-14,47
-40,-14,47
-40,-14,47
-40,-14,47
-40,-14,47
-40,-14,47
-40,-14,47
-41,-14,47
-41,-14,47
-40,-14,47
-40,-14,46
-41,-14,46
-41,-14,47
-40,-14,47
-40,-14,47
-40,-14,47
-41,-14,46
-41,-14,46
-40,-13,48
-40,-14,47
-41,-14,47
-40,-15,46
-42,-15,45
-42,-15,46
-40,-14,46
-40,-15,46
-40,-15,47
-40,-15,46
-39,-14,48
-40,-14,47
-41,-15,45
-40,-15,46
-40,-14,48
-40,-15,46
-41,-15,46
-41,-15,46
-40,-15,46
-41,-15,45
-41,-15,46
-40,-14,47
-40,-15,46
-41,-15,45
-40,-14,48
-40,-15,46
-41,-15,45
-40,-15,46
-40,-16,46
-42,-16,45
-41,-15,47
-40,-15,47
-40,-16,45
-41,-16,45
-40,-15,47
-40,-15,47
-41,-16,45
-42,-15,46
-40,-15,46
-40,-16,46
-41,-16,45
-41,-15,46
-40,-15,46
-40,-15,47
-42,-15,46
-40,-15,47
-40,-16,46
-42,-15,47
-40,-15,45
-40,-15,46
-40,-15,46
-41,-16,45
-42,-16,44
-40,-15,46
-40,-16,46
-42,-16,46
-41,-16,45
-40,-16,46
-40,-16,46
-40,-16,46
-41,-16,46
-41,-16,44
-40,-16,44
-40,-16,46
-40,-16,45
-40,-16,46
-42,-15,46
-43,-16,45
-41,-16,45
-40,-16,47
-41,-16,46
-42,-16,45
-41,-16,46
-40,-16,46
-41,-16,46
-41,-15,46
-41,-16,46
-41,-16,45
-40,-15,48
-41,-15,46
-41,-17,43
-44,-15,46
-42,-14,47
-40,-16,46
-41,-16,46
-40,-15,46
-42,-16,45
-40,-15,47
-40,-15,47
-41,-16,45
-41,-15,46
-40,-15,46
-41,-16,46
-41,-15,46
-41,-15,46
-40,-16,46
-41,-16,45
-41,-16,46
-41,-16,45
-41,-16,44
-41,-15,47
-40,-16,46
-40,-16,46
-40,-15,46
-42,-15,47
-41,-15,46
-40,-16,46
-40,-16,46
-41,-15,46
-41,-15,46
-41,-15,46
-41,-15,46
-41,-15,46
-40,-15,45
-41,-15,46
-41,-15,46
-41,-15,46
-41,-15,46
-41,-16,45
-42,-16,44
-42,-15,45
-41,-15,46
-41,-15,45
-41,-15,45
-41,-15,45
-41,-16,45
-40,-16,45
-42,-15,44
-39,-15,47
-39,-14,48
-40,-15,46
-44,-14,45
-44,-14,44
-41,-15,45
-40,-15,47
-41,-14,46
-42,-15,45
-41,-15,45
-40,-14,47
-43,-15,45
-42,-14,46
-41,-14,46
-41,-15,45
-42,-14,46
-42,-14,46
-41,-15,46
-41,-15,45
-41,-15,46
-41,-14,46
-40,-14,46
-41,-14,46
-41,-14,46
-41,-15,46
-40,-14,47
-40,-15,46
-41,-15,45
-41,-15,46
-41,-14,47
-41,-15,46
-40,-15,46
-41,-14,46
-41,-15,46
-41,-14,46
-41,-15,46
-40,-15,46
-42,-14,46
-41,-15,46
-41,-15,46
-42,-14,46
-40,-15,47
-40,-15,46
-41,-15,46
-41,-15,46
-41,-15,46
-41,-15,46
-41,-14,47
-41,-15,46
-41,-15,46
-41,-15,46
-41,-15,46
-41,-14,46
-41,-15,46
-41,-15,45
-42,-14,45
-39,-13,49
-38,-15,49
-39,-15,46
-44,-14,45
-42,-14,45
-41,-14,47
-39,-16,44
-42,-15,46
-40,-13,49
-40,-14,47
-39,-13,49
-38,-13,49
-42,-15,45
-42,-15,44
-41,-14,47
-40,-13,48
-39,-14,48
-40,-14,47
-40,-14,48
-41,-13,47
-40,-14,46
-41,-14,46
-40,-14,47
-40,-14,47
-40,-14,47
-40,-14,46
-40,-14,48
-41,-14,47
-41,-14,47
-40,-14,47
-40,-14,47
-40,-14,47
-40,-14,47
-40,-14,47
-40,-14,47
-40,-14,47
-40,-14,46
-40,-14,47
-41,-14,46
-40,-14,46
-40,-14,47
-40,-14,47
-40,-14,47
-41,-14,47
-41,-14,47
-40,-13,48
-40,-14,46
-40,-14,47
-40,-14,47
-40,-14,47
-41,-14,46
-40,-14,46
-40,-14,47
-40,-14,47
-40,-14,47
-40,-14,47
-40,-14,47
-40,-14,47
-40,-14,47
-40,-14,47
-40,-14,47
-40,-14,47
-40,-14,47
-40,-14,47
-40,-14,47
-40,-14,46
-40,-14,47
-40,-14,47
-40,-14,47
-40,-14,47
-40,-14,47
-40,-14,47
-40,-14,47
-40,-14,47
-40,-14,47
-40,-14,47
-40,-14,47
-40,-14,47
-40,-14,47
-40,-14,47
-40,-14,47
-40,-14,47
-40,-14,47
-40,-14,47
-40,-14,47
-40,-14,47
-40,-14,46
-40,-14,47
-40,-14,47
-40,-14,47
-40,-14,47
-40,-14,47
-40,-14,47
-40,-14,47
-40,-14,46
-40,-14,47
-40,-14,47
-40,-14,47
-40,-14,47
-40,-14,47
-40,-14,47
-40,-14,46
-40,-14,46
-40,-14,47
-41,-14,47
-40,-14,47
-41,-14,46
-41,-14,47
-40,-14,47
-40,-14,46
-41,-14,47
-40,-14,47
-40,-14,47
-40,-14,46
-41,-14,47
-40,-14,46
-40,-14,47
-41,-14,46
-41,-14,47
-41,-14,47
-40,-14,46
-40,-14,47
-41,-14,47
-40,-14,46
-41,-14,47
-40,-14,46
-40,-14,47
-40,-14,47
-40,-14,46
-41,-14,46
-40,-14,47
-40,-14,46
-40,-14,46
-40,-14,47
-40,-14,46
-40,-14,47
-40,-14,47
-41,-14,46
-41,-14,46
-40,-14,47
-40,-14,46
-40,-14,47
-40,-14,47
-40,-14,47
-40,-14,47
-40,-14,46
-40,-14,46
-40,-14,47
-40,-14,47
-40,-14,47
-40,-14,47
-40,-14,47
-41,-14,47
-41,-14,47
-40,-14,47
-40,-14,46
-40,-14,47
-40,-14,47
-40,-14,47
-40,-14,46
-40,-14,46
-41,-14,47
-40,-14,47
-40,-14,47
-40,-14,47
-40,-14,47
-40,-14,47
-40,-14,47
-40,-14,46
-40,-14,47
-41,-14,47
-41,-14,47
-41,-14,46
-41,-14,46
-40,-14,47
-40,-14,47
-41,-14,46
-40,-14,47
-40,-14,47
-40,-14,46
-41,-14,47
-40,-14,47
-40,-14,47
-40,-14,46
-40,-14,46
-40,-14,47
-40,-14,47
-40,-14,46
-40,-14,46
-40,-14,46
-40,-14,47
-40,-14,47
-40,-14,47
-40,-14,46
-41,-14,47
-40,-14,47
-40,-14,47
-40,-14,47
-40,-14,46
-41,-14,47
-40,-14,47
-41,-14,47
-40,-14,48
-41,-14,46
-40,-14,47
-40,-14,47
-40,-14,47
-40,-14,46
-40,-14,46
-40,-14,47
-40,-14,46
-40,-14,46
-40,-14,47
-40,-14,47
-40,-14,47
-41,-14,47
-40,-14,47
-41,-14,46
-40,-14,47
-40,-14,47
-40,-14,47
-40,-14,47
-40,-14,47
-40,-14,47
-41,-14,47
-40,-14,46
-40,-14,46
-41,-14,47
-40,-14,47
-41,-14,47
-40,-14,46
-40,-14,46
-40,-14,47
-40,-14,47
-40,-14,46
-41,-14,47
-40,-14,46
-40,-14,47
-40,-14,47
-40,-14,47
-40,-14,47
-41,-15,46
-42,-16,42
-38,-14,49
-39,-12,50
-40,-13,47
-39,-14,46
-40,-14,45
-41,-14,46
-40,-14,46
-40,-14,48
-40,-13,48
-40,-13,48
-40,-14,46
-40,-14,47
-40,-14,46
-40,-14,47
-40,-13,48
-40,-14,48
-41,-14,47
-40,-14,47
-40,-14,47
-40,-13,49
-41,-14,45
-40,-15,44
-41,-13,48
-40,-13,48
-38,-14,48
-39,-15,47
-42,-14,46
-41,-13,47
-40,-15,46
-40,-14,47
-42,-13,51
-39,-14,47
-39,-18,40
-38,-18,43
-37,-15,45
-41,-14,51
-40,-12,53
-40,-14,49
-40,-15,46
-39,-15,47
-41,-15,46
-42,-16,44
-39,-16,44
-40,-15,47
-40,-14,48
-39,-14,48
-40,-14,48
-40,-14,48
-41,-14,46
-41,-14,47
-41,-13,47
-41,-13,47
-41,-14,46
-40,-15,46
-39,-15,46
-40,-14,47
-40,-14,47
-39,-13,48
-42,-13,48
-41,-13,47
-41,-14,46
-40,-15,45
-41,-14,46
-43,-14,46
-40,-14,46
-41,-14,48
-40,-14,47
-40,-13,48
-40,-14,47
-40,-15,46
-40,-15,46
-40,-15,46
-41,-14,47
-40,-14,48
-41,-14,48
-40,-14,46
-41,-15,47
-41,-14,47
-40,-15,46
-40,-15,47
-39,-15,46
-41,-14,47
-40,-15,46
-41,-14,47
-40,-14,46
-40,-14,47
-40,-14,47
-40,-14,47
-40,-14,47
-41,-14,47
-41,-14,46
-40,-15,47
-40,-14,46
-40,-15,46
-40,-14,47
-39,-15,46
-40,-14,47
-41,-14,47
-42,-14,46
-41,-14,47
-40,-14,47
-40,-14,46
-40,-14,46
-40,-14,47
-40,-14,47
-41,-14,47
-41,-14,47
-40,-14,47
-41,-14,46
-40,-15,46
-40,-14,48
-40,-14,47
-40,-15,46
-40,-15,46
-41,-15,45
-41,-15,47
-41,-13,49
-38,-14,48
-39,-15,47
-40,-15,46
-40,-15,45
-40,-15,45
-40,-15,46
-40,-15,47
-39,-14,48
-40,-15,46
-41,-14,47
-41,-14,47
-40,-14,48
-39,-14,48
-40,-14,46
-39,-13,49
-41,-15,46
-42,-15,45
-41,-15,45
-41,-15,45
-40,-15,45
-41,-15,46
-40,-14,49
-40,-15,47
-41,-15,46
-39,-15,46
-40,-16,46
-42,-15,46
-41,-15,46
-40,-16,45
-39,-16,46
-40,-16,46
-41,-15,46
-39,-16,45
-42,-15,48
-40,-15,48
-40,-16,44
-40,-15,48
-41,-13,49
-41,-14,47
-39,-15,46
-40,-16,45
-42,-16,43
-34,-14,52
-34,-11,56
-39,-12,51
-41,-14,46
-41,-15,46
-38,-15,46
-38,-15,48
-39,-15,48
-40,-14,47
-40,-15,48
-38,-15,47
-41,-15,48
-36,-15,48
-37,-16,46
-38,-15,49
-38,-14,50
-38,-14,49
-38,-15,49
-37,-15,48
-38,-15,49
-38,-15,48
-38,-15,48
-37,-15,49
-38,-15,49
-38,-14,49
-38,-15,48
-38,-15,48
-38,-14,49
-37,-15,49
-38,-15,48
-38,-15,48
-38,-14,49
-38,-14,49
-38,-15,48
-37,-15,49
-38,-15,48
-39,-14,49
-38,-15,49
-38,-15,48
-38,-15,48
-38,-15,49
-38,-14,48
-37,-15,49
-38,-15,48
-39,-15,47
-39,-15,48
-38,-15,49
-39,-14,49
-38,-15,47
-38,-15,48
-38,-14,50
-38,-14,48
-39,-15,48
-37,-15,48
-38,-14,50
-38,-15,47
-46,-17,39
-38,-17,46
-7,-4,81
-37,-10,57
-41,-14,52
-47,-13,41
-55,-16,30
-55,-19,28
-50,-17,36
-45,-17,37
-42,-17,41
-39,-15,48
-36,-14,51
-35,-14,51
-34,-14,53
-35,-12,54
-36,-12,53
-36,-14,50
-38,-15,47
-38,-15,48
-41,-13,49
-40,-13,49
-37,-15,49
-34,-15,52
-30,-14,54
-34,-15,52
-39,-16,47
-40,-15,49
-38,-15,47
-41,-18,44
-39,-17,45
-37,-16,48
-37,-15,50
-37,-15,49
-38,-15,51
-37,-15,48
-37,-16,48
-38,-16,47
-37,-15,49
-37,-16,48
-37,-16,49
-38,-15,49
-37,-15,49
-38,-15,49
-37,-15,49
-37,-16,48
-37,-15,49
-37,-15,49
-37,-15,49
-37,-15,49
-37,-15,49
-38,-15,49
-38,-15,49
-37,-15,49
-38,-15,49
-37,-15,49
-38,-15,48
-37,-15,49
-38,-15,48
-38,-15,49
-37,-15,49
-37,-14,50
-38,-14,50
-36,-14,50
-38,-15,49
-38,-15,48
-38,-15,48
-38,-15,48
-38,-15,49
-38,-15,48
-37,-15,49
-37,-14,49
-37,-14,49
-37,-14,50
-37,-13,50
-38,-13,50
-37,-13,49
-38,-13,49
-41,-12,51
-52,-9,58
-78,-18,65
-99,-23,63
-96,-35,41
-84,-30,38
-42,-25,38
-3,-11,40
11,-15,40
15,-22,35
29,-29,26
53,-13,23
-42,-50,32
-13,-50,42
-4,-47,45
-11,-53,36
-11,-45,38
-11,-47,40
-9,-50,35
-5,-53,32
-2,-52,31
-9,-53,33
-6,-52,35
-6,-51,34
-5,-54,31
-5,-55,33
-7,-54,31
-8,-54,29
-13,-58,28
-10,-57,27
-5,-55,28
-5,-54,30
-11,-54,29
-8,-53,32
0,-54,31
0,-54,27
-9,-54,27
-15,-54,37
-9,-53,36
-14,-54,46
-3,-55,29
-1,-57,27
-5,-56,27
-24,-56,19
-22,-56,24
-29,-54,12
-36,-57,10
-31,-56,11
-27,-57,10
-19,-58,16
-18,-58,16
3,-57,28
-19,-58,15
-24,-60,9
-19,-58,16
-23,-58,14
-27,-56,18
-24,-54,25
-22,-55,26
-21,-54,28
-16,-47,43
-35,-54,27
-33,-56,18
-15,-56,16
-4,-61,12
-4,-64,10
-18,-53,24
-34,-49,22
-38,-51,22
-28,-54,22
-28,-54,22
-29,-53,22
-28,-54,23
-26,-54,22
-24,-54,25
-25,-52,27
-21,-54,26
-15,-54,20
-20,-57,16
-20,-56,16
-23,-54,14
-34,-55,9
-33,-55,8
-38,-53,4
-41,-55,2
-38,-54,5
-35,-54,7
-31,-54,8
-29,-54,10
-33,-55,8
-34,-53,8
-35,-53,9
-34,-53,11
-34,-54,11
-33,-54,11
-27,-53,17
-32,-54,17
-35,-53,15
-36,-54,12
-24,-55,17
-23,-56,17
-27,-55,13
-26,-55,14
-24,-55,15
-25,-54,18
-29,-53,18
-30,-53,18
-30,-53,19
-31,-53,19
-31,-53,18
-31,-53,17
-30,-54,15
-29,-54,16
-30,-54,16
-28,-54,16
-29,-54,15
-29,-54,16
-32,-54,15
-32,-54,15
-30,-53,17
-31,-53,17
-31,-54,16
-28,-54,17
-28,-54,16
-29,-54,15
-28,-54,15
-29,-54,16
-30,-54,17
-29,-54,17
-29,-54,18
-29,-53,18
-29,-54,18
-29,-54,18
-29,-53,17
-27,-54,17
-28,-54,18
-32,-54,15
-30,-54,16
-29,-54,17
-31,-53,18
-30,-53,18
-30,-53,19
-30,-53,17
-30,-53,17
-30,-54,16
-29,-54,16
-29,-54,17
-30,-53,17
-31,-53,18
-30,-53,19
-30,-53,19
-31,-53,18
-30,-53,18
-30,-53,17
-31,-53,17
-30,-53,17
-29,-54,16
-28,-54,17
-28,-54,14
-28,-55,14
-28,-55,13
-29,-55,13
-30,-55,13
-30,-54,13
-29,-54,15
-29,-54,15
-29,-54,15
-31,-54,15
-31,-54,15
-31,-54,15
-30,-54,15
-29,-54,16
-30,-54,15
-30,-54,15
-29,-54,15
-30,-54,16
-31,-54,16
-31,-53,16
-31,-54,15
-29,-54,15
-29,-55,14
-30,-55,13
-29,-55,14
-28,-55,15
-29,-53,17
-35,-53,16
-40,-52,18
-40,-52,16
-33,-54,9
-29,-55,7
-21,-59,4
-21,-59,2
-22,-60,1
-18,-60,3
-16,-60,5
-17,-60,4
-18,-60,6
-19,-60,7
-22,-59,6
-24,-59,6
-24,-59,6
-24,-59,6
-25,-58,6
-25,-58,7
-25,-58,8
-25,-58,9
-25,-58,9
-25,-58,8
-26,-58,8
-25,-58,7
-23,-58,8
-24,-58,7
-25,-58,7
-24,-58,7
-22,-59,7
-23,-58,6
-23,-59,5
-22,-59,4
-22,-59,4
-23,-59,4
-15,-59,8
-17,-59,8
-26,-58,4
-26,-58,5
-27,-58,4
-27,-58,1
-27,-59,0
-25,-58,0
-25,-59,-2
-25,-58,1
-26,-58,2
-29,-57,0
-31,-57,0
-29,-58,0
-30,-57,0
-29,-57,0
-26,-58,1
-27,-58,0
-28,-58,-1
-25,-58,0
-25,-58,0
-29,-58,0
-27,-58,0
-28,-58,1
-30,-57,0
-30,-57,0
-28,-58,1
-27,-57,1
-29,-57,0
-31,-58,-2
-23,-58,4
-20,-59,6
-23,-58,5
-25,-58,4
-26,-58,3
-26,-58,3
-25,-58,2
-26,-58,2
-26,-58,3
-26,-58,3
-26,-58,3
-25,-58,4
-26,-58,4
-26,-58,4
-26,-58,4
-26,-58,4
-27,-58,4
-27,-58,4
-26,-58,4
-25,-58,5
-25,-58,4
-26,-58,4
-27,-58,4
-25,-58,4
-27,-58,4
-28,-57,5
-25,-58,5
-25,-58,5
-26,-58,4
-26,-58,4
-27,-57,4
-26,-58,6
-27,-58,5
-27,-58,4
-26,-58,4
-26,-58,4
-26,-58,4
-26,-58,4
-28,-58,4
-27,-58,5
-27,-58,5
-26,-58,4
-26,-58,5
-26,-58,4
-26,-58,5
-27,-58,4
-27,-58,4
-26,-58,4
-26,-58,5
-27,-58,4
-27,-58,3
-25,-58,4
-24,-58,5
-25,-58,6
-25,-58,5
-25,-58,4
-28,-58,3
-29,-57,4
-29,-56,7
-29,-56,7
-29,-56,6
-30,-57,5
-28,-57,5
-27,-57,6
-27,-57,5
-28,-58,4
-27,-57,4
-27,-57,5
-28,-57,4
-28,-57,5
-28,-57,5
-28,-57,5
-28,-57,5
-28,-57,5
-28,-57,5
-27,-57,5
-27,-57,5
-27,-57,5
-27,-58,5
-28,-57,4
-26,-57,5
-23,-57,6
-22,-55,10
-17,-54,11
-5,-47,8
-24,-46,-3
-37,-46,-8
-44,-35,-9
-57,-24,-15
-65,-22,-17
-63,-25,-7
-37,-34,12
-22,-28,41
-22,-22,74
-35,-25,68
-36,-22,65
-37,-21,62
-37,-22,61
-38,-21,64
-35,-21,58
-39,-20,46
-35,-20,48
-37,-15,56
-34,-13,50
-35,-14,48
-38,-15,51
-32,-16,51
-31,-16,52
-32,-16,51
-34,-14,52
-33,-14,52
-35,-15,51
-34,-14,52
-34,-14,52
-34,-15,50
-40,-13,54
-39,-12,54
-31,-13,50
-33,-16,48
-33,-17,49
-33,-18,51
-33,-15,51
-35,-15,52
-37,-14,51
-37,-14,52
-36,-14,52
-37,-15,50
-37,-15,48
-37,-16,48
-36,-15,51
-34,-14,54
-35,-14,54
-28,-15,49
-29,-16,49
-34,-18,47
-34,-18,48
-31,-18,49
-36,-13,52
-35,-11,55
-37,-10,56
-36,-11,52
-36,-13,51
-36,-13,50
-36,-13,50
-36,-13,51
-35,-12,51
-36,-12,51
-37,-12,51
-36,-12,51
-36,-12,51
-36,-12,51
-36,-12,51
-36,-12,51
-35,-13,51
-35,-12,51
-36,-12,51
-36,-12,51
-37,-12,51
-36,-12,51
-37,-13,50
-37,-13,50
-37,-13,50
-37,-13,50
-36,-13,50
-36,-13,50
-37,-12,50
-37,-13,50
-38,-13,49
-37,-14,49
-38,-13,49
-38,-13,48
-38,-15,46
-38,-15,46
-38,-11,53
-34,-11,55
-37,-10,56
-34,-12,50
-30,-15,49
-35,-15,48
-36,-15,50
-37,-13,50
-36,-12,53
-34,-12,54
-36,-13,51
-35,-14,50
-36,-15,50
-37,-14,49
-39,-14,49
-37,-14,49
-39,-14,50
-41,-14,48
-41,-18,38
-48,-20,33
-45,-12,45
-14,-8,72
-26,-7,66
-26,-8,58
-25,-9,56
-27,-11,54
-28,-14,53
-33,-14,53
-25,-11,58
-28,-9,63
-35,-13,52
-28,-13,52
-29,-17,51
-31,-18,52
-31,-16,51
-34,-14,52
-37,-13,50
-37,-14,49
-42,-13,48
-43,-13,46
-46,-12,39
-45,-15,32
-58,-18,23
-58,-15,24
-57,-15,24
-61,-14,18
-62,-14,16
-62,-14,18
-61,-13,20
-59,-13,20
-60,-13,18
-58,-14,20
-59,-14,20
-60,-13,19
-60,-13,19
-59,-13,20
-60,-13,20
-58,-14,20
-59,-14,20
-59,-14,19
-59,-13,19
-58,-14,20
-60,-13,19
-59,-13,20
-59,-13,20
-59,-13,20
-59,-14,19
-59,-13,19
-59,-13,20
-59,-13,20
-59,-14,19
-59,-13,19
-59,-14,19
-59,-13,20
-59,-13,20
-59,-13,20
-59,-13,20
-59,-13,19
-59,-13,19
-59,-13,19
-59,-13,19
-59,-14,20
-59,-13,20
-59,-13,20
-59,-13,20
-59,-13,20
-59,-14,19
-59,-13,19
-59,-13,19
-59,-13,19
-60,-13,19
-60,-12,19
-61,-12,19
-60,-12,19
-61,-12,20
-59,-13,19
-58,-13,19
-60,-13,19
-60,-13,19
-60,-13,18
-59,-13,19
-59,-13,19
-59,-13,19
-60,-12,20
-60,-12,18
-60,-13,18
-62,-13,19
-60,-13,18
-60,-13,18
-60,-13,17
-60,-13,18
-60,-13,17
-60,-12,19
-60,-13,19
-60,-13,19
-59,-14,18
-59,-13,19
-59,-13,19
-59,-14,18
-59,-14,19
-60,-14,18
-60,-14,18
-59,-14,18
-59,-14,19
-59,-14,18
-60,-14,18
-60,-14,17
-60,-14,18
-60,-14,16
-60,-15,16
-59,-14,19
-60,-13,19
-60,-14,18
-60,-15,17
-60,-14,18
-60,-14,19
-60,-14,19
-60,-14,18
-59,-14,19
-59,-14,19
-60,-15,18
-60,-14,18
-60,-14,18
-59,-15,18
-59,-15,19
-59,-14,20
-60,-14,19
-59,-14,19
-59,-15,19
-59,-14,19
-60,-14,18
-59,-14,19
-59,-15,18
-60,-14,18
-60,-14,19
-59,-14,19
-60,-14,19
-59,-14,18
-60,-14,18
-59,-14,18
-60,-14,18
-59,-14,18
-59,-14,19
-59,-15,19
-59,-15,18
-59,-14,18
-60,-15,18
-60,-15,18
-59,-14,18
-60,-14,18
-59,-14,19
-59,-14,19
-59,-14,19
-59,-14,19
-59,-14,19
-59,-14,19
-59,-14,19
-60,-15,18
-59,-14,19
-59,-14,19
-59,-14,19
-59,-14,19
-59,-14,19
-59,-14,19
-59,-14,19
-59,-14,19
-59,-15,19
-59,-14,19
-59,-14,19
-59,-14,19
-60,-14,19
-59,-14,19
-59,-14,20
-59,-14,20
-59,-14,19
-59,-14,19
-59,-14,20
-59,-14,19
-59,-14,19
-59,-14,19
-60,-14,19
-59,-14,19
-59,-14,20
-59,-14,20
-59,-14,19
-59,-14,19
-59,-14,19
-59,-14,19
-59,-14,19
-59,-14,19
-59,-14,19
-59,-14,19
-59,-14,20
-59,-14,19
-59,-14,19
-59,-14,19
-60,-14,19
-59,-14,19
-60,-14,19
-59,-14,19
-59,-14,19
-59,-14,19
-59,-14,19
-59,-14,19
-59,-14,19
-59,-14,19
-59,-14,19
-60,-14,19
-59,-14,19
-59,-14,19
-59,-14,19
-59,-14,19
-59,-14,19
-59,-14,19
-59,-14,19
-60,-14,19
-59,-14,19
-60,-14,19
-59,-14,19
-59,-14,19
-59,-14,19
-59,-14,19
-59,-14,19
-59,-14,19
-60,-14,19
-59,-14,19
-59,-14,19
-60,-14,19
-59,-14,18
-58,-14,21
-59,-14,20
-60,-14,18
-60,-15,17
-59,-15,17
-60,-15,17
-59,-15,16
-60,-15,16
-60,-15,17
-60,-14,18
-59,-14,18
-59,-15,17
-59,-15,18
-59,-15,18
-60,-15,18
-59,-15,18
-59,-15,18
-60,-15,18
-60,-15,17
-60,-15,18
-59,-15,18
-60,-15,18
-59,-15,18
-60,-15,18
-59,-15,18
-60,-15,18
-60,-15,17
-60,-15,17
-59,-15,18
-59,-15,18
-59,-15,18
-59,-15,18
-60,-15,17
-60,-15,17
-60,-15,18
-60,-15,18
-59,-15,18
-60,-15,18
-60,-15,17
-60,-14,18
-59,-15,18
-59,-15,18
-59,-15,17
-59,-15,18
-60,-15,17
-59,-15,17
-60,-15,18
-60,-15,17
-60,-15,18
-59,-15,18
-59,-15,17
-59,-15,18
-59,-15,18
-60,-15,18
-60,-15,18
-60,-15,17
-60,-15,17
-60,-15,17
-60,-15,17
-60,-14,18
-60,-15,17
-60,-15,17
-60,-15,18
-60,-15,18
-59,-15,17
-60,-15,18
-59,-15,18
-59,-15,18
-60,-15,17
-60,-15,17
-59,-15,18
-60,-15,18
-60,-15,17
-60,-15,16
-59,-15,18
-58,-14,19
-61,-14,19
-60,-15,16
-60,-15,17
-59,-15,18
-59,-14,18
-59,-14,18
-60,-14,18
-59,-14,18
-59,-15,18
-59,-15,18
-60,-14,18
-60,-14,18
-59,-15,18
-61,-15,17
-60,-14,18
-59,-14,20
-60,-13,24
-56,-12,29
-59,-12,21
-60,-13,18
-59,-17,10
-62,-18,5
-62,-17,4
-62,-19,2
-62,-18,3
-63,-16,5
-61,-15,9
-62,-15,11
-62,-15,11
-62,-14,11
-61,-16,10
-61,-16,9
-61,-16,10
-61,-16,10
-61,-16,10
-61,-16,10
-61,-15,11
-61,-15,11
-61,-16,11
-61,-16,10
-61,-16,10
-61,-16,10
-61,-16,11
-61,-16,11
-62,-15,11
-61,-15,11
-61,-15,11
-61,-16,11
-61,-15,10
-61,-16,11
-61,-16,11
-61,-16,11
-61,-16,10
-63,-16,9
-62,-15,12
-60,-14,14
-60,-15,15
-61,-16,10
-61,-17,9
-62,-16,9
-61,-16,11
-60,-16,11
-61,-16,11
-61,-16,11
-61,-16,11
-61,-15,12
-59,-14,14
-58,-15,12
-62,-17,8
-60,-15,11
-60,-16,11
-61,-16,10
-60,-16,11
-61,-16,11
-62,-16,11
-61,-15,10
-62,-16,11
-61,-16,10
-61,-17,8
-61,-16,10
-61,-16,10
-61,-16,9
-61,-15,11
-62,-15,11
-62,-15,10
-61,-15,10
-61,-16,9
-62,-16,10
-61,-16,10
-61,-16,10
-61,-16,10
-62,-15,11
-61,-16,10
-61,-16,10
-61,-16,10
-62,-16,10
-62,-15,10
-61,-16,10
-61,-16,10
-61,-16,10
-61,-16,11
-61,-16,10
-61,-16,10
-61,-15,11
-61,-16,10
-61,-16,10
-61,-16,10
-62,-16,11
-61,-16,10
-61,-16,10
-61,-15,11
-61,-15,10
-61,-16,10
-61,-16,11
-61,-15,11
-61,-16,11
-61,-15,11
-61,-16,10
-61,-16,10
-61,-16,11
-61,-16,10
-61,-15,10
-61,-16,11
-61,-16,11
-61,-15,11
-61,-15,11
-61,-16,10
-61,-16,10
-61,-16,10
-60,-16,11
-62,-15,11
-61,-16,11
-61,-16,11
-61,-16,11
-61,-16,10
-61,-16,10
-61,-16,10
-61,-16,10
-61,-16,10
-60,-16,11
-61,-15,12
-62,-15,11
-61,-15,11
-61,-16,11
-61,-16,11
-61,-16,10
-61,-16,10
-61,-15,11
-61,-16,10
-61,-16,11
-61,-16,11
-60,-16,11
-60,-16,10
-61,-16,11
-61,-15,11
-62,-15,11
-61,-16,11
-61,-16,11
-61,-16,10
-61,-16,11
-61,-16,10
-61,-16,11
-62,-16,10
-61,-15,11
-61,-15,11
-61,-16,11
-61,-15,11
-61,-15,10
-61,-16,10
-61,-16,11
-61,-16,11
-61,-16,10
-61,-16,11
-61,-16,11
-61,-16,11
-61,-16,11
-62,-15,10
-61,-16,11
-61,-16,11
-61,-16,11
-62,-16,11
-61,-15,11
-61,-16,11
-61,-16,10
-60,-16,11
-61,-16,10
-61,-16,11
-61,-16,11
-61,-16,11
-61,-15,12
-61,-16,11
-61,-16,11
-61,-16,11
-60,-16,11
-61,-16,11
-62,-15,11
-61,-16,11
-61,-16,11
-61,-16,11
-61,-16,11
-61,-16,11
-61,-16,12
-61,-16,11
-61,-15,11
-61,-16,10
-61,-16,12
-61,-16,12
-61,-16,11
-61,-16,11
-61,-16,11
-61,-16,11
-61,-16,11
-61,-16,11
-61,-16,12
-61,-16,12
-62,-16,11
-61,-16,11
-60,-16,13
-62,-16,11
-61,-16,11
-61,-16,11
-61,-16,11
-61,-16,12
-61,-16,12
-61,-16,12
-61,-16,11
-62,-16,9
-73,-15,1
-60,-18,7
-60,-15,15
-54,-16,27
-48,-15,34
-40,-15,45
-28,-16,56
-43,-15,50
-40,-16,47
-40,-18,42
-46,-20,39
-45,-20,42
-42,-18,44
-42,-18,44
-40,-18,45
-41,-18,45
-40,-17,47
-39,-17,46
-41,-18,44
-41,-18,45
-41,-17,45
-41,-17,45
-41,-17,46
-40,-17,45
-41,-17,45
-41,-17,45
-41,-17,45
-41,-17,45
-41,-17,45
-41,-17,45
-41,-17,45
-41,-17,45
-41,-17,45
-41,-17,45
-40,-17,45
-41,-17,45
-41,-17,45
-40,-17,45
-41,-17,45
-41,-17,45
-41,-17,45
-40,-17,45
-41,-17,45
-41,-17,45
-41,-17,45
-41,-17,45
-41,-17,45
-41,-17,45
-41,-17,45
-41,-17,45
-41,-17,45
-40,-17,45
-41,-17,45
-41,-17,45
-41,-17,45
-41,-17,45
-41,-17,45
-41,-17,45
-41,-17,45
-41,-17,45
-41,-17,45
-41,-17,45
-41,-17,45
-41,-17,45
-41,-17,45
-41,-17,45
-41,-17,45
-41,-17,45
-41,-17,45
-40,-17,45
-41,-17,45
-41,-17,45
-41,-17,45
-41,-17,45
-40,-17,45
-41,-17,45
-41,-17,45
-41,-17,45
-41,-17,45
-41,-17,45
-41,-17,45
-41,-17,45
-41,-17,45
-41,-17,45
-41,-17,45
-41,-17,45
-40,-17,45
-41,-17,45
-41,-17,45
-41,-17,45
-40,-17,45
-41,-17,45
-41,-17,45
-40,-17,45
-40,-17,45
-40,-17,45
-41,-17,45
-41,-17,45
-40,-17,45
-41,-17,45
-41,-17,45
-41,-17,45
-41,-17,45
-41,-17,45
-41,-17,45
-41,-17,45
-41,-18,45
-41,-17,45
-41,-17,45
-41,-17,45
-41,-17,45
-41,-17,45
-41,-17,45
-41,-17,45
-41,-17,45
-41,-17,45
-41,-17,45
-41,-17,45
-41,-17,45
-41,-17,45
-41,-17,45
-42,-17,45
-42,-17,44
-42,-17,45
-42,-17,45
-42,-17,44
-42,-17,44
-42,-17,45
-41,-17,45
-42,-17,45
-43,-17,45
-41,-17,42
-43,-17,43
-43,-17,44
-43,-17,44
-42,-17,44
-43,-17,44
-42,-18,43
-43,-17,43
-42,-17,44
-43,-17,44
-42,-17,44
-42,-17,44
-42,-17,44
-42,-17,44
-42,-17,44
-42,-17,44
-42,-17,44
-43,-17,44
-42,-17,44
-42,-17,44
-42,-17,45
-42,-17,45
-42,-17,44
-42,-17,44
-43,-17,44
-43,-16,44
-44,-17,42
-42,-17,44
-43,-17,44
-43,-17,43
-43,-18,44
-43,-17,43
-43,-17,42
-42,-17,44
-42,-17,44
-43,-17,43
-43,-17,43
-43,-17,43
-44,-16,44
-43,-16,44
-43,-16,44
-43,-17,43
-43,-17,43
-43,-17,43
-43,-17,44
-43,-17,43
-43,-17,43
-43,-17,44
-43,-17,44
-43,-17,44
-43,-17,43
-43,-17,43
-43,-17,43
-43,-17,43
-43,-16,44
-44,-16,44
-44,-16,45
-43,-16,44
-42,-17,43
-43,-17,43
-43,-17,43
-43,-17,43
-43,-17,44
-44,-17,44
-43,-16,44
-43,-17,43
-43,-17,43
-43,-17,43
-43,-17,43
-43,-17,43
-43,-16,44
-43,-16,44
-43,-16,44
-43,-16,44
-44,-17,43
-44,-17,43
-43,-17,43
-43,-16,44
-44,-17,44
-43,-16,43
-43,-17,43
-43,-17,43
-44,-17,43
-43,-17,43
-43,-17,44
-43,-16,44
-43,-17,43
-43,-17,43
-43,-17,43
-43,-17,43
-43,-17,43
-43,-16,43
-43,-17,43
-43,-17,44
-43,-17,44
-43,-17,43
-43,-17,43
-43,-17,43
-43,-17,44
-43,-17,43
-43,-17,43
-43,-17,44
-43,-17,43
-43,-17,44
-43,-17,43
-43,-17,44
-43,-17,43
-43,-17,43
-44,-17,44
-43,-17,43
-43,-17,44
-43,-17,43
-43,-17,43
-43,-17,43
-43,-17,44
-43,-17,44
-43,-17,43
-43,-17,43
-43,-17,43
-43,-17,44
-43,-17,43
-43,-17,43
-43,-17,43
-43,-17,43
-43,-17,44
-43,-17,43
-43,-17,44
-43,-17,43
-43,-17,43
-43,-17,43
-43,-17,44
-43,-17,43
-43,-17,43
-43,-16,44
-43,-17,44
-43,-16,44
-43,-16,44
-43,-17,44
-43,-17,43
-44,-16,43
-44,-16,44
-44,-16,44
-43,-17,43
-44,-17,43
-43,-16,44
-43,-17,43
-43,-17,43
-44,-17,43
-42,-17,44
-43,-17,43
-43,-17,43
-43,-17,43
-43,-17,43
-44,-16,44
-44,-16,44
-43,-16,44
-44,-17,43
-44,-17,43
-44,-16,43
-44,-17,42
-44,-17,43
-44,-16,43
-43,-17,43
-44,-16,44
-44,-17,43
-44,-17,43
-43,-17,43
-44,-17,43
-44,-17,43
-44,-17,43
-43,-17,43
-43,-17,43
-43,-17,43
-44,-17,44
-43,-17,44
-43,-17,43
-44,-17,43
-44,-17,43
-44,-17,42
-43,-17,44
-43,-17,43
-43,-17,44
-43,-17,44
-42,-16,44
-42,-16,46
-43,-16,45
-44,-17,43
-44,-17,43
-42,-17,43
-43,-17,44
-43,-17,44
-42,-17,44
-43,-16,45
-43,-16,44
-42,-17,44
-43,-17,44
-43,-17,44
-42,-17,44
-42,-17,44
-43,-17,44
-43,-17,44
-42,-17,44
-42,-17,44
-43,-17,44
-43,-17,44
-42,-17,44
-42,-17,44
-42,-16,44
-42,-17,44
-43,-17,44
-43,-17,44
-43,-16,44
-42,-16,44
-42,-17,44
-43,-16,44
-43,-16,44
-42,-16,44
-42,-16,44
-42,-16,44
-43,-17,44
-43,-16,44
-42,-16,45
-43,-16,44
-41,-17,44
-41,-16,45
-45,-17,42
-43,-17,43
-41,-16,45
-41,-16,44
-44,-16,44
-42,-16,44
-44,-16,43
-45,-15,43
-46,-15,43
-45,-16,42
-44,-17,43
-43,-17,43
-42,-17,42
-41,-16,46
-43,-15,46
-43,-15,45
-42,-16,44
-42,-16,45
-42,-16,44
-43,-16,43
-43,-16,44
-43,-16,45
-42,-16,45
-42,-16,44
-41,-16,45
-42,-16,44
-42,-16,45
-42,-15,46
-41,-15,46
-42,-16,45
-42,-16,45
-42,-16,45
-41,-16,44
-41,-16,45
-42,-16,45
-42,-16,45
-42,-16,45
-42,-16,45
-40,-16,46
-41,-17,44
-42,-16,45
-41,-17,44
-42,-17,44
-42,-15,46
-41,-16,45
-41,-17,44
-41,-17,45
-41,-16,45
-41,-16,45
-41,-16,45
-41,-17,45
-41,-17,45
-40,-17,45
-41,-16,45
-41,-16,45
-43,-15,46
-42,-16,44
-42,-17,44
-41,-17,44
-41,-17,45
-41,-16,45
-41,-16,45
-40,-16,46
-41,-17,45
-41,-16,46
-41,-16,45
-41,-17,45
-41,-16,45
-41,-16,45
-41,-16,45
-41,-16,45
-40,-16,46
-41,-16,46
-41,-16,46
-41,-16,46
-41,-16,45
-41,-16,45
-41,-16,45
-41,-16,45
-41,-16,45
-41,-16,46
-40,-16,46
-41,-16,46
-40,-16,45
-41,-16,46
-40,-16,46
-41,-16,46
-41,-16,45
-41,-16,45
-39,-16,46
-42,-16,46
-42,-16,46
-41,-16,45
-40,-16,46
-41,-16,45
-42,-16,45
-40,-16,47
-42,-16,45
-40,-16,46
-40,-16,48
-37,-16,50
-36,-16,49
-52,-14,36
-51,-16,34
-56,-17,25
-55,-21,21
-56,-18,28
-50,-15,35
-50,-16,36
-51,-17,34
-51,-17,33
-54,-17,31
-52,-16,35
-51,-16,36
-52,-17,34
-51,-17,32
-52,-18,31
-52,-17,32
-52,-17,32
-52,-17,33
-51,-16,35
-51,-16,34
-52,-16,33
-52,-16,33
-52,-17,34
-52,-16,33
-52,-16,33
-52,-17,33
-51,-17,33
-50,-16,35
-51,-16,35
-52,-16,34
-51,-16,34
-52,-16,34
-50,-16,34
-51,-16,35
-50,-16,36
-51,-16,34
-51,-17,33
-51,-17,33
-50,-16,34
-51,-16,34
-50,-16,35
-51,-16,35
-51,-15,35
-51,-15,35
-51,-16,35
-51,-16,35
-51,-15,35
-51,-15,35
-52,-15,35
-52,-16,34
-51,-16,33
-51,-15,35
-51,-16,34
-51,-15,34
-50,-15,35
-51,-15,36
-50,-15,35
-51,-15,35
-51,-16,35
-51,-16,35
-50,-15,35
-51,-16,35
-51,-15,35
-51,-16,35
-51,-15,35
-51,-16,35
-51,-16,35
-51,-16,35
-51,-15,35
-51,-15,35
-50,-16,35
-51,-17,34
-51,-15,35
-51,-16,35
-50,-15,36
-51,-16,35
-51,-16,34
-51,-16,35
-50,-16,35
-51,-15,35
-51,-16,34
-50,-15,35
-49,-16,38
-48,-14,40
-52,-13,36
-52,-15,33
-54,-17,29
-54,-17,30
-52,-17,30
-53,-19,27
-53,-19,26
-53,-19,26
-54,-18,26
-53,-18,26
-54,-17,31
-53,-16,32
-52,-16,33
-52,-15,34
-55,-16,30
-53,-17,30
-51,-17,33
-53,-17,30
-53,-17,30
-53,-16,32
-54,-17,30
-53,-17,29
-53,-17,30
-53,-17,29
-54,-17,29
-54,-17,30
-54,-16,30
-54,-16,30
-54,-16,30
-53,-16,31
-53,-16,31
-54,-17,30
-53,-16,30
-53,-17,30
-54,-16,31
-54,-16,30
-53,-17,30
-53,-17,29
-54,-16,30
-53,-16,31
-54,-16,31
-53,-16,31
-53,-16,30
-53,-16,31
-53,-16,30
-54,-16,31
-54,-16,30
-53,-17,30
-53,-16,31
-53,-16,31
-53,-16,30
-53,-16,30
-53,-16,30
-53,-17,30
-53,-17,30
-54,-16,30
-53,-16,31
-53,-16,31
-53,-17,30
-54,-16,30
-53,-16,30
-53,-17,30
-53,-16,31
-53,-16,31
-53,-17,30
-54,-17,30
-53,-16,31
-53,-17,31
-53,-16,31
-53,-16,30
-53,-16,31
-53,-17,31
-53,-17,30
-53,-17,31
-53,-17,31
-53,-16,31
-53,-16,31
-53,-16,30
-53,-17,31
-53,-16,31
-53,-16,31
-53,-17,31
-53,-16,31
-54,-16,31
-53,-17,30
-53,-17,30
-53,-17,31
-53,-17,31
-53,-16,30
-53,-17,31
-53,-17,31
-53,-16,31
-53,-16,31
-53,-17,31
-53,-16,31
-53,-16,31
-53,-16,30
-53,-16,31
-53,-16,31
-53,-16,30
-53,-17,31
-53,-16,31
-53,-16,31
-53,-16,31
-53,-16,31
-53,-16,31
-53,-16,31
-53,-16,31
-53,-16,31
-53,-16,30
-53,-16,30
-53,-16,31
-53,-16,31
-54,-16,31
-53,-16,31
-53,-16,30
-53,-17,30
-53,-16,30
-53,-16,31
-54,-16,31
-53,-16,31
-53,-16,30
-53,-16,30
-53,-16,30
-53,-16,31
-53,-16,31
-53,-16,31
-53,-16,31
-53,-16,30
-53,-16,30
-53,-16,30
-53,-16,30
-53,-16,31
-53,-16,31
-54,-16,30
-53,-16,31
-53,-16,31
-54,-16,30
-53,-16,30
-53,-16,31
-53,-16,31
-53,-16,31
-53,-16,31
-54,-16,30
-53,-16,31
-53,-16,31
-53,-16,30
-53,-16,31
-53,-16,31
-53,-16,31
-53,-16,31
-53,-16,31
-53,-16,31
-53,-16,30
-53,-16,31
-53,-16,31
-53,-16,30
-54,-16,31
-53,-16,31
-53,-16,32
-53,-16,31
-53,-16,31
-53,-16,31
-53,-17,31
-52,-17,30
-53,-17,31
-53,-16,31
-53,-16,31
-53,-16,31
-53,-16,31
-53,-16,31
-53,-16,31
-53,-16,31
-53,-16,31
-53,-16,31
-53,-16,31
-53,-16,31
-53,-16,31
-53,-16,31
-53,-17,31
-53,-16,31
-53,-16,30
-53,-16,32
-53,-17,31
-54,-16,31
-53,-16,31
-53,-17,31
-53,-17,31
-53,-16,31
-53,-17,31
-53,-17,30
-53,-17,31
-53,-17,30
-54,-17,31
-53,-16,32
-53,-17,32
-54,-16,31
-52,-17,31
-54,-16,30
-53,-17,29
-53,-17,30
-53,-17,31
-53,-16,30
-53,-15,33
-53,-17,30
-53,-17,30
-53,-17,30
-54,-17,29
-53,-17,31
-53,-16,31
-53,-16,31
-53,-16,31
-53,-17,31
-53,-17,30
-53,-17,30
-54,-17,30
-54,-16,30
-53,-16,32
-54,-16,30
-54,-16,30
-53,-17,30
-53,-17,30
-53,-17,30
-53,-16,30
-53,-16,31
-53,-16,31
-53,-16,31
-53,-16,30
-53,-16,31
-53,-16,31
-53,-16,31
-53,-16,31
-53,-16,31
-53,-16,31
-53,-16,30
-53,-17,30
-53,-16,31
-53,-16,30
-53,-16,31
-53,-16,31
-53,-16,31
-53,-16,30
-53,-17,30
-53,-17,30
-53,-16,31
-53,-16,31
-53,-16,31
-53,-16,31
-53,-16,30
-53,-16,30
-53,-16,31
-53,-16,31
-53,-16,31
-53,-16,31
-53,-16,31
-53,-16,31
-53,-16,30
-53,-16,31
-53,-16,30
-53,-16,31
-53,-16,31
-53,-16,30
-53,-16,31
-53,-16,30
-53,-16,31
-53,-16,30
-53,-16,30
-53,-16,30
-53,-16,30
-53,-16,31
-53,-16,31
-54,-16,31
-53,-16,31
-53,-16,30
-53,-16,30
-54,-16,30
-53,-16,31
-53,-16,31
-53,-16,31
-54,-16,30
-53,-16,30
-53,-16,30
-53,-16,30
-53,-16,31
-53,-16,30
-54,-16,30
-53,-16,31
-53,-16,30
-53,-16,30
-53,-16,30
-53,-16,30
-53,-16,31
-54,-16,31
-53,-16,31
-53,-16,30
-53,-16,30
-53,-16,31
-53,-16,31
-53,-16,31
-53,-16,31
-54,-16,30
-53,-16,30
-53,-16,30
-53,-16,30
-53,-16,31
-53,-16,31
-53,-16,31
-53,-16,30
-53,-16,30
-53,-16,30
-53,-16,30
-53,-16,31
-53,-16,31
-53,-16,30
-54,-16,31
-53,-16,30
-53,-16,31
-53,-16,31
-53,-16,31
-54,-16,30
-53,-16,30
-53,-16,30
-53,-16,31
-53,-16,31
-53,-16,30
-53,-16,30
-53,-16,31
-54,-16,30
-53,-16,31
-53,-16,31
-54,-16,30
-53,-16,30
-53,-16,31
-53,-16,30
-54,-16,30
-53,-16,31
-54,-16,31
-53,-16,30
-53,-16,31
-53,-16,31
-53,-16,30
-53,-16,31
-54,-16,31
-54,-16,30
-53,-16,31
-53,-16,30
-53,-17,30
-54,-16,30
-53,-16,31
-53,-16,32
-53,-16,30
-55,-17,30
-53,-15,31
-53,-16,31
-54,-16,30
-54,-16,31
-53,-16,30
-53,-16,31
-53,-16,30
-53,-16,31
-53,-16,30
-53,-16,31
-53,-16,31
-54,-16,30
-53,-16,31
-53,-17,30
-54,-16,30
-53,-16,31
-53,-15,33
-53,-16,30
-53,-17,29
-54,-17,29
-53,-17,29
-53,-17,30
-54,-16,31
-53,-16,30
-54,-16,30
-53,-16,30
-54,-16,30
-54,-16,30
-53,-17,30
-54,-16,30
-54,-16,30
-53,-17,30
-53,-16,30
-54,-16,30
-54,-16,30
-53,-16,30
-53,-17,30
-55,-17,28
-55,-16,30
-52,-15,34
-53,-17,30
-54,-17,29
-54,-17,29
-53,-17,29
-53,-16,31
-54,-16,31
-53,-16,30
-53,-16,30
-53,-16,31
-54,-16,29
-54,-16,30
-53,-16,31
-53,-16,30
-54,-16,30
-54,-16,31
-53,-16,30
-53,-17,30
-54,-16,30
-53,-16,31
-53,-16,31
-53,-16,31
-54,-16,30
-53,-16,31
-53,-16,31
-54,-17,28
-54,-17,29
-55,-16,30
-54,-16,29
-53,-17,29
-54,-17,29
-54,-16,29
-55,-17,29
-53,-16,31
-56,-16,31
-55,-16,30
-52,-17,29
-54,-17,28
-54,-17,28
-54,-17,29
-54,-17,29
-54,-17,30
-54,-16,30
-54,-17,29
-53,-17,30
-53,-17,30
-54,-16,30
-54,-16,29
-54,-16,30
-53,-17,30
-53,-17,29
-55,-16,29
-54,-16,29
-53,-17,29
-53,-17,29
-53,-16,31
-54,-16,30
-54,-16,30
-54,-16,30
-54,-16,30
-54,-17,29
-54,-17,29
-54,-17,29
-54,-16,30
-54,-16,31
-53,-16,30
-54,-16,30
-54,-16,29
-54,-17,30
-54,-17,30
-54,-16,30
-54,-16,30
-53,-16,30
-53,-16,30
-54,-16,29
-54,-16,30
-55,-16,30
-53,-16,30
-53,-16,30
-54,-16,30
-54,-16,29
-54,-16,30
-54,-16,30
-54,-16,30
-54,-16,30
-54,-16,30
-53,-16,30
-54,-17,29
-54,-17,29
-54,-17,29
-54,-16,30
-54,-16,30
-54,-16,30
-54,-16,30
-54,-16,30
-54,-16,30
-54,-16,30
-54,-16,30
-54,-16,30
-54,-16,30
-54,-16,30
-53,-16,30
-54,-16,30
-54,-16,30
-54,-16,30
-54,-16,30
-54,-17,29
-54,-16,30
-54,-16,30
-54,-16,30
-54,-16,30
-54,-16,30
-54,-17,30
-54,-17,29
-53,-16,30
-54,-16,30
-53,-16,30
-54,-16,30
-54,-17,30
-54,-16,30
-54,-16,30
-54,-16,30
-54,-16,30
-54,-16,30
-53,-17,30
-54,-16,30
-53,-16,30
-54,-17,30
-54,-17,30
-54,-16,29
-54,-17,30
-53,-16,31
-53,-16,30
-54,-17,29
-54,-17,29
-53,-17,30
-53,-16,30
-54,-16,30
-54,-16,30
-53,-16,30
-53,-17,30
-54,-17,30
-54,-16,29
-54,-16,30
-53,-16,30
-53,-16,30
-54,-16,29
-54,-16,30
-54,-16,30
-54,-16,30
-54,-16,30
-54,-16,30
-53,-16,30
-54,-16,30
-54,-16,30
-53,-16,30
-54,-16,30
-54,-16,30
-53,-16,30
-54,-16,30
-54,-16,30
-54,-16,30
-54,-16,30
-54,-16,30
-54,-16,30
-54,-16,30
-54,-16,30
-54,-16,30
-53,-16,30
-54,-16,29
-53,-17,29
-53,-16,30
-54,-15,31
-54,-16,29
-53,-17,29
-54,-16,30
-54,-16,29
-54,-16,30
-53,-16,30
-54,-16,30
-53,-16,30
-54,-16,30
-54,-16,30
-54,-16,29
-54,-16,30
-54,-16,30
-54,-16,30
-53,-16,30
-54,-16,30
-54,-16,29
-53,-16,30
-54,-16,30
-54,-16,30
-54,-16,30
-54,-16,30
-54,-16,30
-54,-16,30
-54,-16,30
-54,-16,30
-54,-16,30
-53,-16,30
-53,-16,30
-54,-16,30
-53,-16,30
-54,-16,31
-54,-16,30
-54,-16,30
-53,-16,30
-54,-16,30
-54,-16,30
-54,-16,30
-54,-16,30
-53,-16,30
-53,-16,30
-54,-16,30
-54,-16,29
-54,-16,31
-53,-16,30
-53,-17,30
-54,-16,30
-53,-17,30
-53,-17,30
-53,-17,30
-54,-17,29
-53,-16,30
-53,-16,31
-53,-16,30
-53,-17,30
-53,-17,29
-54,-17,30
-53,-17,30
-53,-16,30
-53,-17,30
-54,-16,30
-53,-16,30
-53,-16,30
-53,-16,31
-54,-17,30
-54,-17,30
-53,-16,31
-53,-17,30
-53,-16,30
-53,-17,30
-54,-16,30
-54,-16,30
-54,-17,30
-53,-17,30
-53,-17,30
-54,-17,30
-53,-17,30
-53,-17,30
-54,-17,30
-53,-17,30
-53,-17,30
-54,-17,30
-53,-17,30
-53,-17,30
-53,-17,30
-54,-17,29
-54,-16,29
-54,-17,28
-55,-16,29
-57,-16,26
-52,-17,32
-38,-18,45
-43,-17,44
-49,-14,39
-49,-16,38
-49,-16,38
-47,-17,37
-49,-16,38
-48,-16,37
-50,-16,36
-48,-16,37
-48,-16,39
-48,-16,39
-48,-16,38
-49,-16,37
-49,-16,38
-50,-16,36
-50,-17,36
-47,-15,39
-49,-16,37
-49,-16,36
-48,-17,37
-49,-15,39
-49,-16,38
-50,-16,36
-49,-17,36
-49,-17,36
-50,-16,36
-51,-17,35
-50,-17,35
-49,-17,37
-49,-17,36
-50,-17,35
-50,-17,36
-50,-17,35
-49,-16,38
-49,-17,36
-49,-16,37
-49,-16,39
-50,-16,37
-50,-16,36
-49,-16,37
-49,-17,37
-50,-16,37
-50,-16,36
-49,-16,36
-49,-16,37
-50,-17,35
-50,-17,36
-49,-17,36
-50,-17,36
-50,-17,36
-50,-17,36
-49,-17,36
-49,-16,37
-49,-16,37
-49,-16,37
-49,-16,37
-49,-16,37
-49,-16,37
-50,-16,37
-49,-16,38
-49,-12,49
-50,-16,45
-60,-17,42
-108,-9,31
-102,-24,27
-91,-32,27
-54,-33,32
-27,-39,22
-13,-40,24
-3,-38,20
20,-40,20
20,-39,23
9,-45,19
7,-42,27
4,-43,29
4,-44,36
5,-46,35
4,-47,31
-5,-48,25
22,-49,24
33,-48,27
32,-47,24
23,-45,31
25,-46,34
33,-50,36
27,-53,30
29,-52,31
28,-52,29
28,-51,31
27,-51,31
29,-54,26
32,-49,23
29,-46,23
23,-47,31
23,-47,28
21,-47,26
21,-47,25
28,-51,26
27,-50,23
26,-48,18
27,-45,29
33,-49,30
28,-49,30
30,-52,26
29,-51,28
27,-53,30
28,-53,26
34,-52,22
36,-52,20
35,-50,24
23,-50,19
30,-48,22
33,-47,28
24,-47,23
26,-46,27
26,-47,26
24,-45,24
33,-47,25
30,-47,20
27,-46,21
26,-45,24
40,-48,35
33,-53,27
21,-51,29
31,-54,26
25,-52,21
33,-48,19
29,-48,21
29,-48,20
27,-48,24
26,-50,21
29,-51,16
24,-53,18
21,-54,19
23,-55,18
24,-55,28
21,-55,32
16,-56,26
24,-59,19
22,-57,23
13,-58,18
19,-58,15
21,-55,18
17,-54,20
11,-58,21
15,-70,28
11,-53,27
11,-57,13
22,-59,15
13,-58,16
12,-59,19
12,-59,18
17,-59,15
16,-57,19
15,-58,20
12,-59,15
23,-57,17
24,-58,18
15,-59,11
18,-58,12
21,-59,15
14,-58,17
18,-57,19
20,-58,22
10,-57,20
12,-58,23
12,-57,23
12,-57,21
14,-56,23
14,-58,19
17,-57,20
14,-58,20
13,-58,19
16,-58,18
16,-57,20
13,-57,20
15,-57,20
15,-58,21
13,-57,22
13,-58,19
15,-57,21
14,-57,21
15,-58,22
13,-58,22
12,-56,19
16,-57,22
14,-57,20
13,-58,20
14,-58,22
15,-57,22
18,-58,18
12,-58,19
14,-58,22
9,-58,19
14,-57,23
14,-56,25
12,-57,24
11,-57,25
13,-58,21
17,-57,18
13,-58,21
12,-58,20
15,-57,20
15,-58,22
12,-58,19
14,-57,22
13,-57,20
14,-57,22
13,-58,21
12,-58,21
12,-58,20
15,-57,23
13,-56,23
12,-56,24
14,-57,24
12,-57,21
12,-57,21
14,-57,21
13,-57,21
13,-57,22
13,-57,22
12,-57,22
10,-57,24
15,-58,22
15,-58,24
12,-58,21
13,-58,23
19,-57,26
14,-57,22
9,-58,22
10,-58,26
11,-58,24
9,-57,23
-6,-50,36
-4,-59,29
-11,-57,18
-2,-57,22
0,-59,19
-14,-61,11
-21,-62,8
-14,-60,12
-18,-59,15
-17,-58,19
-11,-54,30
-10,-52,39
-15,-55,33
-3,-57,28
-10,-56,23
-12,-57,21
-20,-57,13
-27,-58,6
-30,-57,8
-35,-55,8
-30,-57,10
-27,-57,12
-21,-55,21
-30,-54,19
-32,-53,20
-31,-53,20
-27,-55,16
-27,-56,13
-25,-55,17
-26,-55,16
-26,-55,17
-28,-55,17
-29,-54,18
-29,-54,18
-30,-54,16
-27,-55,16
-26,-55,17
-26,-55,17
-27,-55,17
-27,-55,18
-28,-55,17
-28,-54,17
-28,-55,17
-28,-55,17
-27,-55,17
-27,-55,17
-28,-55,17
-27,-55,17
-27,-55,17
-27,-55,16
-27,-55,17
-27,-55,17
-27,-55,17
-27,-54,17
-27,-55,18
-27,-55,17
-27,-55,17
-28,-55,17
-27,-54,17
-27,-55,17
-27,-55,17
-27,-55,17
-27,-55,17
-27,-55,17
-27,-55,17
-27,-55,17
-28,-55,17
-28,-54,17
-28,-54,18
-28,-54,17
-27,-54,17
-26,-55,17
-28,-55,17
-28,-54,17
-28,-54,17
-28,-54,17
-28,-54,17
-28,-55,17
-28,-54,17
-28,-54,17
-28,-54,17
-28,-54,17
-28,-54,17
-28,-55,17
-28,-54,17
-28,-54,17
-28,-54,18
-28,-54,17
-28,-54,17
-28,-54,17
-28,-54,18
-28,-54,17
-28,-54,17
-28,-54,17
-28,-54,17
-30,-54,16
-34,-53,18
-42,-51,28
-38,-50,29
-29,-51,26
-29,-52,22
-25,-51,20
-15,-55,17
-8,-58,12
-4,-60,6
-7,-65,-12
-11,-68,-15
-14,-65,-11
-25,-63,-3
-29,-60,-4
-11,-61,2
16,-59,33
-32,-62,8
-34,-59,13
-18,-58,22
-10,-59,21
-11,-57,23
-4,-59,19
-2,-61,12
4,-62,16
-1,-60,22
-11,-60,15
-13,-60,14
-10,-60,16
-11,-62,11
-10,-62,11
-5,-60,17
-5,-59,22
-10,-60,15
2,-60,24
-5,-60,24
-13,-59,16
-10,-59,20
-11,-59,20
-10,-59,19
-9,-60,16
-8,-61,14
-11,-61,13
-9,-60,18
-8,-60,19
-11,-60,19
-11,-60,13
-6,-60,16
-7,-60,23
-9,-58,22
-10,-58,20
-13,-59,18
-9,-60,20
-9,-62,13
-11,-66,-11
-7,-58,26
-16,-58,28
-6,-56,22
0,-62,22
-7,-61,17
-2,-61,7
4,-61,9
5,-62,11
13,-59,17
17,-59,22
18,-57,20
18,-57,21
19,-56,18
20,-56,18
22,-56,19
21,-57,17
20,-57,17
19,-57,19
18,-57,18
18,-57,19
18,-57,17
18,-57,17
19,-57,18
20,-57,18
20,-57,18
18,-57,19
17,-57,19
18,-56,18
19,-56,18
21,-56,18
21,-56,17
20,-56,19
19,-56,21
19,-56,18
20,-56,19
21,-56,22
20,-55,23
19,-56,22
17,-56,20
19,-56,17
19,-56,18
19,-56,20
18,-56,20
19,-56,20
19,-56,20
20,-56,19
19,-55,22
19,-55,23
20,-55,23
20,-56,22
19,-55,22
19,-56,21
19,-56,20
19,-56,19
20,-56,18
20,-56,19
19,-56,21
19,-56,20
19,-56,20
19,-55,21
19,-55,22
20,-55,21
20,-55,22
19,-56,23
20,-55,24
20,-55,23
19,-55,22
18,-56,20
17,-56,19
17,-56,19
18,-56,19
19,-56,20
19,-56,20
19,-56,21
19,-56,20
19,-56,20
19,-56,20
19,-56,19
19,-56,19
19,-56,19
18,-56,19
18,-57,19
18,-57,19
18,-57,19
18,-56,19
21,-57,21
19,-56,22
16,-55,23
14,-56,20
18,-57,16
17,-56,16
18,-56,21
17,-57,23
16,-56,23
13,-56,24
12,-56,24
15,-56,24
17,-57,25
14,-55,26
13,-56,25
17,-56,22
19,-56,22
20,-56,20
19,-56,20
19,-56,22
17,-56,22
16,-57,19
16,-58,18
15,-57,19
17,-57,17
18,-57,16
19,-57,16
19,-58,18
20,-57,17
19,-57,18
16,-57,18
16,-58,17
17,-58,17
17,-57,18
18,-57,19
19,-56,19
19,-57,17
19,-58,17
19,-57,16
18,-58,16
17,-58,16
18,-58,17
18,-57,17
18,-58,17
17,-57,16
18,-58,16
18,-58,16
19,-57,16
18,-57,18
16,-57,21
18,-57,17
19,-58,16
19,-57,17
19,-58,16
15,-58,18
15,-58,17
19,-59,13
16,-58,14
19,-58,15
17,-58,16
18,-57,18
18,-58,17
17,-58,16
17,-58,18
17,-58,18
19,-57,15
20,-58,16
19,-58,17
16,-58,17
15,-58,15
14,-58,14
16,-58,15
20,-57,17
21,-58,17
17,-57,15
20,-58,15
18,-58,14
17,-58,14
18,-58,15
19,-58,15
19,-58,15
20,-57,16
18,-58,15
19,-58,16
19,-58,15
18,-58,16
19,-58,17
18,-58,16
18,-57,17
17,-58,16
17,-57,17
18,-58,17
17,-58,17
17,-58,17
17,-57,18
15,-59,16
12,-58,13
19,-55,24
22,-55,26
25,-54,23
23,-55,26
15,-57,20
13,-58,18
12,-58,18
17,-58,15
17,-58,16
16,-58,15
17,-57,16
18,-57,16
20,-57,17
20,-58,16
19,-57,16
19,-57,15
18,-58,18
18,-58,15
19,-58,15
19,-58,14
18,-58,14
18,-58,13
18,-58,12
18,-58,13
19,-58,14
19,-58,12
19,-58,12
20,-58,13
19,-58,13
18,-58,13
19,-58,13
19,-58,13
19,-58,12
19,-58,12
18,-58,13
18,-58,13
19,-58,13
19,-58,14
19,-58,14
18,-58,15
21,-58,15
20,-58,13
18,-58,13
20,-58,13
21,-58,12
20,-58,13
18,-58,14
19,-58,13
19,-58,14
19,-58,14
19,-58,14
20,-58,13
19,-58,13
19,-58,14
19,-58,14
19,-58,14
19,-58,14
19,-58,13
19,-58,14
19,-58,14
19,-58,14
19,-58,14
19,-58,14
19,-58,14
19,-58,14
19,-58,14
19,-58,13
20,-58,14
20,-58,14
18,-58,13
18,-58,13
18,-58,14
19,-58,15
19,-58,14
19,-58,14
20,-58,13
19,-58,13
19,-58,13
19,-58,14
19,-58,14
19,-58,14
20,-58,13
19,-58,14
18,-58,14
19,-58,14
19,-58,14
18,-58,14
19,-58,14
19,-58,14
19,-58,14
19,-58,14
19,-58,13
19,-58,14
19,-58,14
20,-58,14
19,-58,14
19,-58,14
19,-58,14
19,-58,14
18,-58,14
18,-58,14
19,-58,14
20,-59,12
19,-58,13
18,-58,15
18,-58,15
19,-58,15
19,-58,14
19,-58,14
17,-59,13
18,-57,15
19,-58,18
18,-58,15
20,-58,14
20,-58,13
19,-58,14
19,-58,13
19,-58,14
17,-58,14
19,-58,12
17,-58,14
20,-59,14
17,-58,14
17,-58,14
18,-58,14
20,-58,13
19,-58,14
19,-58,14
19,-58,14
19,-58,14
19,-58,14
19,-58,14
19,-58,14
19,-58,14
19,-58,14
20,-58,14
18,-58,14
17,-58,11
18,-58,10
18,-58,14
21,-58,15
19,-58,14
19,-58,13
21,-57,12
22,-58,11
20,-58,12
18,-58,13
18,-58,13
18,-58,12
17,-58,12
17,-58,12
19,-58,12
21,-58,13
21,-58,13
20,-59,13
20,-58,13
20,-58,12
21,-58,11
18,-58,14
16,-58,14
17,-58,15
22,-58,10
23,-57,10
19,-57,13
17,-58,13
19,-58,17
17,-57,21
20,-57,15
21,-57,14
21,-56,12
23,-57,9
23,-56,14
20,-55,28
21,-55,27
21,-55,24
20,-57,16
18,-56,14
15,-58,13
18,-56,25
19,-56,25
27,-53,27
20,-53,26
23,-54,26
21,-55,23
17,-55,20
20,-55,22
17,-54,23
21,-55,20
22,-55,22
16,-56,21
19,-56,20
21,-56,20
22,-55,21
19,-56,19
20,-56,19
19,-56,19
19,-56,19
20,-56,19
20,-56,19
18,-56,18
20,-56,18
21,-56,16
21,-56,16
19,-57,16
20,-56,14
17,-57,16
23,-58,17
24,-58,13
8,-57,14
10,-58,18
16,-58,15
24,-57,17
21,-57,16
19,-58,15
17,-58,15
17,-58,13
21,-58,11
21,-58,13
19,-58,15
19,-58,13
20,-58,14
20,-58,14
20,-58,13
20,-58,12
20,-58,11
20,-59,10
19,-58,11
20,-58,12
19,-58,12
20,-58,12
20,-58,12
19,-58,11
20,-58,12
19,-58,12
20,-58,12
20,-58,12
20,-58,12
21,-58,12
21,-58,12
20,-58,12
20,-58,12
21,-58,12
19,-58,11
20,-58,12
21,-58,12
20,-58,12
20,-58,12
19,-58,12
19,-58,11
20,-58,11
20,-58,11
21,-58,11
21,-58,11
21,-58,11
21,-58,11
20,-58,12
20,-58,12
19,-58,12
20,-58,10
19,-57,9
18,-58,13
21,-58,14
21,-57,14
23,-56,13
22,-57,14
23,-57,14
19,-56,18
22,-56,22
21,-55,21
21,-55,19
22,-56,17
20,-55,18
21,-55,25
24,-53,24
27,-54,26
22,-54,24
23,-54,23
23,-55,22
21,-55,19
20,-55,22
20,-54,22
21,-55,21
19,-55,18
21,-55,20
21,-55,19
20,-55,20
20,-55,21
19,-55,22
19,-55,21
20,-56,20
20,-55,20
20,-55,21
20,-56,21
21,-55,21
20,-55,21
19,-55,21
21,-56,19
21,-55,18
21,-56,18
19,-56,18
20,-56,17
20,-56,17
20,-56,18
20,-56,18
20,-56,18
20,-56,18
20,-56,18
21,-56,20
20,-56,19
20,-56,18
20,-56,18
20,-57,16
21,-56,16
21,-56,16
21,-56,16
22,-57,15
19,-57,17
19,-57,16
20,-57,16
21,-57,15
20,-57,16
20,-57,16
20,-57,15
20,-58,15
19,-57,15
19,-57,15
20,-57,14
20,-57,14
20,-57,15
21,-57,14
21,-57,14
20,-58,14
18,-57,15
18,-58,16
20,-57,16
22,-57,15
21,-57,16
20,-57,15
20,-57,14
20,-58,15
19,-57,15
20,-57,15
20,-57,15
19,-58,15
19,-58,14
19,-57,13
18,-57,14
21,-60,13
17,-57,17
20,-56,21
21,-54,26
21,-55,22
22,-53,18
25,-54,21
23,-55,20
16,-56,22
17,-56,26
17,-55,24
17,-55,20
20,-56,21
20,-56,21
18,-56,20
18,-56,21
19,-56,19
19,-56,19
18,-56,21
17,-56,21
18,-56,21
18,-56,20
18,-56,20
18,-56,21
18,-56,21
18,-56,21
18,-56,21
19,-56,22
18,-56,22
19,-56,19
20,-56,17
18,-57,17
18,-56,18
19,-56,19
19,-56,19
18,-56,21
18,-56,20
19,-56,19
19,-56,20
20,-56,20
19,-56,20
17,-56,24
19,-57,25
19,-56,19
17,-56,21
16,-57,20
14,-58,16
17,-58,19
18,-57,22
17,-57,21
17,-57,21
15,-57,21
16,-57,21
16,-57,22
12,-57,20
11,-57,21
12,-57,21
10,-57,21
12,-57,23
11,-57,21
11,-57,22
11,-58,22
12,-57,22
11,-57,22
12,-57,22
10,-58,21
12,-58,20
11,-58,20
13,-58,20
12,-58,21
12,-58,22
12,-57,20
12,-58,21
12,-58,22
11,-57,20
11,-57,20
12,-57,20
16,-58,18
14,-57,17
19,-58,22
19,-57,20
15,-57,17
18,-57,20
18,-57,22
17,-57,20
18,-57,20
18,-57,20
17,-57,14
13,-58,17
14,-57,13
16,-58,13
18,-58,15
17,-58,12
23,-57,17
22,-56,19
22,-57,16
20,-58,14
23,-58,13
22,-58,11
22,-58,11
20,-58,11
19,-58,12
19,-59,10
20,-58,11
22,-58,14
22,-57,9
23,-57,10
22,-57,10
23,-58,8
25,-57,9
24,-57,10
22,-58,10
21,-58,9
21,-58,7
22,-58,8
21,-58,8
22,-57,8
23,-57,9
22,-57,8
27,-57,10
24,-58,9
23,-58,6
23,-58,9
18,-57,13
23,-58,10
24,-58,10
22,-57,9
20,-58,11
22,-57,11
23,-57,10
22,-57,10
22,-58,10
22,-57,11
23,-57,11
24,-58,10
20,-58,10
21,-58,10
22,-58,11
21,-58,11
20,-58,12
22,-58,12
22,-58,12
19,-58,12
20,-58,12
22,-58,12
21,-58,11
20,-58,12
21,-58,12
21,-58,12
20,-58,11
21,-57,12
22,-58,13
21,-57,12
20,-58,11
20,-58,11
22,-58,11
21,-58,9
20,-58,7
22,-57,15
22,-56,16
23,-56,15
23,-57,13
21,-57,12
21,-57,12
21,-57,13
21,-58,12
21,-57,12
21,-58,12
21,-58,12
22,-57,12
22,-57,12
21,-57,13
20,-58,12
21,-58,12
21,-57,13
22,-57,13
22,-57,12
22,-57,12
22,-58,12
22,-57,12
22,-58,12
22,-57,11
21,-57,11
21,-58,12
21,-57,12
22,-58,11
22,-57,11
21,-57,11
22,-57,12
22,-57,12
22,-57,12
22,-57,12
21,-57,11
24,-57,14
22,-57,11
22,-57,12
23,-58,12
23,-57,11
23,-57,10
23,-58,9
22,-58,10
21,-58,11
22,-58,10
22,-57,11
21,-58,11
22,-58,10
21,-57,12
22,-58,11
22,-58,11
22,-57,11
22,-57,11
21,-57,11
22,-57,13
22,-57,12
21,-57,11
22,-57,11
22,-57,12
21,-58,11
22,-58,12
21,-58,10
23,-58,10
23,-57,11
22,-57,11
23,-57,12
23,-57,12
22,-57,11
22,-57,11
23,-57,12
21,-57,11
22,-57,12
22,-58,10
21,-57,10
22,-58,12
21,-58,9
22,-58,9
23,-58,10
21,-58,10
21,-58,11
23,-57,12
23,-57,11
22,-57,12
22,-57,13
23,-57,12
23,-57,12
23,-57,12
23,-57,12
23,-57,11
24,-57,11
22,-57,11
22,-57,12
22,-57,11
22,-57,11
22,-57,11
22,-58,11
22,-57,11
22,-57,12
23,-57,12
23,-57,10
22,-57,11
23,-57,11
24,-57,12
23,-57,12
22,-57,12
23,-57,12
23,-57,12
23,-57,12
23,-57,11
23,-57,11
23,-57,11
23,-57,11
23,-57,12
23,-57,11
22,-57,11
22,-57,12
23,-57,12
23,-57,11
23,-57,11
22,-57,12
22,-57,12
23,-57,12
23,-57,11
23,-57,11
24,-57,12
23,-57,12
23,-57,11
22,-57,12
22,-57,12
22,-57,12
23,-57,12
23,-57,12
23,-57,12
23,-57,12
23,-57,12
23,-57,11
23,-57,12
23,-57,12
23,-57,12
23,-57,12
23,-57,11
22,-57,11
22,-57,11
22,-57,12
22,-57,12
23,-57,12
23,-57,12
23,-57,12
22,-57,12
22,-57,12
22,-57,12
22,-57,13
23,-57,12
23,-57,12
22,-57,12
23,-57,12
23,-57,12
23,-57,12
22,-57,12
22,-57,12
23,-57,12
22,-57,12
22,-57,12
22,-57,12
22,-57,12
22,-57,12
22,-57,12
23,-57,12
23,-57,12
23,-57,11
23,-57,12
23,-57,12
23,-57,12
22,-57,12
23,-57,12
23,-57,12
23,-57,12
23,-57,12
22,-57,11
23,-57,12
22,-57,12
23,-57,11
23,-57,11
23,-57,12
23,-57,12
23,-57,12
23,-57,12
22,-57,12
22,-57,12
22,-57,12
23,-57,12
23,-57,12
23,-57,12
23,-57,12
23,-57,12
23,-57,12
22,-57,12
23,-57,12
22,-57,12
23,-57,12
23,-57,11
23,-57,11
23,-57,12
22,-57,13
22,-57,12
23,-57,11
23,-57,11
22,-57,12
22,-57,13
23,-57,12
23,-57,12
22,-57,12
22,-57,11
22,-57,12
22,-57,12
23,-57,11
22,-57,12
22,-57,12
23,-57,12
23,-57,11
22,-57,11
22,-57,12
22,-57,12
22,-57,12
23,-57,11
22,-57,11
23,-57,11
23,-57,12
22,-57,11
22,-57,11
22,-57,11
22,-58,11
22,-57,13
22,-57,13
22,-57,12
23,-57,11
23,-57,11
22,-57,11
23,-57,11
22,-57,11
22,-57,11
22,-58,11
22,-57,11
22,-58,11
22,-57,11
22,-57,11
23,-57,11
22,-57,11
23,-57,11
23,-57,11
23,-57,11
23,-57,11
22,-57,11
22,-57,11
22,-58,11
23,-57,11
22,-58,11
22,-57,11
23,-58,10
23,-57,10
23,-57,10
22,-57,11
22,-57,11
22,-57,11
23,-57,11
23,-57,11
23,-57,10
22,-57,10
23,-57,11
22,-57,11
23,-57,10
23,-57,10
23,-57,11
23,-57,10
23,-57,11
23,-57,11
23,-57,11
23,-57,11
22,-57,11
23,-57,12
23,-57,11
22,-57,11
23,-58,11
23,-57,11
23,-57,11
22,-57,11
22,-57,12
23,-57,11
23,-57,11
23,-57,11
23,-57,11
23,-57,11
23,-57,11
23,-57,12
23,-57,12
23,-57,12
23,-57,12
23,-57,12
22,-57,12
22,-57,13
23,-57,12
23,-57,12
22,-57,12
23,-57,12
22,-57,12
22,-57,12
22,-57,12
23,-57,12
23,-57,12
23,-57,12
23,-57,12
23,-57,12
23,-57,12
23,-57,12
22,-57,12
22,-57,12
23,-57,12
22,-57,11
22,-57,12
23,-57,13
23,-57,12
23,-57,13
23,-57,12
23,-57,12
22,-57,12
22,-57,12
22,-57,13
23,-57,12
23,-57,12
23,-57,12
23,-57,11
23,-57,11
23,-57,12
23,-57,12
23,-57,11
23,-57,11
22,-57,12
23,-57,11
22,-57,12
22,-57,11
22,-57,11
23,-57,11
23,-57,11
23,-57,11
23,-57,11
23,-57,11
23,-57,11
23,-57,11
22,-57,11
22,-57,11
23,-57,11
23,-57,11
23,-57,11
22,-57,10
23,-57,11
23,-57,11
22,-57,12
23,-57,12
23,-57,11
23,-57,10
22,-57,11
22,-57,11
23,-57,12
23,-57,11
23,-57,11
23,-57,11
23,-57,11
23,-57,11
23,-57,11
23,-57,11
23,-57,11
22,-57,11
23,-57,11
22,-57,11
22,-57,12
23,-57,11
24,-57,10
23,-57,11
22,-57,11
23,-57,11
23,-57,11
23,-57,11
23,-57,11
23,-57,11
22,-57,11
22,-57,11
22,-57,11
23,-57,11
23,-57,11
23,-57,11
23,-57,11
23,-57,11
23,-57,11
23,-57,11
23,-57,12
23,-57,11
22,-57,11
22,-57,12
23,-57,11
23,-57,11
22,-57,11
22,-57,11
23,-57,11
23,-57,11
22,-57,11
23,-57,11
22,-57,11
22,-57,12
22,-57,12
22,-57,11
23,-57,11
23,-57,11
23,-57,12
23,-57,11
23,-57,11
23,-57,12
22,-57,11
23,-57,11
22,-57,11
22,-57,12
23,-57,11
22,-57,12
23,-57,11
23,-57,11
23,-58,11
22,-57,11
22,-57,12
23,-57,12
23,-57,11
22,-57,11
22,-57,12
22,-57,12
23,-57,11
23,-57,11
23,-57,12
23,-57,11
23,-57,11
23,-57,11
23,-57,11
23,-57,11
23,-57,11
22,-57,11
22,-57,12
23,-57,11
23,-57,12
22,-57,12
23,-57,12
23,-57,11
23,-57,11
22,-57,11
23,-57,11
23,-57,11
22,-57,11
22,-57,10
22,-57,10
23,-57,11
22,-57,12
23,-57,11
23,-57,10
23,-57,11
23,-57,11
23,-57,11
23,-57,11
23,-57,11
23,-57,12
22,-57,11
23,-57,11
22,-57,11
23,-57,11
23,-57,11
23,-57,11
23,-57,11
23,-57,11
23,-57,11
23,-57,10
23,-57,10
22,-58,11
23,-57,11
22,-57,11
23,-57,11
23,-57,11
23,-57,11
23,-57,11
23,-57,11
23,-57,11
22,-57,11
23,-57,11
23,-57,11
22,-57,11
22,-57,12
22,-57,12
23,-57,11
23,-57,12
23,-57,13
23,-57,10
22,-57,10
23,-57,11
23,-57,11
23,-57,11
22,-57,11
23,-57,11
22,-57,12
23,-57,12
23,-57,11
23,-57,11
23,-57,11
23,-57,12
23,-57,12
23,-57,12
23,-57,12
23,-57,11
23,-57,11
22,-57,12
22,-57,12
23,-57,11
23,-57,11
23,-57,11
23,-57,11
23,-57,11
23,-57,11
23,-57,11
23,-57,12
23,-57,12
23,-57,12
23,-57,12
22,-57,12
23,-57,11
23,-57,11
24,-57,11
23,-57,12
22,-57,11
23,-57,11
23,-57,12
23,-57,11
23,-57,11
23,-57,12
22,-57,12
23,-57,11
23,-57,11
23,-57,11
23,-57,11
23,-57,11
23,-57,11
23,-57,11
22,-57,12
23,-57,11
23,-57,11
22,-57,12
23,-57,11
23,-57,11
23,-57,11
23,-57,11
23,-57,11
23,-57,11
23,-57,11
23,-57,11
23,-57,11
23,-57,11
22,-57,11
23,-57,12
23,-57,11
23,-57,11
23,-57,11
23,-57,11
23,-57,11
23,-57,11
23,-57,11
23,-57,11
23,-57,12
23,-57,12
23,-57,11
22,-57,12
22,-57,12
23,-57,11
23,-57,11
23,-57,11
23,-57,11
23,-57,11
23,-57,11
23,-57,11
23,-57,11
23,-57,11
23,-57,11
22,-57,11
23,-57,11
23,-57,11
23,-57,11
23,-57,11
23,-57,11
22,-57,11
23,-57,10
23,-57,12
22,-57,11
23,-57,11
22,-57,11
23,-57,11
22,-57,11
23,-57,11
23,-57,11
22,-57,11
23,-57,10
22,-57,11
22,-57,12
23,-57,11
23,-57,11
23,-57,11
22,-57,11
23,-57,11
23,-57,11
22,-57,11
23,-57,11
23,-57,11
23,-57,11
22,-57,11
23,-57,11
23,-57,11
23,-57,11
23,-57,11
22,-57,11
23,-57,11
23,-57,11
23,-57,11
23,-57,11
23,-57,10
23,-58,11
24,-57,11
24,-57,11
23,-57,11
23,-57,11
22,-57,12
22,-57,12
23,-57,11
23,-57,11
23,-57,11
23,-57,11
23,-57,11
23,-57,11
23,-57,10
23,-57,11
23,-57,11
23,-57,11
23,-57,11
22,-57,12
23,-57,11
23,-57,11
23,-57,11
23,-57,11
23,-57,11
23,-57,11
23,-57,11
22,-57,12
23,-57,11
23,-57,11
23,-57,12
23,-57,11
23,-57,11
23,-57,11
23,-57,11
23,-57,10
23,-57,12
22,-57,12
23,-57,11
23,-57,11
22,-57,11
22,-57,11
23,-57,11
23,-57,11
23,-57,11
23,-57,11
23,-57,11
23,-57,11
23,-57,12
22,-57,11
23,-57,11
23,-57,11
22,-57,11
23,-57,11
23,-57,11
22,-57,11
23,-57,11
23,-57,11
23,-57,11
22,-57,11
22,-57,11
23,-57,11
23,-57,11
22,-57,10
23,-57,10
22,-57,13
22,-57,11
23,-57,10
22,-57,11
22,-57,11
23,-57,11
23,-57,11
22,-57,11
22,-57,11
23,-57,11
23,-57,11
23,-57,11
22,-57,11
23,-57,10
23,-57,10
23,-57,11
22,-57,11
23,-57,11
23,-57,11
22,-57,11
23,-57,11
23,-57,10
23,-57,10
22,-57,11
23,-57,11
23,-57,10
23,-57,10
22,-57,11
23,-57,10
23,-57,10
23,-57,11
22,-57,11
23,-57,11
23,-57,10
22,-57,11
23,-57,11
23,-57,11
23,-57,11
23,-57,11
23,-57,10
23,-57,11
22,-57,11
22,-57,11
23,-57,11
23,-57,11
22,-57,11
23,-57,11
22,-57,11
22,-57,12
23,-57,11
23,-57,10
23,-57,10
23,-57,10
23,-57,11
23,-57,11
22,-57,11
22,-57,11
23,-57,10
22,-57,10
22,-57,10
23,-57,10
22,-57,10
23,-57,10
22,-57,10
23,-58,10
22,-57,11
23,-57,10
22,-57,10
23,-57,10
22,-57,10
22,-57,11
23,-57,11
23,-57,11
23,-57,10
23,-57,11
23,-57,11
23,-57,10
23,-57,10
23,-57,11
22,-57,10
23,-57,10
22,-58,10
22,-58,10
21,-57,11
22,-58,10
22,-57,9
22,-58,10
22,-58,10
22,-58,10
22,-57,11
22,-57,10
23,-58,10
22,-57,10
22,-58,10
22,-58,10
22,-57,10
22,-58,10
23,-58,10
22,-57,10
22,-58,10
22,-58,10
21,-58,10
23,-58,9
23,-57,11
23,-57,11
23,-57,10
23,-57,10
23,-57,10
22,-57,10
23,-57,10
23,-57,10
23,-57,11
22,-57,11
23,-57,10
23,-57,10
23,-57,11
23,-57,10
23,-58,10
23,-57,10
23,-57,10
23,-57,10
23,-58,10
23,-57,10
22,-58,10
22,-57,11
22,-58,11
23,-57,10
23,-57,10
22,-57,9
23,-58,9
23,-58,7
22,-58,10
22,-58,9
23,-58,10
22,-58,9
22,-58,9
22,-58,9
22,-57,10
23,-57,10
23,-58,10
22,-58,10
21,-58,10
22,-57,10
23,-57,10
23,-57,10
23,-58,10
23,-57,9
23,-57,10
23,-58,10
22,-57,10
22,-57,9
22,-58,10
22,-58,9
22,-58,9
23,-58,9
23,-58,9
23,-57,9
22,-58,9
22,-57,10
22,-58,10
23,-58,9
22,-58,9
22,-58,10
22,-58,9
22,-58,9
23,-58,9
23,-58,9
23,-57,10
23,-58,10
22,-57,10
22,-58,10
22,-58,10
22,-58,10
22,-57,10
23,-57,10
23,-58,10
22,-57,10
23,-57,10
22,-57,10
22,-58,10
22,-58,10
22,-57,9
23,-58,10
22,-57,10
23,-58,10
22,-58,10
21,-58,10
21,-58,10
21,-58,9
23,-58,9
23,-58,10
22,-58,10
22,-58,9
22,-58,9
22,-58,9
22,-58,9
22,-58,10
22,-58,9
21,-58,10
22,-58,9
22,-58,9
22,-58,9
22,-58,9
21,-58,9
22,-58,9
22,-58,10
22,-58,9
23,-58,9
21,-58,9
21,-58,10
21,-58,9
22,-58,9
22,-58,9
22,-58,8
22,-58,11
22,-58,10
22,-57,10
22,-58,9
22,-58,9
22,-58,9
21,-58,10
21,-58,10
22,-58,9
21,-58,9
21,-58,10
21,-58,10
22,-58,10
21,-58,10
20,-58,10
20,-59,8
21,-59,8
22,-57,10
22,-57,12
21,-57,11
23,-58,10
22,-58,9
23,-57,9
23,-58,9
22,-58,8
21,-58,8
21,-58,9
23,-58,10
22,-57,12
22,-58,10
23,-57,9
22,-57,9
25,-57,8
23,-57,8
22,-58,8
19,-59,7
22,-58,8
24,-57,10
24,-57,14
23,-57,13
23,-57,13
23,-57,11
24,-57,10
24,-57,11
23,-57,12
24,-57,12
24,-57,11
24,-57,11
23,-57,10
23,-57,10
23,-57,11
23,-57,11
23,-57,12
21,-57,10
22,-57,10
21,-57,10
24,-56,12
26,-56,14
27,-55,18
26,-55,18
24,-55,15
19,-56,16
19,-57,14
20,-56,12
20,-55,14
18,-55,15
18,-54,16
17,-53,21
14,-52,21
15,-51,22
28,-47,26
37,-45,37
29,-42,49
26,-44,55
28,-45,49
24,-47,49
19,-47,45
27,-43,39
25,-40,36
17,-38,29
24,-38,31
27,-37,32
26,-47,34
26,-49,30
25,-51,28
25,-48,28
26,-47,31
25,-47,34
24,-46,33
24,-46,35
23,-47,36
22,-46,35
24,-46,35
24,-46,35
22,-46,35
21,-47,34
23,-47,35
23,-43,39
23,-43,41
22,-44,40
22,-44,39
22,-45,39
21,-45,38
21,-45,38
21,-45,38
21,-45,38
21,-45,38
21,-45,38
21,-45,38
21,-44,38
21,-44,38
20,-45,38
20,-45,38
21,-44,38
20,-45,39
20,-45,39
20,-45,39
20,-44,39
20,-44,39
20,-44,39
20,-44,39
20,-44,39
20,-44,39
20,-44,39
20,-44,39
20,-44,39
20,-44,39
20,-44,39
20,-44,39
20,-44,39
20,-44,39
20,-44,39
20,-44,38
20,-44,38
21,-44,39
21,-44,39
21,-44,39
21,-44,39
21,-44,39
20,-44,39
20,-44,39
20,-44,39
20,-44,38
21,-44,39
21,-44,39
21,-44,39
21,-44,39
21,-44,39
21,-44,39
21,-44,39
20,-44,38
21,-44,39
20,-44,39
20,-44,38
21,-44,39
21,-44,39
20,-44,39
21,-44,39
21,-44,39
21,-44,39
21,-44,39
21,-44,39
21,-44,39
21,-44,39
21,-44,39
20,-44,39
20,-44,39
20,-44,39
20,-44,39
21,-44,39
21,-44,39
20,-44,39
21,-44,39
20,-44,39
20,-44,39
20,-44,39
21,-44,38
20,-44,39
20,-44,39
21,-44,39
21,-44,39
21,-44,39
21,-44,39
21,-44,39
20,-44,39
20,-44,39
20,-44,39
20,-44,39
20,-44,39
20,-44,39
20,-44,39
20,-44,39
21,-44,39
20,-44,39
20,-44,39
20,-44,39
20,-44,39
20,-44,39
20,-44,39
20,-44,38
20,-44,39
20,-44,39
20,-44,39
20,-44,39
20,-44,39
21,-44,39
20,-44,39
20,-44,39
20,-44,39
20,-44,39
19,-44,39
19,-44,40
19,-44,40
19,-44,41
19,-44,40
19,-44,41
18,-43,41
18,-44,41
18,-43,41
18,-44,41
17,-43,41
17,-43,42
17,-43,41
17,-43,42
17,-43,42
17,-43,42
17,-43,41
16,-43,42
17,-43,42
17,-43,42
17,-43,42
17,-43,42
17,-43,42
17,-43,42
17,-43,42
16,-43,42
16,-43,42
16,-43,42
17,-43,42
16,-43,42
16,-43,42
16,-43,42
16,-43,43
16,-43,43
16,-43,42
16,-43,42
16,-43,42
16,-43,42
16,-43,42
17,-42,42
16,-43,42
16,-44,42
16,-43,43
13,-37,42
12,-28,46
12,-28,49
18,-26,42
16,-29,50
14,-31,44
12,-28,46
16,-25,44
19,-26,42
32,-28,35
33,-24,33
19,-23,51
4,-13,104
2,-17,88
11,-12,85
17,-7,70
18,-4,43
23,2,45
6,0,64
8,-3,72
5,-8,68
-5,-10,62
-9,-10,69
-6,-11,64
0,-7,59
7,-2,63
11,-2,61
7,-3,65
6,-5,67
-1,-9,67
-15,-15,67
-19,-16,60
-25,-15,56
-11,-10,54
-1,-15,56
0,-16,58
-6,-15,62
-12,-14,59
-10,-14,60
-10,-11,61
-12,-9,64
-7,-9,62
-19,-15,56
-12,-12,60
-1,-11,64
-14,-9,63
-17,-10,61
-17,-10,60
-18,-12,58
-21,-12,58
-15,-11,59
-18,-9,62
-19,-9,62
-8,-13,56
-21,-8,65
-21,-8,64
-11,-10,60
-15,-10,62
-14,-11,59
-13,-12,59
-13,-13,58
-12,-12,59
-15,-12,59
-15,-10,62
-17,-9,63
-20,-10,60
-16,-11,60
-15,-11,60
-16,-11,59
-15,-10,61
-14,-11,60
-16,-10,61
-15,-11,60
-15,-11,60
-14,-11,59
-17,-10,60
-16,-11,60
-15,-11,60
-17,-10,61
-17,-10,61
-16,-10,61
-16,-12,58
-16,-12,58
-18,-11,59
-18,-12,58
-18,-11,60
-15,-10,62
-15,-8,73
-9,-6,82
-27,-1,99
-55,-5,86
-59,-8,69
-60,-22,26
-13,-40,8
-21,-38,2
-8,-46,2
5,-48,12
-6,-50,11
-16,-51,23
-22,-52,29
-28,-54,27
-20,-51,29
-18,-52,29
-24,-55,21
-21,-56,23
-21,-55,22
-27,-54,20
-20,-53,22
-15,-52,24
-23,-53,18
-22,-55,21
-21,-54,23
-23,-55,21
-22,-56,20
-22,-56,21
-21,-55,22
-21,-57,19
-21,-57,18
-20,-55,21
-22,-57,20
-21,-58,17
-23,-58,17
-20,-56,25
-19,-56,24
-23,-57,19
-22,-56,18
-21,-56,19
-22,-56,20
-19,-57,21
-21,-56,20
-22,-57,19
-21,-56,21
-21,-56,22
-21,-56,20
-22,-57,18
-22,-56,18
-20,-56,20
-21,-56,20
-20,-56,20
-21,-57,20
-21,-57,19
-21,-56,19
-20,-56,20
-21,-56,20
-21,-56,20
-21,-56,19
-19,-57,19
-19,-56,20
-22,-57,19
-21,-58,17
-19,-58,18
-21,-56,20
-19,-57,20
-20,-57,20
-23,-56,18
-23,-57,18
-20,-57,19
-19,-56,19
-21,-58,18
-21,-57,18
-21,-57,19
-19,-56,19
-19,-56,18
-21,-56,19
-23,-56,19
-22,-57,19
-20,-57,19
-21,-57,19
-21,-57,18
-21,-57,18
-23,-57,18
-20,-57,20
-19,-57,19
-21,-56,19
-21,-56,18
-21,-57,18
-21,-57,19
-20,-57,20
-23,-58,17
-23,-57,18
-19,-57,20
-20,-57,18
-21,-57,18
-21,-56,19
-22,-57,19
-21,-57,17
-21,-56,19
-21,-57,19
-22,-57,17
-21,-56,19
-17,-57,21
-17,-57,21
-19,-56,20
-19,-57,20
-19,-58,19
-18,-57,20
-19,-57,20
-19,-57,20
-19,-57,20
-18,-57,21
-19,-57,20
-22,-58,18
-18,-57,20
-17,-57,20
-18,-57,21
-19,-56,21
-19,-57,19
-20,-56,20
-20,-56,21
-20,-57,19
-18,-58,19
-20,-57,19
-20,-57,20
-20,-57,18
-17,-57,20
-18,-57,20
-19,-57,18
-21,-57,19
-21,-57,19
-20,-58,19
-20,-57,20
-21,-57,19
-20,-58,17
-18,-57,19
-19,-57,19
-20,-56,18
-19,-57,18
-16,-55,23
-20,-56,18
-21,-56,17
-23,-56,17
-26,-58,13
-27,-58,12
-27,-57,14
-25,-58,14
-24,-56,16
-24,-56,16
-23,-57,15
-24,-57,15
-24,-57,15
-23,-56,16
-23,-57,16
-23,-56,14
-23,-57,16
-22,-57,16
-22,-57,16
-23,-57,16
-23,-57,17
-23,-57,15
-23,-58,15
-23,-58,15
-24,-58,14
-22,-57,18
-22,-56,17
-21,-58,17
-22,-57,19
-23,-57,15
-21,-58,16
-19,-57,18
-22,-57,16
-21,-56,17
-21,-57,17
-22,-57,17
-22,-56,19
-23,-56,18
-22,-57,17
-21,-57,16
-21,-57,17
-21,-58,18
-22,-57,16
-23,-57,17
-23,-57,18
-21,-57,16
-22,-57,16
-22,-57,16
-21,-57,17
-23,-57,17
-22,-58,17
-22,-55,19
-23,-55,19
-20,-54,18
-27,-50,14
-17,-49,22
-16,-51,21
-15,-56,12
-16,-55,13
-29,-56,4
-29,-58,10
-38,-55,5
-39,-60,-4
-37,-58,-3
-42,-57,-11
-36,-57,-8
-37,-55,-8
-38,-54,-7
-36,-54,-6
-35,-53,-7
-36,-53,-8
-35,-53,-7
-34,-53,-7
-35,-53,-5
-33,-54,-4
-33,-54,-6
-34,-54,-6
-34,-55,-7
-34,-54,-6
-34,-54,-6
-34,-54,-5
-34,-54,-5
-34,-54,-5
-34,-53,-4
-35,-53,-5
-36,-52,-4
-46,-47,2
-57,-39,9
-56,-38,11
-49,-41,6
-37,-45,0
-36,-45,0
-32,-49,-1
-32,-48,4
-34,-44,9
-41,-50,-2
-34,-43,13
-45,-41,14
-50,-44,5
-66,-39,17
-59,-37,21
-41,-28,41
-59,-28,21
-62,-20,33
-45,-13,51
-39,-11,48
-45,-8,48
-34,-6,51
-54,-8,52
-58,-8,47
-37,-12,42
-37,-12,47
-44,-10,47
-43,-11,47
-36,-13,48
-34,-13,48
-36,-15,47
-42,-14,43
-37,-14,43
-49,-9,52
-36,-10,55
-34,-5,62
-37,-14,52
-36,-16,48
-35,-17,48
-25,-20,56
-27,-21,45
-34,-22,38
-36,-14,54
-50,-5,61
-46,-11,40
-42,-9,46
-44,-7,51
-38,-11,49
-41,-11,45
-44,-11,46
-42,-11,44
-44,-9,49
-43,-10,48
-42,-9,47
-40,-11,47
