1542304301.000000, 1542304301.000000, 1542304301.000000
32.000000, 32.000000, 32.000000
26,33,46
26,33,46
26,33,46
26,34,47
25,34,47
26,34,46
26,34,46
26,33,46
27,33,46
26,33,47
25,33,46
25,33,46
26,33,46
26,33,46
25,33,46
26,33,47
25,33,46
26,33,46
27,33,46
25,34,46
26,34,47
26,33,47
26,33,46
26,33,47
26,33,46
26,33,46
26,33,46
26,33,46
26,33,46
26,33,46
26,33,46
26,33,46
26,33,46
26,33,46
26,33,46
26,33,46
27,34,46
26,33,45
26,34,46
26,33,46
26,34,47
26,34,46
28,33,46
29,33,45
28,33,45
27,33,45
28,32,46
27,32,46
27,32,46
27,32,46
28,32,46
29,32,46
28,32,46
27,32,46
28,32,46
27,32,46
27,32,47
29,33,46
28,33,47
26,32,46
28,32,46
28,33,45
29,32,46
29,33,46
28,35,46
27,33,47
27,32,44
27,31,39
34,31,42
40,32,40
39,32,36
38,31,40
38,37,39
35,39,38
38,37,41
43,37,40
40,38,37
35,39,37
33,36,34
30,38,32
31,38,33
33,33,35
35,34,31
38,31,33
32,29,22
45,35,20
50,28,16
58,30,12
63,26,9
61,29,3
40,27,-11
46,30,-23
85,28,27
30,24,6
54,32,9
48,30,4
60,30,0
61,29,2
50,28,-4
65,27,5
56,28,2
44,22,0
56,23,-3
58,25,-9
58,23,-15
60,28,-17
60,30,-16
55,32,-16
45,30,-17
45,28,-20
55,32,-20
54,30,-25
55,32,-24
47,32,-23
49,34,-25
50,34,-24
47,33,-25
45,37,-24
44,36,-28
43,35,-29
44,36,-28
50,34,-26
50,31,-26
48,30,-28
42,28,-31
40,27,-30
41,28,-31
46,29,-32
48,31,-32
49,34,-30
52,37,-31
50,37,-28
50,35,-26
55,36,-22
53,34,-19
50,34,-20
47,36,-20
37,34,-22
36,34,-22
40,33,-21
43,35,-25
46,35,-27
53,34,-22
50,33,-30
54,33,-30
60,33,-27
57,31,-23
55,31,-22
47,28,-23
34,31,-30
32,32,-27
32,34,-24
32,39,-29
38,38,-24
41,41,-24
50,38,-19
58,38,-18
55,37,-15
53,32,-13
60,35,-12
56,34,-16
80,43,-24
84,45,-15
48,35,-14
64,33,-4
65,31,1
17,29,4
15,24,7
65,39,17
50,31,18
47,40,22
47,38,28
43,36,19
30,38,23
42,36,30
46,38,25
44,44,21
39,42,21
42,39,22
35,35,22
29,37,32
41,38,43
43,40,43
47,50,42
41,53,38
35,56,33
26,55,28
14,54,19
9,55,16
11,52,25
12,58,23
9,62,20
-11,63,16
-3,68,14
1,60,14
3,58,19
2,59,11
8,54,13
12,44,21
25,49,17
34,47,23
6,41,37
-10,45,51
-3,45,54
-1,41,48
7,50,37
9,52,33
-3,60,12
6,62,18
3,61,16
6,65,9
15,66,8
25,75,4
21,80,-2
21,72,12
17,71,11
19,67,13
16,61,11
14,60,8
15,56,10
8,55,5
10,54,4
10,54,7
16,54,2
14,56,-3
33,50,6
28,54,7
16,59,5
27,58,6
29,57,4
27,58,5
26,55,9
29,57,9
22,55,4
19,59,0
33,54,4
41,57,15
28,53,12
26,54,14
27,55,15
28,54,17
28,55,16
27,55,11
24,56,8
24,56,10
30,61,12
29,63,13
31,60,11
31,55,13
35,50,14
28,51,18
40,55,15
29,57,9
36,57,14
31,55,15
26,54,11
27,55,7
36,57,-4
41,61,-16
42,57,-18
44,68,-21
30,55,-15
29,53,-13
34,48,-10
36,45,-10
31,44,-8
27,39,-7
34,38,-8
37,38,-11
43,44,-14
38,50,-15
37,51,-12
34,53,-10
33,53,-9
35,53,-8
34,53,-7
33,52,-7
34,52,-7
33,53,-5
34,54,-4
34,53,-4
37,53,-7
39,50,-10
37,52,-2
52,44,-4
54,41,-8
40,37,-9
43,45,-7
21,50,-12
17,50,-12
11,71,-12
7,62,-9
3,58,17
-12,59,16
-14,60,25
-22,62,21
-29,56,20
-25,52,18
-7,58,41
-16,51,40
-34,59,32
-48,75,3
-8,60,32
-40,59,13
-34,48,29
-53,57,18
-47,62,15
-38,55,18
-23,48,28
-21,41,34
-31,49,33
-18,48,56
-8,39,75
-26,45,51
2,47,53
16,42,49
21,45,20
28,42,18
20,46,13
15,50,10
9,77,8
6,73,20
-24,46,41
-31,36,45
-25,35,45
-20,29,41
-14,23,34
-17,24,32
-14,25,31
-27,28,39
-36,35,31
-13,45,4
26,70,33
27,70,42
7,70,36
13,83,44
12,73,50
5,71,49
15,56,53
10,51,47
-1,48,41
-3,46,41
5,48,37
1,46,43
-6,46,45
-6,48,41
-10,45,39
-9,44,39
0,47,42
1,48,43
-3,49,41
1,48,43
-1,47,41
-1,47,41
-3,48,40
-5,46,41
0,47,46
11,51,49
0,49,43
-2,49,41
1,48,38
3,48,38
-2,49,35
2,52,34
6,53,36
5,52,35
5,51,39
4,52,39
1,52,38
4,51,41
1,51,38
1,51,38
4,49,40
5,49,39
5,48,37
3,50,36
0,50,37
2,52,35
6,54,24
12,42,34
14,44,21
39,51,-6
68,44,15
53,52,4
33,48,-5
44,58,-7
42,60,-6
33,49,-5
41,50,1
37,49,-6
35,46,-6
39,45,-8
42,47,-8
31,44,-13
30,46,-18
51,38,-5
43,50,-22
38,43,-26
52,48,-17
48,47,-20
46,46,-16
43,42,-16
45,46,-12
41,42,-11
43,44,-7
41,43,-11
43,45,-10
40,43,-7
44,47,-11
46,46,-4
36,42,-7
48,45,-8
50,46,-6
47,44,-8
46,47,-10
43,47,-10
46,47,-5
46,47,-5
43,46,-7
43,45,-5
43,47,-2
42,46,-2
41,47,-3
40,47,-1
41,48,1
36,47,2
36,49,2
41,47,6
43,49,5
38,49,4
37,49,3
33,49,2
39,49,4
43,50,6
40,50,5
37,49,2
39,49,3
39,49,3
39,49,3
39,49,4
39,50,5
38,49,4
39,50,3
38,49,4
38,49,5
38,49,4
37,50,4
39,50,6
40,50,7
39,50,6
39,51,8
40,54,13
37,53,7
34,52,5
30,47,-1
34,45,-4
32,45,-5
30,43,-8
42,46,-7
42,50,-7
44,47,-15
54,50,-15
56,50,-12
48,49,-13
47,48,-15
46,46,-15
37,46,-17
39,45,-10
36,44,-10
40,48,-8
48,47,-2
44,47,-5
45,46,-4
50,48,-3
44,49,-4
46,46,1
43,47,5
35,44,7
34,45,11
35,48,16
32,47,17
25,49,13
33,51,18
31,51,16
33,54,12
36,53,17
33,52,18
29,53,16
31,52,16
32,52,16
33,51,16
33,51,15
33,51,15
32,52,15
34,51,16
34,51,17
33,52,16
31,51,17
31,51,18
31,51,19
32,51,17
34,51,18
33,51,18
32,51,18
31,51,17
35,51,17
33,51,20
30,51,20
28,51,21
28,51,20
28,51,21
30,51,21
34,51,22
35,51,22
28,51,21
28,51,21
28,50,22
29,51,23
30,50,23
32,52,22
28,51,18
26,48,22
31,48,36
22,49,33
19,54,28
24,54,29
35,54,33
26,54,27
8,51,19
2,56,9
14,56,12
22,38,50
-9,45,45
-11,45,45
-23,49,58
-47,71,40
-52,76,35
-29,74,36
-4,58,25
14,48,28
54,24,35
80,16,47
71,20,22
34,9,22
8,-12,61
-8,-2,47
3,-4,70
4,-3,71
-4,-2,67
-6,-6,74
-12,0,67
-8,-1,61
9,-7,68
-14,-12,70
-24,-16,65
-15,-23,64
12,-23,73
8,-23,72
17,-16,45
67,-13,23
80,8,8
82,51,8
45,34,7
21,38,-4
1,77,-12
-5,84,-10
-6,62,-2
-19,67,7
-19,54,10
-38,44,7
-54,41,11
-65,38,17
-57,38,13
-36,45,13
-29,48,15
-16,54,13
-13,62,17
-15,61,18
-21,61,16
-29,56,19
-27,55,19
-27,60,15
-24,53,21
-26,55,31
-46,49,51
-78,49,37
-77,45,25
-26,50,33
27,54,3
69,51,-15
70,38,17
75,28,0
70,6,16
12,-1,66
-24,12,67
-6,16,59
-5,4,74
-28,5,65
-29,3,64
-22,3,68
-31,6,65
-37,6,59
-16,-8,49
-58,-1,43
-31,2,48
2,8,60
0,8,56
8,13,56
19,13,49
37,26,49
50,25,42
46,34,20
62,61,8
63,63,14
45,57,15
28,71,4
24,73,10
21,68,14
8,71,7
0,69,6
-1,63,2
-18,60,-2
-15,59,1
-11,56,26
-22,46,16
-6,56,20
3,51,39
-8,47,30
0,56,30
-4,51,30
-5,51,27
-5,56,24
-4,57,26
-4,56,27
-6,58,27
-1,55,29
-2,58,29
-4,56,30
-6,55,26
-5,58,26
-1,57,31
-3,56,33
-6,56,31
-4,58,28
-7,55,27
-6,56,27
-6,55,28
-8,54,26
-8,55,24
-5,52,30
-17,51,33
-14,45,24
17,57,29
16,60,26
10,59,24
8,64,26
-1,64,19
-3,63,18
-5,67,20
-1,66,20
1,64,25
-3,59,19
-4,60,20
-5,57,18
-1,57,29
-10,56,27
-13,57,23
-12,60,20
-12,60,18
-10,59,20
-8,61,22
-10,59,22
-10,59,21
-8,61,23
-9,58,24
-8,58,21
-3,58,22
-10,50,30
-12,50,28
-11,52,18
-11,52,15
-15,53,17
-12,57,8
-5,62,11
6,66,14
4,71,12
1,69,11
1,69,9
3,63,19
2,60,25
2,57,28
-3,57,29
-6,55,29
-5,55,30
3,53,38
1,54,37
4,58,33
9,56,31
8,58,30
8,57,30
9,57,30
8,58,30
6,55,32
4,55,32
6,55,33
7,54,34
7,53,33
5,54,32
5,53,32
10,54,35
10,55,34
7,55,32
7,54,32
7,55,31
8,54,32
8,53,32
7,54,32
6,54,31
9,54,32
9,54,33
7,54,32
8,55,32
9,55,33
7,55,32
7,55,32
8,54,32
9,55,32
7,55,31
8,54,30
10,54,30
9,54,30
9,54,30
9,55,30
9,55,31
9,56,31
9,56,31
9,55,31
9,55,31
10,55,31
9,55,31
8,55,30
10,55,30
11,55,30
10,55,30
10,55,30
10,55,30
10,55,31
10,55,31
10,55,31
9,55,31
9,55,31
9,55,31
9,55,31
9,54,31
9,54,31
9,55,30
8,55,29
9,55,30
10,54,32
8,55,31
9,55,32
9,55,32
9,55,31
9,54,31
9,55,30
9,54,30
9,54,30
8,55,30
9,55,31
10,55,31
9,55,31
8,54,30
8,55,30
9,55,31
9,55,31
8,55,31
9,55,31
9,55,31
9,55,31
9,55,31
10,55,31
9,55,31
9,55,31
9,55,31
9,55,31
9,55,31
10,55,31
9,55,30
9,55,31
9,55,31
9,55,31
9,55,31
9,55,31
9,55,31
9,55,31
9,55,31
9,55,30
9,55,31
9,55,31
9,55,31
9,55,31
9,55,31
9,55,31
9,55,30
9,55,31
8,55,31
9,55,30
9,55,30
10,55,31
9,55,31
9,55,31
9,55,30
9,55,30
9,55,30
9,55,30
9,55,31
9,55,31
9,55,30
9,55,30
8,55,30
9,55,31
9,55,30
9,55,30
9,55,30
9,55,30
9,54,30
9,55,31
9,55,31
9,55,31
8,55,31
9,56,30
9,55,31
9,56,31
7,55,31
8,55,31
8,55,31
8,55,30
8,55,30
8,55,31
8,55,31
8,55,31
8,55,31
8,55,30
8,55,31
7,55,31
8,55,31
8,55,31
8,55,31
8,55,31
8,55,31
8,55,31
8,55,31
8,55,31
8,54,31
8,55,31
8,55,31
8,55,31
8,55,31
8,55,31
8,54,31
8,55,31
8,55,31
8,55,31
8,55,31
8,55,31
8,55,31
8,56,31
8,55,31
8,55,31
8,55,32
8,55,32
8,55,32
8,54,32
7,55,30
11,55,31
9,55,28
4,56,28
10,56,31
10,56,32
7,55,32
8,55,33
8,54,33
8,54,34
9,51,33
8,51,34
6,51,33
7,53,33
8,54,34
8,54,32
8,55,31
8,55,30
7,56,29
8,55,31
8,54,31
8,52,34
9,51,36
8,49,37
4,46,36
1,44,36
-1,42,36
0,39,32
4,40,30
5,44,28
10,48,30
11,44,46
16,46,47
22,47,38
26,46,36
37,41,49
18,35,59
23,35,56
26,32,60
34,21,67
37,16,73
33,30,72
27,25,49
25,26,57
30,22,48
37,15,45
19,13,50
6,5,57
11,3,51
17,-2,46
7,-5,62
-16,-19,82
-85,-19,77
3,-30,88
25,-1,82
15,12,63
13,11,53
9,21,57
2,26,56
-4,28,46
-10,34,60
-9,37,54
-16,37,41
-14,43,43
1,41,33
-19,44,21
8,49,31
11,44,42
-17,54,32
19,47,28
16,54,17
28,48,35
55,53,53
62,51,55
53,56,62
30,53,21
24,42,22
26,38,28
44,32,29
44,42,21
40,41,42
37,37,28
35,37,24
37,47,20
51,42,21
41,46,23
31,45,18
23,57,15
23,56,11
16,47,8
14,50,6
22,53,6
23,51,13
23,55,16
28,56,19
25,54,22
22,53,23
24,52,25
21,53,29
24,54,32
23,52,35
29,54,33
31,50,25
31,43,25
29,53,21
44,44,25
34,44,23
42,49,23
44,53,18
30,55,25
22,48,12
29,49,11
54,43,11
56,49,-3
55,55,-8
44,48,4
41,43,-12
51,44,-6
45,28,-11
52,36,-18
57,35,-21
49,31,-18
48,34,-8
51,35,-4
65,27,15
33,29,-11
28,28,-6
49,30,5
50,32,9
56,31,17
59,35,10
67,37,10
63,34,13
45,35,15
46,31,18
47,29,16
46,31,18
45,26,25
50,23,29
58,21,31
59,17,34
58,15,35
57,14,34
56,13,35
54,13,34
52,16,32
50,13,32
49,13,30
53,13,31
55,12,32
55,10,31
52,12,31
54,11,32
57,8,35
48,8,34
46,10,34
50,9,36
49,9,35
49,10,36
45,7,37
45,10,36
48,10,37
46,8,36
49,9,37
55,9,38
52,8,34
49,7,34
53,8,33
57,8,33
50,7,31
52,8,32
54,6,32
51,5,32
52,6,33
57,7,28
56,6,30
54,7,30
56,8,26
57,7,27
57,8,27
52,8,21
63,9,24
65,9,22
56,8,18
65,8,22
62,9,18
61,15,18
66,10,28
60,15,26
58,14,26
50,11,28
49,19,27
58,11,29
48,17,30
49,21,31
50,13,32
41,17,33
36,18,31
36,24,33
39,22,44
31,23,43
36,30,50
32,26,49
34,29,49
29,25,50
22,28,46
26,27,48
21,27,43
17,27,39
26,27,54
21,29,47
17,30,44
29,23,51
29,23,54
25,26,49
22,26,52
33,29,52
28,29,51
23,26,43
45,25,47
54,23,56
34,30,41
37,31,43
45,29,40
34,28,49
24,27,42
37,31,40
36,31,47
29,30,51
29,32,51
35,33,45
36,34,41
35,34,43
32,29,41
34,34,43
29,34,40
28,31,31
33,33,32
30,34,37
21,31,36
31,30,38
37,32,39
37,36,41
41,38,37
43,38,36
45,38,33
42,36,34
41,35,33
39,34,27
38,33,21
39,33,22
41,35,28
38,39,33
33,40,36
38,38,34
43,35,49
43,30,41
58,37,26
51,32,25
47,34,23
42,33,18
48,33,13
54,39,14
49,39,19
47,40,24
40,39,31
54,38,32
59,37,29
40,35,28
35,33,24
43,35,22
40,38,17
51,35,21
42,34,24
42,43,20
40,42,24
36,45,18
28,41,26
28,44,29
37,40,30
33,39,32
37,41,32
32,42,28
34,40,26
38,41,28
37,39,29
43,40,30
41,44,29
36,42,32
38,42,24
41,44,27
37,41,27
41,43,26
39,41,24
37,41,24
36,39,28
44,42,27
41,40,27
37,41,21
47,43,28
43,43,29
35,41,19
43,39,25
44,37,28
43,42,22
36,42,22
41,41,21
48,44,23
41,41,28
43,36,24
53,43,27
43,40,20
27,43,17
22,38,22
33,40,27
34,43,28
43,43,26
41,42,30
39,42,25
42,44,20
39,42,25
38,40,24
43,44,19
44,45,19
38,42,23
39,42,21
40,44,21
40,41,19
39,40,21
38,39,22
35,41,25
43,45,22
45,45,24
43,44,26
39,42,25
43,41,28
36,30,37
29,37,34
33,35,34
42,35,32
50,36,34
50,37,34
43,40,32
45,41,31
45,41,29
44,40,30
41,40,26
40,44,26
42,45,26
33,49,19
33,48,22
50,48,29
40,49,25
39,52,29
16,59,22
12,56,22
8,56,20
1,55,14
-2,50,17
-3,53,16
-8,51,18
-9,56,20
-8,58,22
-7,64,24
-9,74,26
-10,80,26
-8,84,26
-6,72,19
-6,66,18
-10,62,17
-15,56,5
-15,50,5
-19,49,1
66,-60,63
-26,45,51
1,60,11
-11,64,10
-13,65,13
-8,64,18
-17,56,20
-4,57,20
17,57,21
15,55,22
9,54,22
-1,56,16
-6,53,16
11,55,19
9,55,25
4,56,26
3,57,23
7,57,27
4,60,24
5,61,23
7,66,22
5,66,23
8,65,20
8,68,18
10,66,19
10,63,20
9,63,20
7,63,17
7,61,17
7,61,17
7,61,18
8,59,20
8,58,19
8,58,17
11,58,17
18,61,6
29,58,18
-2,54,22
13,63,19
17,58,25
10,63,21
18,60,22
18,60,22
17,59,18
19,58,16
19,58,18
22,57,18
16,55,18
16,56,18
20,60,18
16,62,16
15,63,17
19,61,23
20,59,22
22,58,22
19,56,24
15,57,20
15,56,20
13,57,22
12,58,20
12,57,21
7,58,21
9,59,21
10,59,21
9,59,20
10,59,20
11,59,19
11,59,20
12,59,21
12,59,21
11,59,19
11,59,18
12,59,19
13,58,20
13,59,20
11,59,20
12,59,22
12,59,22
11,59,21
10,59,21
11,59,21
11,59,20
12,59,20
11,59,23
10,60,20
10,59,22
9,59,22
11,58,22
9,59,22
10,59,22
11,58,21
10,59,22
10,59,21
10,59,22
10,59,21
10,60,21
11,59,21
10,58,22
10,59,21
10,58,22
11,59,22
10,59,22
10,60,21
10,59,23
10,59,22
9,58,22
9,58,21
9,57,21
10,57,20
10,57,21
10,57,23
12,58,24
9,58,25
7,58,24
8,59,24
9,59,24
9,59,24
9,59,24
10,59,24
11,58,23
10,58,22
11,57,20
11,57,20
13,57,20
13,57,21
13,58,22
13,58,22
11,58,22
11,59,23
14,58,24
13,59,25
15,58,25
13,58,25
12,58,24
14,56,23
14,56,22
15,57,20
20,57,18
22,55,21
22,56,19
23,59,16
21,56,21
21,56,21
23,58,20
22,56,17
21,55,17
22,55,23
21,56,22
20,56,21
20,55,26
20,57,22
22,57,20
22,56,21
22,55,23
23,56,22
18,57,18
19,56,22
24,56,21
22,59,18
23,59,14
26,57,15
26,52,13
22,50,13
24,49,11
22,54,8
23,60,2
22,62,3
27,61,7
36,62,13
37,58,12
28,56,10
27,53,8
24,51,9
24,53,7
30,54,8
29,55,9
28,57,13
32,61,11
30,63,13
24,50,17
27,57,5
36,54,2
39,53,12
27,58,17
8,59,16
24,60,19
28,58,16
30,50,7
29,51,14
27,53,12
30,58,11
28,53,22
22,52,27
35,58,16
34,54,18
29,56,15
33,53,22
33,52,23
34,50,19
35,51,15
25,50,11
24,48,11
22,49,8
37,58,14
41,57,14
35,52,17
31,55,10
35,55,13
37,49,17
31,51,14
31,51,15
24,48,13
27,50,11
39,51,15
36,52,4
36,56,5
39,55,6
32,53,3
35,51,12
36,51,13
32,52,9
34,50,11
38,52,11
36,50,7
42,53,7
41,52,9
32,49,13
32,49,8
37,51,8
35,52,5
34,50,6
35,51,3
38,52,0
41,50,8
37,50,5
35,52,3
45,50,6
43,51,5
32,50,-3
32,50,-1
38,49,0
38,50,-2
39,51,-2
37,51,-1
40,52,-1
39,51,-2
37,49,0
39,48,0
37,49,2
38,49,2
41,52,2
43,54,4
39,50,4
39,48,3
37,47,1
36,46,3
33,48,5
38,50,7
43,54,10
39,49,12
42,49,16
40,47,15
33,48,8
33,48,7
44,47,13
42,49,13
42,48,16
40,44,21
35,41,17
36,43,12
34,49,12
31,46,4
33,47,3
50,51,13
48,48,7
47,49,5
45,40,9
46,44,8
48,44,7
57,43,24
47,42,15
41,40,16
37,39,20
43,41,29
46,40,29
44,42,26
38,41,27
38,41,26
39,43,22
44,44,21
35,55,22
31,38,21
32,48,21
33,46,20
32,49,21
32,48,21
35,47,22
38,47,23
36,46,22
32,47,21
34,47,22
36,47,23
36,48,23
35,48,22
35,48,23
35,47,24
34,48,24
35,47,24
33,47,23
31,48,23
32,48,24
33,51,26
35,50,27
36,50,27
35,49,27
31,50,26
30,50,26
32,48,27
25,45,25
21,43,23
17,49,22
17,59,19
28,67,22
39,63,28
42,51,29
30,51,25
13,59,15
20,69,13
26,72,11
27,66,12
23,58,20
16,56,20
7,62,13
4,68,13
3,65,18
1,56,15
-13,52,18
-31,42,19
-26,39,24
-17,44,11
-7,54,21
8,57,33
-6,51,39
-7,50,32
7,52,34
9,52,35
5,56,32
-3,60,26
6,55,32
5,54,29
9,61,27
9,52,23
6,55,24
7,54,23
4,57,22
0,61,22
0,59,23
4,57,27
2,61,22
9,65,26
5,60,25
10,60,26
5,60,25
-3,61,19
-3,61,18
4,60,20
4,60,21
5,60,21
3,60,22
1,60,22
4,62,21
10,61,23
9,61,26
3,60,22
1,59,20
1,58,21
4,58,22
4,60,21
3,59,21
4,59,22
7,60,23
6,60,23
2,59,22
4,63,21
6,62,22
11,59,25
10,58,25
9,58,27
5,56,28
-6,57,19
-12,60,15
-8,61,14
1,65,16
2,65,16
3,62,15
3,62,16
2,61,16
2,62,16
3,61,20
0,61,20
-4,61,18
-2,60,18
-2,61,18
0,61,20
-1,63,18
-2,61,17
1,61,19
2,60,20
1,60,19
0,60,19
0,60,19
0,60,19
0,60,19
0,61,20
-1,61,20
-2,60,20
-3,62,22
-3,67,25
-2,76,22
-4,77,18
-40,67,5
-24,51,24
-9,45,33
-13,34,43
-14,28,52
-18,36,47
-19,43,35
-9,40,45
-12,43,42
-18,49,31
-19,50,35
-18,47,37
-16,45,40
-17,43,45
-17,42,46
-16,42,45
-15,42,48
-16,43,46
-15,43,46
-15,45,44
-16,45,44
-16,45,44
-13,44,45
-12,44,44
-17,44,42
-15,43,44
-15,42,45
-16,45,44
-17,45,43
-18,45,44
-18,46,42
-17,43,44
-16,42,45
-14,42,45
-16,42,43
-16,42,43
-17,43,43
-18,43,42
-18,43,42
-17,44,44
-17,45,43
-15,43,45
-15,44,46
-16,43,44
-17,44,43
-15,42,44
-16,43,43
-17,44,43
-16,44,44
-14,44,45
-15,45,43
-16,43,42
-17,43,43
-17,43,43
-16,44,45
-16,43,45
-16,43,44
-15,43,45
-16,44,43
-18,42,43
-13,41,48
-15,43,46
-16,43,44
-15,44,44
-15,44,44
-16,45,42
-15,44,44
-14,44,43
-14,44,43
-13,44,43
-14,44,43
-11,44,45
-12,45,43
-13,46,42
-7,44,40
-9,40,58
-14,45,51
-7,48,44
-21,47,38
-20,47,39
-15,44,43
-24,45,39
-20,44,42
-21,43,40
-23,42,40
-22,41,41
-23,40,42
-21,41,42
-19,41,43
-23,41,42
-18,42,43
-17,41,46
-20,42,42
-19,41,45
-21,41,41
-19,38,49
-18,40,48
-19,41,43
-15,41,41
-11,45,41
-8,45,41
-9,48,38
-7,51,37
-7,52,37
-4,51,36
-2,52,35
-4,54,34
-1,53,33
-1,53,32
1,54,31
5,55,35
3,56,37
-1,59,35
-1,57,37
0,56,36
4,56,36
4,54,35
4,53,34
5,54,33
4,52,33
4,53,34
4,53,33
3,54,34
2,54,34
2,54,34
2,53,35
2,53,34
2,53,35
3,53,35
4,52,36
-1,53,34
3,54,35
4,55,36
2,54,35
4,53,35
4,53,35
3,53,34
3,53,34
3,53,34
3,54,34
2,54,34
2,54,34
3,54,34
2,54,33
2,54,33
2,54,33
2,54,35
2,54,35
2,53,34
2,54,35
2,53,35
2,53,34
2,53,34
1,53,33
2,53,34
2,54,34
2,54,34
3,54,34
2,54,34
2,54,35
2,54,34
2,53,34
2,54,34
2,53,34
2,53,34
3,54,33
2,54,34
2,54,34
2,54,34
2,54,34
2,54,34
2,54,34
2,54,34
2,54,34
2,53,35
2,53,34
2,53,34
2,54,35
2,54,34
2,53,35
2,54,35
1,53,34
2,54,34
2,53,34
1,54,34
1,54,34
2,54,34
2,54,34
2,54,34
1,54,33
3,54,34
4,54,35
4,55,36
-2,56,33
-1,55,33
1,55,34
-7,52,32
-7,51,32
-7,47,33
-4,49,38
-6,50,38
-5,52,42
-12,54,34
-11,54,34
-4,51,38
-2,54,40
-6,54,36
-4,54,35
-7,52,35
-7,53,33
-4,50,33
-3,48,35
-1,48,37
-3,47,39
-5,48,41
-6,47,41
-4,48,42
-3,49,41
-2,50,41
-2,49,42
-1,53,37
0,53,36
2,53,31
5,56,30
5,56,28
8,57,29
7,57,29
5,57,29
4,55,33
6,56,36
3,57,31
9,59,27
16,57,28
15,57,29
11,59,27
8,60,26
-2,59,28
1,59,27
0,60,26
-1,60,26
-7,60,21
-6,60,22
2,60,18
-1,60,11
1,60,9
15,59,13
7,58,3
4,57,3
26,59,7
29,52,15
22,52,14
18,58,10
29,62,20
28,61,19
9,64,7
11,60,9
20,55,13
32,49,19
26,56,7
25,58,8
29,54,14
22,55,18
24,60,17
23,56,22
14,58,25
13,58,24
14,56,25
9,61,24
11,63,26
29,59,33
38,70,20
43,48,27
78,43,18
53,37,27
41,31,25
37,42,15
39,40,15
34,40,18
38,38,20
45,39,27
41,41,25
41,38,28
48,44,26
46,48,32
60,47,11
46,38,24
25,44,14
13,53,12
12,50,15
24,50,28
25,63,23
15,45,26
0,36,7
20,51,7
21,35,10
51,30,33
39,33,8
47,37,11
106,39,31
66,38,19
39,47,8
32,39,5
43,36,13
45,33,20
40,23,21
56,30,18
62,35,36
60,32,31
39,37,34
36,28,34
42,31,30
45,22,26
45,22,23
39,24,21
37,16,24
41,19,23
60,18,22
51,16,27
51,19,23
67,22,18
60,21,-2
51,35,-13
74,38,-31
74,33,-12
51,33,-39
31,26,-37
41,37,-35
37,33,-39
28,50,-31
23,52,-33
20,53,-30
19,64,-22
23,54,-19
26,53,-7
36,58,9
36,58,1
39,58,9
51,53,26
37,50,22
19,57,20
-12,59,19
-17,53,24
-1,51,34
7,47,40
-4,46,34
-6,48,28
0,51,26
5,52,27
12,56,29
11,58,35
11,58,31
9,59,29
4,58,29
6,57,30
10,56,32
9,55,29
8,56,27
8,56,26
10,56,32
11,54,32
7,57,30
5,55,31
5,54,27
5,55,27
1,58,22
6,61,23
4,62,26
7,66,22
7,64,24
1,67,19
3,71,-5
0,67,-28
13,39,-14
27,46,-8
49,37,38
34,65,13
4,63,5
13,57,20
29,42,64
29,63,31
11,49,12
48,33,12
88,62,-12
75,37,-16
38,36,-12
25,33,3
43,34,11
67,46,16
87,54,5
70,54,24
24,51,21
17,33,-2
29,48,0
49,37,15
31,40,10
34,47,6
44,41,7
44,38,13
44,32,10
44,29,-6
48,36,-10
54,37,-11
60,33,6
57,26,3
67,27,-16
49,29,-18
52,30,-20
58,33,-13
57,34,-21
57,29,-19
65,38,-16
52,38,-19
53,34,-15
74,51,-18
41,38,-3
41,37,3
45,42,7
42,40,1
44,39,5
44,37,7
43,37,7
44,37,4
43,40,7
43,43,5
44,44,2
36,49,4
46,57,7
46,57,8
36,59,9
35,56,14
34,56,20
32,48,17
29,40,18
32,37,17
42,31,27
41,25,29
41,27,27
46,26,25
48,20,36
50,21,33
43,23,25
42,17,21
44,16,23
56,12,21
50,10,16
54,11,17
58,14,10
70,13,4
73,11,10
72,11,7
53,16,4
58,17,3
67,15,2
51,14,3
58,13,7
65,7,-2
59,3,-1
59,5,-4
66,4,-4
65,3,-8
67,3,-6
64,2,-10
64,2,-9
62,4,-12
64,8,-8
60,6,-13
61,9,-14
59,4,-11
59,4,-13
65,4,-9
66,4,-8
66,6,-4
57,5,-7
63,5,-6
62,4,-5
60,5,-4
63,6,-1
62,6,0
62,6,2
62,7,2
60,7,2
60,7,2
61,6,5
62,6,7
63,7,11
59,7,8
60,7,8
67,7,11
62,10,13
60,10,13
61,11,12
55,14,12
55,15,14
59,14,12
58,13,8
57,13,9
54,12,12
56,13,13
58,14,13
58,15,16
60,16,17
59,15,15
59,14,11
59,10,11
58,11,9
64,15,11
60,8,11
61,9,11
64,11,12
59,9,8
59,12,9
61,10,8
60,11,9
59,11,10
58,9,10
60,10,9
63,12,4
61,11,3
60,11,2
57,12,-2
62,9,0
64,11,1
59,10,2
62,9,3
64,8,3
61,6,0
65,8,0
65,7,0
62,8,-1
62,8,1
60,8,0
60,10,0
62,7,1
61,7,1
61,11,0
63,9,1
62,8,1
60,10,1
60,11,0
61,10,0
60,8,1
61,10,1
62,10,1
64,8,2
62,9,1
61,9,0
61,8,0
61,9,0
62,8,0
62,9,3
62,8,3
61,8,3
60,10,3
61,8,3
61,9,3
61,9,3
62,8,3
63,9,3
62,8,2
62,9,3
62,9,2
60,8,2
62,9,6
61,8,4
60,9,5
60,11,-2
61,9,-1
61,7,-5
61,10,-3
64,8,-3
69,7,0
65,7,0
64,8,2
63,7,3
58,8,7
58,7,12
55,11,10
57,10,11
49,5,16
61,10,14
47,7,-2
78,-2,14
67,20,6
62,34,-2
60,13,-1
69,9,-1
61,14,-5
63,3,-15
63,5,-16
62,7,-14
67,10,-8
52,12,-15
50,10,-23
63,13,-12
63,12,-7
56,10,-15
58,12,-13
59,14,-7
59,15,-4
68,13,-5
70,13,-9
66,18,-5
67,19,11
54,15,9
50,19,8
38,8,7
48,13,-5
78,35,1
67,9,-1
63,27,-9
60,27,-11
46,9,-13
67,18,-13
59,16,-4
51,16,-20
48,12,-27
64,19,-25
53,20,-29
57,-9,-35
66,5,-29
49,11,-29
63,20,-25
57,17,-31
51,17,-31
48,40,-27
64,6,-25
57,5,-27
59,13,-23
59,18,-19
56,14,-25
53,18,-21
52,14,-22
62,16,-21
54,8,-21
62,10,-16
67,11,-11
66,17,-10
55,12,-13
59,8,-8
67,17,1
53,16,3
56,22,-3
53,35,-4
60,28,3
49,23,-3
54,17,1
61,27,9
65,39,12
59,44,11
35,0,-13
72,0,4
66,29,0
67,16,4
58,9,-1
63,33,1
49,7,-1
62,23,-1
64,15,-1
60,14,3
59,13,4
59,20,4
59,20,4
59,22,11
59,22,10
58,22,8
57,18,7
59,18,8
58,21,10
58,22,10
58,20,12
54,19,12
58,19,17
61,19,21
59,25,12
56,14,4
55,16,4
50,4,-3
68,18,9
67,23,8
64,10,6
69,15,8
61,24,0
62,21,5
62,16,11
59,12,10
66,25,22
49,16,-1
63,-9,2
54,20,0
65,19,2
62,15,-3
58,18,-4
62,17,-1
61,18,-3
60,18,-1
60,17,-1
61,20,-1
60,19,3
56,20,3
58,27,-5
71,35,-4
74,29,5
64,24,11
62,24,3
64,28,1
63,24,4
52,19,2
46,20,3
44,22,3
51,22,11
50,24,9
49,24,5
56,28,17
50,18,11
45,26,6
54,28,9
57,26,9
54,31,10
56,28,13
57,29,12
58,31,11
56,29,11
54,29,12
54,29,11
55,29,11
55,29,11
53,30,9
54,30,8
55,29,9
55,30,9
56,31,9
56,30,11
51,30,11
55,31,11
56,30,13
49,31,10
49,31,11
57,30,11
52,31,12
53,30,11
56,30,11
52,31,12
51,30,11
55,31,12
54,30,10
53,30,12
54,30,13
54,30,12
51,31,10
52,31,10
54,31,14
50,31,11
51,32,11
54,30,14
53,30,14
52,31,13
52,32,12
53,32,13
54,31,13
52,32,13
53,31,14
52,31,13
53,32,15
53,33,13
46,32,14
49,31,16
55,32,17
54,32,15
50,32,15
50,31,16
53,33,15
51,31,15
50,32,14
52,32,14
51,32,15
50,32,14
52,33,15
52,31,15
51,31,15
51,32,15
51,32,15
51,32,15
52,32,15
52,32,15
51,32,15
51,31,16
52,32,15
51,32,15
50,31,15
51,32,15
51,32,16
52,32,15
50,32,15
50,32,16
52,32,16
51,32,16
50,32,16
51,32,16
51,32,16
50,32,16
51,33,16
51,32,16
51,32,16
51,32,16
51,32,16
51,32,17
51,31,17
52,32,16
51,32,14
51,33,14
52,32,16
51,31,17
51,32,16
51,32,16
51,32,16
51,32,16
50,32,16
51,32,17
50,32,16
51,32,16
51,32,17
51,32,17
51,32,17
51,32,17
50,32,17
51,32,17
51,32,17
50,32,16
51,32,16
50,32,16
51,32,17
51,32,16
51,32,16
51,32,17
51,32,17
51,32,17
51,32,17
51,32,17
50,32,16
51,32,17
51,32,17
51,32,17
51,32,17
51,32,17
51,32,17
50,32,17
51,32,17
51,32,17
50,32,16
51,32,17
51,32,17
50,32,16
50,32,17
51,32,17
51,32,17
51,32,17
51,32,17
51,32,17
51,32,17
51,32,17
51,32,17
51,32,17
50,32,17
51,32,16
51,32,17
50,32,17
52,32,17
52,32,17
50,32,16
51,32,17
51,32,17
51,32,18
50,32,17
51,31,16
53,32,17
51,32,17
50,32,16
51,32,18
52,32,18
51,32,16
50,31,17
51,32,17
51,32,18
51,32,17
50,31,17
51,32,17
50,32,17
50,32,17
52,32,18
52,32,17
52,31,17
51,31,17
53,32,19
51,32,17
47,32,18
51,32,19
54,31,20
50,31,18
49,31,19
51,32,19
51,32,19
50,31,19
50,31,20
50,31,19
51,31,19
50,31,19
50,31,18
51,31,19
50,31,19
52,31,19
51,31,19
49,31,19
51,32,19
51,31,18
50,32,18
51,31,18
51,32,18
50,31,18
51,32,18
51,31,19
51,31,18
48,31,18
49,33,15
51,33,14
54,31,17
52,31,17
52,31,18
52,31,12
51,31,18
53,28,14
57,38,11
46,34,10
44,30,17
55,28,23
53,31,21
48,28,21
54,31,19
53,31,17
52,28,18
51,29,17
52,28,20
54,29,19
50,28,21
54,27,21
54,27,25
51,29,18
53,26,19
56,29,23
55,29,16
53,29,18
46,22,24
52,32,20
48,33,15
42,30,9
60,33,13
61,32,19
55,31,7
60,30,11
53,28,11
54,27,16
54,30,14
51,29,15
54,29,11
57,33,9
55,33,11
49,30,7
57,31,16
53,29,17
51,29,16
57,32,19
51,30,17
50,28,19
56,31,22
52,30,20
48,30,18
49,32,20
48,31,21
49,31,22
48,31,24
48,30,24
48,30,25
47,29,27
48,30,28
47,29,27
46,30,26
48,30,28
49,30,27
48,30,26
48,30,26
48,30,27
48,30,27
50,30,24
49,32,22
49,32,22
49,32,23
47,32,24
46,31,24
47,31,26
47,30,25
47,31,25
48,32,25
49,31,26
48,31,25
48,31,26
48,31,26
48,32,26
47,31,25
47,31,26
47,31,27
44,31,27
47,31,27
49,32,27
48,32,27
47,32,27
48,31,27
47,31,26
47,31,25
47,32,27
46,32,26
48,32,25
48,32,26
47,31,24
49,32,25
46,31,24
49,33,23
49,32,24
48,32,24
48,33,22
49,32,23
49,32,23
46,32,23
48,32,25
48,32,24
47,32,22
48,32,23
49,32,24
49,32,23
49,32,23
49,32,23
49,32,22
48,32,23
47,32,22
49,34,22
48,32,23
46,31,26
48,32,25
51,33,24
47,31,23
47,32,25
48,33,26
48,32,25
47,32,24
48,32,24
47,32,24
48,32,25
47,32,25
47,32,25
48,32,25
48,32,25
47,32,24
48,32,26
49,32,25
49,32,24
47,32,23
47,33,24
49,33,24
45,32,23
46,32,24
49,32,26
50,32,23
49,32,24
48,32,25
44,32,23
48,33,23
50,31,23
49,32,23
49,32,24
48,32,23
47,32,24
48,32,24
48,32,24
48,32,24
48,32,24
48,32,24
48,32,23
48,32,24
47,32,24
48,33,24
48,32,24
48,32,24
48,32,23
48,32,23
48,32,24
48,32,24
48,32,24
48,32,23
48,32,23
48,32,24
48,32,24
48,32,23
48,32,24
50,32,23
48,32,24
48,31,24
47,33,23
49,32,23
49,32,23
48,32,24
47,32,24
47,32,24
47,32,24
47,32,25
45,30,26
39,27,23
38,24,19
44,20,13
43,15,6
47,18,0
54,18,-2
61,17,-2
58,20,-7
71,24,-7
74,25,-8
72,22,-9
64,21,-18
60,20,-22
61,23,-22
62,29,-22
54,13,-21
55,9,-22
55,14,-22
57,14,-24
59,15,-23
61,15,-22
56,15,-23
56,13,-25
56,16,-24
58,13,-23
57,14,-23
57,13,-24
56,13,-24
57,13,-24
56,14,-23
55,13,-24
55,13,-25
57,12,-26
56,13,-24
58,12,-25
58,13,-26
56,13,-25
55,13,-25
56,13,-25
56,13,-25
55,13,-25
55,13,-25
56,13,-25
56,13,-25
56,13,-25
56,12,-25
57,13,-25
57,12,-24
56,12,-25
56,13,-23
57,12,-24
58,14,-27
59,13,-25
61,13,-23
59,13,-24
57,15,-24
60,19,-22
63,22,-22
68,24,-23
64,29,-22
63,30,-21
61,27,-18
60,33,-15
59,28,-15
54,30,-16
44,27,-15
48,27,-12
59,28,-8
46,19,2
58,29,-5
64,33,1
45,22,10
31,23,0
22,60,11
45,21,24
37,49,19
39,37,19
32,47,15
37,45,13
36,49,16
31,45,10
38,48,11
46,44,18
45,47,14
43,45,17
42,44,21
33,41,13
38,43,13
45,44,15
40,43,15
41,41,11
51,47,11
45,41,9
43,41,7
44,44,6
48,43,7
48,43,7
45,42,10
47,40,11
47,41,13
49,41,11
46,42,10
45,41,10
49,42,11
45,41,10
49,40,14
51,43,10
46,41,10
42,42,6
41,45,9
42,44,15
45,41,18
47,43,15
44,42,14
42,41,21
43,43,23
40,43,23
33,44,19
36,43,27
35,43,25
33,44,23
39,44,29
37,45,27
35,44,24
41,45,28
40,43,27
36,42,25
36,41,32
30,43,32
34,44,25
41,44,27
38,41,24
32,44,32
36,45,27
37,44,28
35,42,28
36,43,28
37,43,28
37,43,27
37,43,26
37,43,29
37,43,28
36,42,27
37,42,27
38,43,27
37,42,28
36,43,27
36,43,25
40,43,26
40,43,27
38,43,25
38,43,26
38,43,26
38,43,25
38,43,26
38,43,26
37,43,26
37,44,26
38,43,27
38,43,25
38,43,27
38,43,27
37,43,26
36,43,27
37,42,28
38,43,27
37,43,26
37,43,27
37,43,27
37,43,27
37,43,27
37,43,27
38,43,27
37,43,27
37,43,27
37,43,27
37,43,27
37,43,27
37,43,27
37,43,27
36,43,27
37,43,27
37,43,27
37,42,27
37,43,27
37,43,27
37,43,27
37,43,28
36,43,27
37,43,27
37,43,27
37,42,28
37,43,27
36,43,27
36,43,28
37,42,28
37,43,28
36,43,27
36,43,28
37,43,28
36,43,28
36,43,27
36,43,27
36,43,27
36,43,27
36,43,27
37,43,27
36,43,27
36,43,27
36,43,27
37,43,28
37,43,28
36,43,27
37,43,28
37,43,27
37,43,27
37,43,28
36,43,27
37,43,27
37,43,27
36,43,27
37,43,27
37,43,28
37,43,27
37,43,27
37,43,27
37,43,27
37,43,27
37,43,27
37,43,28
36,43,27
36,43,27
37,43,28
37,43,27
37,43,27
37,43,27
37,43,28
37,43,27
36,43,27
37,43,28
37,43,28
37,43,27
36,43,27
37,43,27
36,43,27
36,43,27
37,43,27
37,43,28
37,43,27
37,43,27
36,43,27
37,43,27
37,43,27
36,43,27
37,43,27
37,43,27
37,42,27
37,43,27
37,43,27
37,43,28
36,43,27
36,43,27
36,43,27
37,43,27
37,43,27
38,42,27
38,43,27
38,42,27
38,42,27
37,42,28
37,42,28
36,43,28
36,43,29
36,42,28
35,43,29
36,43,28
36,43,28
35,43,29
36,42,30
36,43,30
36,42,30
35,43,30
35,43,29
35,43,30
35,43,29
34,43,29
36,43,30
36,43,30
35,43,30
34,43,31
33,42,31
33,42,32
32,42,32
33,43,32
32,43,32
32,42,32
33,42,33
33,43,33
32,42,32
32,43,32
33,43,32
33,43,32
34,42,33
34,44,33
34,43,31
34,44,32
36,43,33
34,43,34
35,43,33
32,44,34
32,42,37
30,43,35
23,44,36
23,44,38
26,44,38
23,45,37
19,45,33
22,46,32
31,45,32
24,49,28
24,49,32
29,43,33
35,51,30
27,51,27
19,51,24
18,51,27
19,50,28
35,54,24
25,52,21
20,50,18
29,47,33
8,38,45
7,33,49
2,33,58
-9,27,48
-3,29,48
-2,29,46
-2,33,45
5,32,44
10,29,45
15,26,57
12,24,56
7,17,65
30,13,66
37,14,73
25,8,73
20,5,70
18,7,65
16,5,61
19,4,61
22,10,59
15,12,56
19,9,58
23,11,68
15,5,60
15,4,58
22,8,62
22,12,66
20,11,60
21,15,58
30,18,55
41,19,55
42,34,51
44,35,54
43,39,54
4,32,51
-18,17,46
-4,17,52
1,4,55
-31,-9,49
-37,-14,47
-41,-19,48
-41,-22,50
-53,-23,39
-39,-15,34
-42,-2,55
-40,0,41
-32,-25,37
-47,-3,32
-50,61,51
-32,6,48
-43,-33,46
-28,-55,32
-73,-45,23
-28,27,68
-11,-29,52
-42,-16,50
-49,-14,46
-44,-30,47
-34,-15,43
-24,-22,47
-30,-6,46
-34,30,56
-40,26,56
-38,25,55
-25,4,70
-28,-16,63
-30,-81,47
-34,11,60
-19,34,57
-2,12,56
1,12,60
15,11,54
10,17,49
7,26,25
19,31,21
45,47,29
52,48,30
47,46,14
56,56,9
67,49,17
56,48,17
40,45,10
39,47,18
33,48,13
32,44,21
34,46,18
36,56,31
25,45,24
23,56,20
21,50,24
19,44,30
24,55,37
19,53,36
12,54,33
19,47,39
16,48,39
14,43,38
17,48,39
21,44,36
23,47,39
19,48,37
20,48,36
22,47,41
16,47,37
15,46,37
20,49,35
23,48,33
25,50,30
30,50,31
24,49,32
19,51,27
23,49,32
19,51,33
20,50,34
20,48,36
15,48,33
15,48,33
18,45,36
15,39,32
11,35,28
8,13,19
-3,33,-12
15,31,-8
82,6,13
55,46,-22
59,30,-21
55,32,-37
51,34,-35
58,35,-36
64,41,-35
103,28,-55
11,10,-76
44,18,-43
39,5,-48
44,6,-43
47,7,-44
46,2,-43
32,-17,-53
47,0,-44
48,-2,-42
53,0,-34
53,-1,-33
52,-2,-34
55,0,-31
58,0,-29
58,0,-27
60,2,-23
59,4,-19
49,7,-21
77,2,-9
60,2,-16
62,2,-16
60,2,-11
61,3,-6
60,4,-2
60,1,-1
61,1,0
61,3,1
62,3,0
60,4,2
60,4,3
61,5,2
59,5,2
64,4,0
58,10,0
62,3,2
62,4,0
68,0,-1
87,41,-13
8,-32,-17
50,-5,9
68,9,7
65,-5,2
61,-1,7
61,-11,1
61,-2,1
108,33,0
61,-6,0
64,0,-1
62,-3,-2
52,-2,0
61,2,0
62,2,-12
64,-3,-15
60,1,-20
59,-3,-15
66,21,-14
65,-1,-17
61,-3,-18
62,3,-17
65,3,-17
66,-6,-15
56,-3,-5
56,1,-3
61,7,-1
61,-1,-3
64,1,0
63,1,2
57,-2,-3
63,-3,3
59,0,5
57,-2,4
62,0,2
63,-6,2
60,-3,-4
61,-5,3
57,-4,4
59,-4,2
63,7,6
75,12,2
62,-3,-12
63,7,-16
62,5,-11
56,-3,-10
57,2,-14
67,-4,-17
65,-1,-18
60,0,-21
55,-1,-30
57,-3,-25
53,3,-33
54,2,-33
55,1,-32
56,0,-28
56,-1,-29
55,-1,-28
58,1,-25
57,-1,-29
55,0,-31
58,0,-24
56,0,-28
57,1,-26
55,0,-30
57,1,-25
57,0,-25
59,0,-24
57,0,-27
58,0,-24
57,1,-24
59,1,-23
57,0,-21
58,1,-22
59,0,-22
59,0,-22
58,1,-22
59,1,-23
58,1,-22
59,1,-22
59,1,-21
58,1,-21
59,0,-21
59,0,-22
59,0,-21
58,0,-21
59,0,-21
58,0,-22
59,0,-21
59,0,-21
58,-12,-3
54,0,-31
58,0,-26
57,-1,-23
56,0,-25
57,0,-27
53,1,-33
56,0,-28
52,3,-36
56,-1,-31
53,0,-34
53,0,-34
51,0,-36
50,0,-37
52,-1,-36
50,-1,-38
51,0,-36
51,-1,-35
53,0,-34
54,0,-32
55,0,-31
55,0,-30
54,-1,-28
55,0,-31
55,-1,-28
59,-1,-30
60,-1,-23
60,-12,-25
56,1,-19
55,-1,-30
59,-7,-25
41,12,-42
55,-2,-34
52,-2,-28
56,-2,-31
62,2,-23
56,-4,-28
48,-7,-44
54,-6,-40
52,-12,-34
44,1,-38
44,-1,-35
53,9,-30
45,-16,-39
49,2,-25
12,-27,-44
80,16,-33
54,-1,-43
39,-3,-62
50,0,-39
49,5,-40
51,-2,-37
50,-1,-39
48,-1,-43
51,-2,-37
51,-4,-38
51,0,-40
48,-4,-41
44,-1,-46
42,-1,-48
43,0,-48
40,0,-49
38,-1,-50
37,0,-52
36,0,-52
32,0,-56
39,0,-50
38,0,-51
39,0,-50
42,1,-47
46,2,-43
46,-2,-44
50,1,-40
47,-3,-43
42,-4,-53
50,0,-38
50,0,-38
51,0,-37
50,-1,-39
49,-2,-35
49,-1,-38
48,-1,-41
55,6,-33
48,1,-45
50,0,-39
49,-1,-40
50,0,-39
50,0,-37
51,-1,-36
51,0,-36
51,0,-36
51,0,-36
55,0,-32
50,0,-38
52,0,-35
51,0,-36
52,0,-35
53,0,-34
53,0,-34
53,0,-35
53,0,-34
53,0,-33
52,0,-35
53,0,-34
53,0,-35
53,0,-34
53,0,-34
54,0,-33
53,0,-31
54,0,-32
52,2,-36
54,0,-30
54,0,-31
54,0,-32
54,0,-32
54,0,-32
54,0,-32
54,-1,-33
53,0,-33
54,0,-33
53,0,-33
54,0,-32
53,0,-33
53,0,-33
54,0,-33
54,0,-33
54,0,-32
53,0,-34
54,0,-34
54,0,-33
53,0,-33
53,0,-33
54,0,-33
53,0,-33
53,0,-35
52,0,-34
52,0,-34
52,0,-35
52,0,-35
54,3,-44
51,0,-36
51,0,-37
51,0,-37
51,0,-37
51,0,-37
49,0,-40
51,-3,-38
50,0,-40
52,3,-31
58,-1,-27
64,-9,-35
76,9,-23
73,4,-37
77,7,-28
67,13,-17
54,19,-5
65,16,7
56,12,10
51,13,25
49,9,33
32,10,32
29,20,54
33,22,54
13,4,45
32,10,55
28,8,53
19,5,53
15,2,65
-6,2,64
-10,-8,61
-7,9,56
-11,16,58
-20,-34,46
-27,-15,58
-23,-15,54
-36,31,60
-42,38,64
-10,4,79
-17,7,60
-42,3,61
-52,-7,53
31,8,53
40,9,44
27,21,23
73,18,25
53,25,2
100,23,22
39,34,14
33,34,13
52,25,16
71,17,28
58,18,28
40,19,22
58,18,31
64,17,32
44,18,28
57,20,31
49,24,34
42,11,29
43,17,33
47,15,39
42,25,30
47,34,31
49,33,28
49,40,21
44,48,18
41,46,15
54,48,31
50,24,26
63,34,34
36,55,36
31,12,12
50,28,21
65,23,11
62,23,10
50,29,6
49,27,6
60,26,14
63,28,17
59,26,20
55,25,20
52,21,23
52,26,24
54,23,19
56,25,19
53,28,20
52,24,22
49,25,23
51,25,25
53,22,30
51,26,30
44,22,26
49,26,30
51,23,30
48,26,29
46,24,30
43,24,29
60,21,27
45,23,19
57,24,27
55,24,24
53,21,21
54,24,25
50,24,23
50,25,23
50,25,26
53,24,29
52,26,32
29,25,27
45,28,34
46,28,33
40,27,33
31,16,20
46,33,30
52,28,32
48,28,30
44,27,32
49,33,32
53,33,36
44,22,26
49,28,30
46,28,31
46,32,33
36,36,35
47,27,41
48,31,37
32,25,35
43,29,41
43,26,36
43,27,39
47,25,42
41,25,41
42,21,37
41,23,39
41,29,42
41,27,36
36,20,42
32,30,37
42,30,34
44,36,38
45,26,39
46,24,39
41,30,42
40,24,38
40,18,34
61,32,40
40,39,30
45,24,33
42,27,26
49,30,28
51,29,26
52,30,25
53,34,28
50,26,24
54,27,28
47,25,25
47,27,12
51,29,16
40,22,1
64,31,-10
116,49,18
63,32,-9
41,34,-15
50,41,-7
56,44,1
45,44,3
43,42,5
41,41,14
42,38,17
44,36,20
35,60,20
31,38,15
33,45,19
37,48,18
32,45,17
36,49,20
27,51,20
36,46,23
34,48,25
36,46,25
28,47,22
31,49,24
32,46,22
37,50,23
40,47,24
23,53,30
26,49,25
32,47,24
39,47,18
41,48,13
41,49,12
37,48,9
38,48,4
40,49,2
40,50,2
41,51,-1
41,53,-1
38,52,-2
33,55,-4
35,53,-3
34,52,-6
37,50,-2
33,53,0
32,53,-1
31,50,-1
27,54,1
36,35,-4
33,64,-7
35,56,-10
31,55,-9
37,53,-12
38,49,-13
35,51,-10
37,51,-9
37,53,-11
37,54,-12
34,52,-13
30,56,-8
35,55,-10
36,56,-11
31,52,-7
31,52,-7
29,44,-7
39,54,-6
35,50,-9
37,50,-10
39,50,-9
33,52,-11
37,51,-10
36,52,-10
36,52,-9
35,53,-10
36,52,-7
35,50,-7
37,50,-7
38,50,-7
36,50,-5
37,49,-7
37,52,-6
35,49,-8
38,52,-8
37,52,-6
37,53,-6
37,52,-6
37,52,-4
36,52,-4
35,53,-4
34,51,-4
34,52,-4
35,51,-3
35,52,-1
35,51,-2
37,52,-3
37,51,-3
36,52,-3
36,52,-2
35,52,-2
35,52,-2
36,51,-3
35,51,-1
35,52,-1
35,51,-1
36,52,-4
36,52,-3
36,52,-3
37,52,-2
36,52,-2
36,53,-2
36,51,-2
36,51,-3
36,52,-3
37,51,-3
37,51,-3
36,51,-4
37,51,-3
36,52,-2
36,51,-2
36,51,-3
36,51,-3
36,51,-3
36,52,-4
36,53,-4
38,53,0
35,51,4
39,51,4
46,49,4
55,46,12
42,46,11
63,43,25
36,41,12
30,37,13
41,35,32
49,30,36
41,30,33
39,27,44
29,23,47
21,22,45
8,20,47
5,15,58
9,19,62
-3,17,51
5,13,58
3,16,63
10,13,66
-10,12,61
-26,8,56
-21,3,59
-15,3,67
-19,0,63
-31,-2,59
-21,-1,60
-22,-1,61
-25,0,62
-32,2,58
-22,1,58
-17,1,63
-23,11,60
-28,7,60
-29,5,56
-25,1,57
-27,3,58
-29,2,56
-30,3,53
-31,8,53
-31,5,54
-32,5,52
-31,5,52
-29,1,53
-28,0,52
-29,2,52
-28,3,63
-15,-39,62
-17,-5,67
-16,14,71
-9,11,65
-18,0,57
-4,7,62
-7,12,61
-10,14,59
-9,14,56
-9,13,56
-6,9,64
-6,9,64
-12,10,62
-22,10,60
-18,13,62
-13,14,63
-7,15,61
-4,18,61
-13,14,57
-19,14,52
-17,8,53
-14,7,56
-13,8,58
-13,12,62
-12,13,65
-15,17,62
-10,16,60
-5,15,67
-6,15,64
-6,11,65
-6,11,66
-9,9,60
-10,9,67
-7,9,66
-14,12,66
-8,10,72
-3,13,77
-15,14,70
-7,15,70
-1,18,69
9,29,65
14,30,57
12,30,47
-1,35,42
12,31,44
21,32,40
22,34,34
35,29,46
35,26,49
17,33,25
19,40,30
26,50,37
18,46,34
11,48,31
15,48,32
19,45,42
11,49,30
22,46,36
36,46,38
22,47,26
28,46,27
40,47,30
32,43,30
39,41,33
37,47,30
32,44,24
31,45,26
37,45,26
48,43,27
40,45,25
27,46,17
39,47,21
39,48,25
34,45,27
35,45,29
33,47,23
35,46,24
35,46,25
35,47,26
34,46,25
33,46,25
34,45,30
33,46,27
32,47,26
32,47,24
33,47,24
33,47,24
34,47,25
35,46,26
35,47,25
33,47,25
35,47,25
35,47,26
32,47,26
32,46,27
32,47,24
32,46,23
37,47,24
37,47,24
38,46,26
33,45,24
36,46,23
40,46,24
32,46,22
33,47,19
36,47,20
38,47,20
35,46,21
39,46,22
37,44,30
34,43,29
33,44,24
39,45,24
38,44,25
39,44,18
41,48,7
42,49,4
48,46,13
43,48,11
38,48,9
40,44,22
38,42,27
39,43,24
31,41,30
37,43,29
42,44,27
39,45,21
36,45,23
35,43,27
37,44,25
37,44,25
37,44,25
37,44,25
37,44,24
37,44,24
38,44,25
38,44,24
38,44,24
38,44,25
37,44,25
36,44,25
37,44,26
38,43,26
38,44,26
39,43,26
39,44,25
39,44,26
38,44,27
37,44,26
45,45,27
29,41,29
24,43,25
31,41,24
36,44,15
40,42,9
45,43,7
48,42,2
45,42,0
48,40,-8
50,43,-4
45,42,-6
51,40,-1
48,40,-5
47,40,-7
52,37,-8
50,37,-9
48,37,-10
54,39,-12
61,41,-13
61,40,-12
57,39,-10
49,42,-10
60,40,7
26,38,6
27,35,20
29,38,20
43,37,22
51,33,19
49,33,8
48,34,0
62,38,-6
69,39,-6
54,32,-7
56,30,-6
67,31,1
57,32,-8
57,32,-3
60,28,2
50,34,-8
51,34,-2
54,34,-4
57,33,1
56,33,-2
49,35,-3
54,34,7
55,36,9
52,35,8
47,35,11
44,36,14
47,34,19
48,35,22
48,34,21
46,36,21
44,36,18
42,35,17
49,37,25
43,37,15
46,36,20
50,36,23
43,34,23
43,35,24
44,35,23
50,34,22
55,34,21
44,38,17
48,35,16
52,35,18
50,35,17
47,35,15
47,35,14
49,36,15
52,35,15
47,35,13
47,35,14
52,34,15
51,34,14
52,35,12
51,35,12
52,35,13
50,35,12
50,35,14
52,35,14
50,35,14
50,35,14
51,35,16
51,35,14
50,36,14
49,36,14
49,36,15
48,36,16
47,36,15
49,36,16
49,36,16
48,37,16
48,37,18
47,37,18
46,37,18
46,37,19
45,37,20
45,37,20
45,37,19
45,37,19
46,38,19
46,37,18
46,37,19
47,37,20
47,37,18
48,37,18
48,37,18
46,37,18
47,37,19
47,37,18
46,37,18
47,37,19
47,37,19
47,37,19
46,37,19
47,37,19
46,37,20
47,37,21
47,37,20
46,37,20
45,38,20
45,38,21
43,38,21
44,38,22
45,37,22
46,37,22
46,37,21
46,37,22
46,37,22
45,37,22
45,37,20
45,38,20
46,38,21
45,37,22
44,38,21
45,38,20
47,38,21
46,37,20
45,38,21
45,37,22
44,38,22
45,37,21
46,38,21
45,38,21
45,38,22
45,38,21
45,38,21
45,38,21
45,38,21
45,38,21
45,38,21
45,38,21
45,38,21
45,38,22
44,38,21
45,38,21
45,38,22
45,38,22
45,38,21
45,38,21
45,38,21
45,38,21
45,38,21
45,38,22
45,38,21
45,38,22
44,38,22
45,38,22
45,38,22
45,38,22
45,38,22
45,38,21
46,38,21
46,38,22
45,39,21
46,38,24
44,38,26
42,37,29
33,36,33
33,37,33
41,36,34
42,37,28
41,38,27
42,38,27
42,38,26
41,38,26
41,38,27
41,38,28
42,38,27
43,38,27
43,38,27
43,38,27
42,38,27
42,38,27
42,38,28
42,38,28
41,38,28
43,38,29
44,38,29
37,38,31
33,39,32
34,37,31
40,38,33
41,38,32
39,38,31
39,38,32
40,38,30
39,38,30
35,38,32
34,38,33
38,37,33
44,37,31
44,37,31
39,36,31
42,38,30
41,38,28
35,38,32
43,38,31
39,38,29
40,38,29
41,38,31
41,38,31
34,37,33
44,38,32
40,38,29
38,38,30
40,38,31
41,38,30
36,37,29
33,38,34
43,37,32
37,38,28
39,37,30
39,38,29
41,37,27
41,38,27
42,37,26
43,37,25
45,37,23
47,37,20
47,37,18
49,37,17
50,38,16
48,38,15
48,37,15
49,37,16
48,37,17
47,37,17
48,37,16
48,37,16
48,37,16
48,37,16
47,37,16
48,37,16
48,37,17
48,37,16
48,37,17
47,37,16
48,37,17
48,37,17
48,37,17
47,37,16
48,37,17
49,37,18
46,37,17
47,37,17
47,37,18
47,37,18
47,37,18
47,37,18
47,37,18
48,37,18
49,37,19
46,37,18
49,37,19
48,37,21
45,37,20
46,37,22
43,37,21
40,39,20
41,39,19
45,38,22
45,37,23
45,37,23
46,37,23
47,37,23
46,37,23
45,37,24
45,37,24
44,37,24
43,37,24
43,38,24
40,38,25
45,37,27
45,37,25
42,37,24
43,38,25
44,37,24
44,37,24
45,38,23
45,38,23
45,37,23
44,37,22
44,38,23
46,38,23
45,37,23
43,37,23
43,37,24
45,37,23
46,37,22
45,37,21
47,38,20
46,37,20
46,37,21
45,37,20
45,37,20
46,37,20
47,37,19
47,37,19
47,37,20
47,37,19
47,37,19
47,37,19
46,37,19
46,37,19
47,37,19
47,37,21
47,37,20
47,37,20
46,38,21
45,37,21
44,37,22
43,37,25
43,37,24
45,37,24
45,37,24
44,37,24
43,38,25
42,37,25
41,37,27
43,37,27
43,38,26
42,38,26
43,38,26
42,38,25
43,37,26
40,38,29
42,37,27
45,37,26
43,37,24
40,38,24
42,38,25
43,37,24
44,37,23
44,38,23
45,37,21
45,37,20
45,38,19
47,37,18
48,37,17
47,37,14
48,37,13
49,37,12
50,36,10
53,39,8
50,37,8
50,37,8
52,38,6
51,37,6
52,37,7
46,38,6
47,38,6
52,39,5
49,39,5
47,38,5
51,38,7
49,39,5
49,38,6
49,39,6
49,39,5
49,39,5
49,39,6
49,38,6
50,39,6
49,39,6
48,39,5
48,39,5
48,39,6
47,39,6
47,40,7
49,38,7
49,39,6
48,39,6
49,39,5
49,39,5
50,38,6
48,39,6
48,39,6
48,39,6
50,39,6
48,39,7
49,39,7
49,39,6
49,39,6
48,39,6
49,39,6
49,39,6
49,39,7
49,39,7
48,39,7
48,39,7
48,39,7
48,39,6
48,39,6
48,39,7
49,39,7
48,39,7
48,39,7
49,39,7
48,39,7
48,39,7
48,39,7
45,40,3
46,42,1
47,41,3
50,38,12
51,35,14
48,35,13
50,38,7
49,39,4
50,40,3
49,40,2
48,38,0
48,40,-1
48,40,-2
54,38,0
51,39,0
51,40,-3
53,39,1
49,39,1
48,38,5
47,39,6
47,39,3
46,39,3
47,41,1
45,44,0
51,39,14
48,34,13
50,37,12
52,37,11
49,40,11
44,40,10
45,45,5
44,44,13
42,40,17
38,38,23
43,39,30
40,39,28
37,39,29
37,40,29
38,40,31
38,39,31
37,40,31
35,40,28
37,41,28
38,41,29
38,40,30
38,41,27
39,41,27
39,41,28
37,41,27
38,41,27
38,41,28
38,41,29
38,40,29
39,41,29
38,40,30
36,40,28
39,42,27
38,42,26
37,41,26
37,41,28
39,41,26
39,41,26
39,41,27
39,41,26
39,41,26
39,41,27
39,41,27
39,41,27
39,41,27
38,41,26
39,41,27
39,41,27
39,41,27
39,41,28
39,41,27
40,42,24
38,41,25
41,40,29
39,40,26
40,41,26
39,42,25
39,42,24
39,42,24
39,42,24
40,42,24
40,42,24
39,42,24
39,40,30
36,42,25
42,42,25
39,41,25
38,41,25
40,41,26
40,41,24
39,41,25
40,42,24
41,42,24
40,42,25
40,41,24
40,42,25
40,42,24
40,41,25
39,41,25
39,42,24
39,42,25
40,41,25
40,42,24
40,41,24
41,42,25
40,42,25
39,42,23
40,42,23
40,42,24
40,42,24
40,42,24
40,42,24
40,42,23
40,42,23
40,42,23
40,42,24
39,39,30
35,42,19
43,42,25
42,42,25
40,42,24
40,42,24
39,42,23
40,42,24
40,42,24
39,42,23
40,42,24
40,42,24
40,42,24
39,42,24
39,42,24
39,42,24
40,42,24
40,42,24
40,42,24
40,42,24
40,42,24
40,42,24
39,42,24
39,42,24
39,42,24
39,42,23
39,42,24
39,42,24
40,42,24
40,42,24
40,42,23
39,42,24
40,42,24
39,42,23
40,43,23
42,41,25
42,41,28
37,43,21
41,43,25
40,42,26
38,41,27
37,41,28
36,41,26
39,42,26
41,42,26
42,41,25
39,40,27
39,40,26
40,41,26
40,41,24
40,42,23
43,42,23
43,41,27
42,42,24
38,41,24
38,42,24
38,42,24
38,41,27
40,40,27
41,41,26
43,41,26
40,41,26
39,41,26
39,41,26
39,41,26
39,41,26
40,41,26
40,41,26
40,41,26
40,41,25
40,41,26
40,41,26
39,41,25
39,41,26
40,41,26
39,42,25
39,42,25
40,42,26
39,42,25
39,42,26
39,42,26
39,41,27
39,42,26
40,42,25
39,42,25
38,42,24
39,42,24
39,42,24
39,42,25
39,42,25
38,42,24
41,42,24
40,42,25
39,42,25
40,42,24
40,43,23
40,42,24
39,42,24
40,42,24
40,43,24
39,42,24
40,42,24
39,43,23
39,43,24
39,43,24
39,43,23
39,43,23
39,43,24
39,43,23
39,43,23
39,43,23
40,43,23
39,43,23
39,43,23
39,43,23
39,43,24
39,43,23
39,43,24
39,43,24
38,44,23
39,43,24
39,44,23
39,44,22
39,44,23
39,44,23
39,44,22
39,44,22
39,44,22
38,44,23
39,44,23
39,44,23
39,44,23
39,44,23
39,44,23
38,44,22
38,44,23
38,44,22
39,44,23
38,44,22
39,44,23
39,44,24
38,44,24
38,44,23
37,44,24
38,43,25
39,43,26
38,43,25
38,43,25
39,43,25
37,43,25
36,43,26
38,43,26
39,43,25
37,43,27
36,43,27
37,43,26
38,43,27
38,43,27
38,43,27
37,43,26
37,43,25
37,43,27
37,43,26
38,43,26
37,44,26
37,44,26
37,44,26
37,43,27
37,43,26
37,43,27
36,43,26
37,43,27
36,43,26
37,43,26
38,44,26
38,44,26
37,44,26
37,44,26
37,44,26
37,44,26
37,43,26
37,44,26
37,44,26
37,44,26
38,44,26
37,44,26
37,44,26
37,44,26
37,44,26
36,44,25
37,44,25
38,44,26
36,44,26
37,44,25
38,44,26
38,44,25
37,44,25
38,44,26
37,44,26
36,44,25
37,44,26
37,44,26
37,44,26
36,44,26
36,44,25
38,44,26
36,44,26
36,44,25
38,44,26
37,44,25
36,44,25
37,44,25
37,44,26
37,44,25
36,44,25
37,44,26
37,44,26
37,44,25
37,44,26
38,44,25
39,44,26
37,44,25
37,44,25
37,45,25
36,44,24
37,44,25
37,44,25
37,44,25
37,44,25
37,44,25
37,44,24
37,44,26
36,44,25
37,44,25
38,44,25
37,44,25
36,44,24
36,44,24
38,44,24
38,44,24
38,44,25
37,44,25
37,44,25
37,44,25
37,44,25
37,44,25
37,44,25
38,44,25
38,44,25
37,44,25
37,44,25
37,44,24
36,44,26
36,44,24
38,44,25
38,44,25
37,44,24
37,44,25
38,44,25
37,44,24
37,44,24
38,44,24
38,44,25
37,44,25
37,44,25
38,44,25
38,44,25
37,44,24
38,44,25
37,44,24
37,44,24
37,44,24
38,44,25
35,44,25
38,44,26
38,44,25
37,44,25
38,44,25
38,44,25
38,44,25
37,44,25
37,44,25
37,44,25
37,44,24
37,44,24
37,45,24
37,45,25
37,45,25
37,44,25
35,44,25
35,44,24
37,44,26
37,44,25
36,44,25
37,44,25
37,45,25
38,44,24
38,44,24
38,44,24
38,45,24
37,44,24
37,44,24
37,44,24
37,44,26
35,44,27
36,44,24
38,44,25
37,44,24
38,44,25
37,44,24
37,44,24
38,45,25
37,44,25
36,44,24
37,44,25
37,45,24
37,44,24
37,45,24
37,45,24
37,45,24
36,44,26
36,44,24
38,45,25
37,44,24
37,44,24
38,45,24
37,45,24
37,44,24
37,44,24
37,44,24
37,45,25
37,45,25
37,45,24
37,44,24
37,44,24
37,45,24
37,45,24
37,45,24
35,44,26
37,45,24
39,45,26
37,45,24
37,44,25
37,44,25
37,45,25
36,45,24
38,45,25
37,45,24
37,45,24
37,44,25
37,44,25
37,44,24
37,44,24
37,45,24
37,44,24
37,44,25
36,44,24
37,45,24
37,44,25
37,44,24
37,44,25
37,44,25
37,44,25
37,44,25
37,44,25
37,45,24
37,44,24
37,45,25
37,44,24
37,45,24
37,45,24
37,44,25
37,44,25
36,45,25
37,45,25
37,45,25
36,45,24
37,45,25
37,44,24
37,45,24
37,45,25
37,45,25
36,45,24
36,45,24
37,45,25
37,45,24
36,45,25
36,45,24
37,45,25
37,45,25
36,45,25
37,45,25
37,45,25
37,45,25
36,44,26
35,45,24
35,45,24
36,45,25
36,45,25
36,45,24
36,45,24
36,45,25
37,45,24
36,45,24
36,45,24
37,45,24
38,45,25
37,45,25
36,45,24
35,45,24
36,45,24
37,45,26
37,44,26
37,45,26
37,44,26
35,44,27
35,44,26
35,45,26
36,45,25
36,45,24
36,45,23
38,45,25
38,45,25
36,45,23
36,45,24
37,45,24
38,44,25
37,44,26
37,44,25
37,44,26
36,44,26
35,44,25
35,45,25
36,45,24
38,45,23
37,44,25
36,44,24
36,45,24
37,45,25
37,44,26
38,44,25
38,44,26
37,44,27
35,44,27
35,44,25
37,45,24
37,45,23
37,45,24
36,45,24
36,45,24
36,45,24
37,44,25
37,44,25
37,44,25
37,44,26
36,44,26
36,45,24
37,45,24
37,45,24
37,45,24
36,45,24
36,44,24
36,45,24
37,45,24
37,45,25
37,44,25
37,45,24
36,45,24
37,45,24
37,45,24
36,45,25
37,44,25
37,44,25
38,45,25
37,44,25
36,44,24
37,45,25
37,44,24
36,45,25
38,45,25
38,44,25
36,44,25
36,45,24
37,45,25
36,45,24
37,45,24
37,44,25
36,44,27
36,44,24
38,45,24
37,45,23
37,45,24
36,45,24
36,45,24
37,45,25
37,45,24
36,45,24
37,45,25
37,45,25
37,45,25
38,45,25
36,45,24
36,45,24
36,45,25
37,45,24
37,45,24
36,45,24
37,45,25
38,45,25
36,45,24
37,45,25
37,45,25
37,45,24
38,45,24
37,45,25
36,45,24
37,45,25
36,45,24
36,45,24
36,45,24
36,45,24
36,45,26
33,45,24
35,45,25
37,45,26
37,45,25
37,44,25
37,45,25
37,45,25
37,45,25
36,45,25
36,45,25
36,45,25
36,45,25
35,45,24
36,45,25
36,44,25
37,45,25
37,45,25
36,44,25
37,44,25
37,44,26
36,45,25
36,45,25
37,45,25
36,45,24
36,45,24
36,45,24
36,45,24
36,45,26
34,44,24
37,45,26
38,45,26
37,44,26
37,44,26
37,44,26
36,44,26
36,45,25
36,45,25
36,45,25
37,45,25
36,45,25
34,45,26
37,45,26
37,44,26
36,45,25
37,44,26
37,44,26
36,45,25
36,45,26
36,44,25
36,45,25
36,45,25
36,45,25
36,45,24
35,44,27
34,45,24
37,45,26
36,45,25
36,45,25
37,45,25
37,45,26
36,45,25
36,45,25
36,45,26
36,45,25
36,45,25
36,45,25
36,45,25
36,45,25
36,45,25
35,45,24
36,45,25
36,45,25
36,45,24
36,45,24
36,45,25
36,45,25
36,44,26
36,44,25
36,45,24
36,45,25
37,43,27
31,44,28
39,46,22
44,46,26
37,44,24
36,44,25
37,44,25
37,44,25
36,44,25
37,44,25
37,44,25
38,44,25
38,44,26
36,44,25
36,44,25
36,44,25
36,44,25
37,44,25
37,44,25
37,45,25
37,44,25
37,44,26
37,44,26
37,44,26
37,44,26
35,44,25
36,44,23
38,44,24
39,44,25
38,43,24
38,43,25
38,43,24
39,43,26
39,42,27
35,42,26
36,41,27
37,41,26
41,41,25
44,41,21
44,42,19
43,41,14
45,44,10
47,44,12
48,41,15
45,40,14
45,41,13
48,40,13
49,40,16
39,41,11
41,41,10
59,39,12
56,40,11
46,40,9
47,39,10
42,43,9
47,40,9
45,42,9
43,41,13
47,39,13
51,38,13
48,39,14
49,40,10
49,41,11
46,40,14
43,39,15
47,40,17
46,40,15
45,40,15
44,40,15
44,42,17
46,40,15
47,40,18
45,40,23
44,40,23
41,41,22
38,41,22
41,42,27
37,42,26
38,41,27
37,43,25
36,44,24
34,43,25
32,44,28
31,42,28
34,41,28
43,41,33
39,42,32
32,41,31
35,42,32
35,42,30
38,41,32
34,41,29
33,41,28
40,42,30
39,42,28
37,41,29
36,42,30
37,41,30
37,41,31
36,41,31
36,41,29
35,41,29
37,41,31
37,41,31
36,41,29
37,42,30
36,41,31
36,41,31
35,41,31
35,42,30
36,42,29
34,42,30
36,42,31
36,42,31
35,42,31
36,42,30
35,42,31
34,42,30
36,42,31
34,42,30
33,42,30
34,42,31
34,42,31
35,42,31
34,42,31
35,42,31
35,42,31
35,42,31
35,42,31
35,42,31
34,42,31
34,42,31
35,42,30
34,42,30
34,42,31
33,42,31
34,42,30
36,42,31
36,41,31
34,42,30
36,42,31
35,41,30
34,42,30
38,42,29
36,41,32
32,41,32
30,41,32
35,41,34
36,41,33
37,41,33
35,41,33
34,41,33
33,41,32
36,41,32
34,41,32
35,41,32
35,41,33
35,41,33
33,41,32
35,41,32
35,41,33
34,41,32
34,41,32
34,41,32
34,41,31
35,42,28
38,42,29
32,40,35
31,40,37
29,40,36
29,40,35
36,40,36
38,41,34
36,40,35
39,38,36
33,39,37
30,39,35
34,39,34
39,39,34
38,39,34
36,39,35
35,40,33
38,40,33
36,40,32
34,40,31
37,41,31
37,40,33
35,40,33
35,41,33
35,40,33
34,40,33
35,41,32
35,41,32
35,40,33
36,40,34
29,41,33
35,41,32
36,42,31
35,41,32
33,41,33
34,40,33
32,40,33
35,40,34
38,40,35
33,38,36
34,40,34
31,40,34
36,40,33
39,40,33
33,41,32
34,40,33
39,41,31
35,41,30
34,41,29
36,41,32
35,40,32
36,40,32
34,41,33
35,40,31
36,41,32
35,40,32
36,40,32
36,41,32
36,41,32
34,40,32
34,41,32
37,41,32
34,41,31
34,41,32
36,41,33
34,40,32
34,41,32
36,41,33
34,40,33
35,41,32
35,41,32
34,41,32
35,41,32
35,41,32
35,41,32
35,41,32
35,41,32
35,41,32
35,41,33
35,41,32
35,41,32
34,41,32
35,41,32
35,41,33
35,40,33
35,41,32
35,41,32
35,41,32
35,40,32
35,41,32
35,41,32
35,41,32
35,41,33
35,41,32
35,41,32
36,41,32
35,41,32
35,41,33
35,41,32
35,41,32
35,41,32
35,40,32
35,41,32
35,41,32
35,41,32
35,41,32
35,41,32
35,41,32
35,40,33
35,40,32
34,41,33
34,40,32
34,41,32
35,41,31
38,40,33
37,40,32
36,40,32
35,41,32
35,40,32
35,40,33
34,40,33
34,40,32
35,40,32
35,41,32
35,41,32
35,40,32
35,40,33
35,40,33
35,40,33
35,41,32
35,40,32
35,41,33
35,40,32
35,41,32
35,40,32
35,41,33
35,40,33
35,41,32
35,41,32
34,41,32
35,41,32
35,41,33
35,41,33
35,41,32
35,41,33
35,41,32
35,41,32
35,40,33
35,41,33
35,41,32
35,41,32
35,41,33
35,41,32
35,40,33
35,41,33
35,40,32
35,41,33
35,41,32
35,41,33
35,40,32
35,41,32
35,40,32
35,41,32
35,41,32
35,41,32
35,40,33
35,41,32
35,41,32
35,41,32
35,41,32
35,41,32
35,40,33
35,41,32
35,41,32
36,41,33
35,41,33
35,41,32
35,41,33
34,41,32
35,41,32
35,41,33
35,41,33
35,41,32
35,41,33
35,40,32
35,41,33
35,40,32
35,41,33
35,41,33
35,41,32
35,41,32
33,41,33
34,41,32
35,41,32
35,41,33
34,40,33
34,41,33
34,41,33
35,41,33
34,41,33
34,41,33
34,41,33
33,41,33
36,41,34
35,41,33
33,41,33
33,41,34
34,40,34
34,41,33
33,40,33
34,41,34
33,41,33
34,41,33
34,41,34
34,41,33
34,41,33
34,41,34
34,41,34
34,41,33
34,40,34
33,40,34
33,41,34
34,41,34
34,40,33
34,41,34
34,40,34
34,41,34
34,41,33
34,41,33
34,41,34
34,40,34
34,40,34
34,41,34
34,41,34
33,40,34
34,41,33
34,41,33
34,41,33
34,41,34
34,41,34
34,41,34
34,41,34
33,41,34
33,41,33
34,41,34
34,41,34
34,41,34
34,40,34
34,41,33
34,41,33
34,41,34
34,41,33
34,40,34
34,41,34
34,40,33
34,41,34
33,41,34
33,41,33
33,41,33
34,41,34
33,40,34
34,41,33
34,41,34
34,41,34
34,41,34
33,41,34
33,41,34
33,41,34
34,41,34
34,41,34
34,41,34
34,40,34
34,41,34
33,41,33
33,41,33
34,41,34
34,40,33
33,41,33
33,41,34
34,41,34
34,40,34
34,41,34
34,41,33
34,41,34
34,41,34
34,41,33
34,41,34
34,41,34
34,41,33
33,40,34
34,41,33
34,41,33
34,41,34
34,41,34
34,40,34
33,41,34
33,41,33
34,41,34
34,40,33
34,41,33
34,41,33
34,41,34
34,41,34
33,41,33
34,41,34
34,40,33
33,41,34
34,41,34
33,41,33
33,41,33
34,41,33
34,41,34
33,41,34
33,40,34
33,41,34
33,41,34
34,41,33
34,41,34
34,41,33
34,41,34
34,41,34
33,41,34
34,41,34
33,41,33
34,40,34
34,41,34
34,41,34
32,41,33
33,41,33
34,41,34
34,41,34
34,41,33
33,41,33
34,40,34
34,41,34
34,41,33
33,41,33
33,41,34
33,41,34
34,41,34
34,41,34
34,41,33
34,40,34
34,41,33
33,41,34
33,41,34
34,41,34
34,41,33
34,40,34
33,41,34
34,41,33
34,41,34
34,41,34
33,41,33
34,41,34
34,40,34
34,41,34
34,40,34
34,41,34
33,41,34
33,41,33
34,41,34
34,41,34
34,41,34
34,41,34
34,40,34
34,41,33
35,41,34
30,40,34
36,41,34
36,41,34
33,40,33
34,41,34
35,41,34
33,40,34
34,41,34
33,41,34
34,40,34
34,41,33
34,41,33
34,40,34
34,41,34
33,41,34
34,41,34
34,40,34
34,41,34
34,41,34
34,41,33
34,41,34
34,40,34
34,40,34
34,40,34
34,41,34
34,41,34
34,40,34
33,40,34
34,41,34
34,41,34
33,40,33
34,40,34
34,41,34
34,41,33
34,40,33
34,41,34
34,41,34
34,40,33
34,41,33
34,41,33
34,40,34
34,41,34
34,41,34
34,41,33
34,40,33
34,40,34
34,41,34
33,40,34
34,41,34
34,40,34
34,40,34
34,41,34
34,41,34
34,41,34
33,40,34
34,40,34
34,40,34
34,41,34
34,41,34
34,41,34
34,40,34
33,40,34
34,41,34
34,40,34
34,41,34
34,40,34
34,41,34
33,41,34
34,41,34
33,40,34
34,40,34
34,41,34
34,41,34
34,40,34
33,40,34
33,41,33
36,41,33
33,41,34
33,41,34
33,40,34
34,41,34
35,41,34
33,40,34
32,40,35
32,41,33
35,41,34
34,41,33
34,40,34
32,40,34
34,41,34
35,41,34
34,40,34
34,41,33
34,41,34
34,41,33
34,41,34
33,41,33
33,40,34
34,40,34
35,41,33
33,41,33
33,41,33
34,41,33
35,41,33
33,41,33
33,40,33
35,40,34
33,41,32
35,42,32
34,40,33
33,41,34
33,41,34
34,41,33
35,41,33
35,41,33
33,40,34
35,41,34
37,41,33
33,40,34
31,40,34
33,41,34
35,41,34
33,41,34
33,41,34
34,40,34
34,40,34
34,40,34
34,40,33
35,40,34
34,41,34
34,40,34
33,40,34
33,40,34
33,41,34
33,41,33
35,41,34
34,41,33
34,40,34
33,41,34
34,40,34
34,40,34
35,40,34
34,40,34
34,40,34
35,40,34
34,40,33
33,40,34
33,40,35
34,40,34
34,40,34
34,40,34
34,40,34
35,40,34
34,40,33
34,40,34
34,40,34
34,41,34
32,40,35
33,40,34
35,40,34
34,40,34
31,40,34
33,40,36
34,40,35
34,40,35
34,40,34
34,40,34
33,40,35
33,40,36
34,40,33
34,40,34
34,40,34
35,40,34
34,39,36
32,40,34
35,40,34
35,40,34
33,40,34
34,40,34
34,40,34
34,40,34
34,40,34
34,40,34
34,40,34
34,40,34
34,40,34
34,40,34
34,40,34
34,40,35
34,40,34
34,40,34
34,40,35
34,40,34
34,40,34
34,40,34
34,40,34
34,40,34
34,40,34
34,40,34
33,40,34
33,40,34
34,40,34
34,40,34
34,40,34
34,40,34
34,40,34
34,40,34
34,40,34
34,40,34
34,40,34
33,40,34
34,40,34
34,40,34
34,40,34
34,40,34
34,40,34
34,40,34
34,40,34
34,40,34
34,40,34
34,40,34
34,40,34
33,40,34
33,40,33
34,40,34
33,40,34
34,40,34
34,40,34
34,40,34
35,40,34
33,40,34
34,40,34
34,40,35
34,41,33
34,40,34
33,40,34
33,40,34
34,40,34
34,40,34
34,40,34
34,40,34
34,40,34
33,40,34
34,40,34
34,40,34
34,41,34
33,40,34
34,40,34
34,40,34
34,40,34
33,40,34
33,40,34
34,40,34
34,40,34
34,40,34
34,40,34
33,40,34
34,40,34
33,40,34
33,40,34
34,40,34
33,40,34
33,40,34
33,40,34
34,40,34
34,40,34
34,40,34
34,40,34
34,40,34
33,40,34
33,40,34
34,40,34
34,40,35
33,40,34
34,40,34
34,40,34
34,40,34
34,40,34
34,40,34
34,40,34
34,40,34
33,40,34
34,40,34
34,40,34
34,40,34
34,40,34
34,40,34
33,40,34
34,40,34
34,40,34
34,40,34
34,40,34
34,40,34
34,40,34
34,40,35
34,40,34
33,40,34
34,40,34
34,40,34
34,40,34
34,40,34
34,40,34
34,40,34
33,40,34
33,40,34
33,40,34
34,40,34
34,40,34
34,40,34
34,40,34
33,40,34
34,40,34
33,40,34
34,40,34
34,40,34
34,40,34
33,40,34
34,40,35
34,40,34
34,40,35
34,40,34
34,40,35
33,40,35
33,40,34
34,40,34
34,40,34
34,40,34
34,40,35
34,40,35
34,40,35
34,40,35
34,40,34
33,40,34
33,40,34
34,40,34
34,40,34
34,40,34
34,40,34
34,40,35
33,40,34
34,40,34
33,40,34
34,40,35
33,40,34
33,40,34
34,40,35
34,40,35
34,40,35
33,40,34
34,40,35
34,40,34
34,40,34
33,40,34
33,40,34
34,40,35
34,40,35
34,40,34
34,40,34
34,40,34
34,40,35
34,40,34
34,40,35
34,40,35
34,40,34
34,40,35
34,40,34
34,40,34
34,40,34
34,40,34
33,40,35
34,40,35
35,40,35
35,40,33
34,40,34
33,40,34
34,40,34
34,40,34
34,40,34
34,40,34
34,40,34
35,40,34
34,40,34
34,40,34
34,40,34
34,40,34
34,40,34
34,40,34
35,40,34
34,39,34
34,40,34
35,40,35
34,40,34
33,40,33
35,40,35
34,40,35
34,39,35
34,40,34
33,40,34
35,40,35
34,40,34
34,40,34
34,40,35
34,40,34
34,40,34
34,39,34
34,40,34
34,40,34
35,40,35
34,40,34
33,40,35
34,40,35
34,40,34
34,40,33
36,40,35
34,39,35
35,39,35
34,40,34
34,40,34
34,40,35
35,40,34
34,40,35
32,40,35
33,40,35
35,40,34
35,40,34
34,40,34
35,40,34
35,40,36
36,39,36
32,39,35
32,39,35
33,40,35
34,40,35
34,40,35
34,40,35
33,40,36
33,40,34
33,40,35
34,40,34
33,40,35
33,40,35
33,40,35
34,40,35
34,40,35
33,40,34
33,40,35
33,40,35
34,40,35
33,40,35
33,40,35
33,40,36
33,40,35
33,40,34
33,40,35
33,40,35
33,40,35
33,40,35
34,40,35
34,40,35
34,40,35
33,40,35
34,40,35
33,40,35
32,40,35
34,40,35
33,40,35
34,40,35
34,40,35
33,40,35
33,40,35
34,40,35
33,40,35
33,40,35
33,40,35
33,40,35
33,40,35
33,40,35
33,40,35
33,40,35
34,40,35
33,40,35
34,40,35
33,40,35
33,40,34
34,40,35
33,40,35
33,40,35
34,40,35
34,40,35
33,40,35
34,40,35
33,40,34
33,40,35
33,40,35
33,40,35
33,40,35
33,40,35
33,40,35
33,40,35
33,40,35
34,40,35
33,40,35
33,40,35
33,40,35
34,40,35
33,40,35
33,40,35
33,40,35
33,40,35
33,40,35
33,40,35
33,40,35
33,40,35
33,40,35
33,40,35
33,40,35
33,40,35
33,40,35
33,40,35
33,40,35
34,40,36
33,40,37
34,39,34
35,40,34
34,40,35
33,40,35
33,40,35
35,40,35
33,40,34
33,40,36
33,40,36
33,40,36
33,40,34
33,40,34
33,40,35
33,40,36
33,40,35
33,40,35
33,40,36
33,40,35
33,40,35
32,40,35
33,40,35
33,40,35
33,40,35
32,40,35
33,40,36
33,40,35
32,40,35
32,40,36
33,40,36
33,40,35
33,40,35
33,40,36
32,40,35
33,40,35
33,40,35
33,40,35
33,40,36
33,40,36
33,40,35
33,40,36
33,40,36
33,40,35
33,40,36
33,40,35
33,40,36
33,40,35
32,40,36
33,40,35
33,40,35
33,40,35
33,40,36
33,40,35
33,40,36
32,40,35
33,40,36
32,40,35
33,40,36
33,40,36
33,40,36
33,40,36
33,40,35
33,40,35
33,40,35
32,40,35
32,40,35
33,40,36
33,40,36
33,40,35
33,40,35
33,40,36
33,40,36
32,40,35
33,40,36
33,40,35
32,40,36
33,40,36
33,40,35
33,41,36
39,42,33
39,40,32
24,40,33
29,38,40
32,38,39
35,38,39
35,39,39
33,38,37
33,40,32
34,39,38
33,39,35
33,40,36
33,39,37
33,39,35
36,40,36
33,39,36
34,39,36
36,39,36
33,39,36
32,39,34
35,40,34
33,39,35
33,39,35
34,39,35
34,39,34
34,39,35
35,39,35
35,39,35
33,39,35
34,39,36
34,39,37
35,38,36
35,39,35
33,39,35
33,39,35
33,38,37
35,39,38
34,38,37
32,38,36
34,38,36
36,39,37
32,39,36
32,39,35
34,39,35
34,40,34
34,39,34
34,40,35
33,39,35
33,40,35
34,39,35
34,39,36
34,39,36
34,39,35
34,40,35
33,39,35
33,40,34
35,39,35
35,40,35
34,39,35
34,39,36
34,39,36
34,39,36
33,40,35
34,40,35
34,39,38
34,39,36
32,39,33
34,40,35
32,39,36
33,39,36
33,39,36
33,39,36
32,39,36
33,39,36
33,39,35
33,39,36
33,39,36
33,39,36
33,39,36
33,39,36
35,39,39
35,39,39
31,39,37
33,40,35
33,40,35
32,40,35
32,40,37
31,39,36
32,40,33
29,40,34
29,40,35
36,39,39
34,38,39
33,38,38
32,39,37
33,40,37
32,39,36
32,40,36
33,40,36
33,39,36
33,39,37
33,39,36
33,39,37
32,39,37
33,39,37
32,39,37
32,39,37
32,39,37
33,40,37
32,39,36
31,40,36
35,39,37
34,39,37
30,39,37
31,39,37
33,39,37
32,39,37
31,39,37
32,39,36
33,39,37
32,39,37
32,39,37
33,39,37
32,39,37
32,39,37
32,39,37
33,39,37
32,40,36
32,39,36
33,39,36
32,39,36
33,39,37
33,39,37
32,39,36
33,39,36
32,39,37
33,39,36
33,40,37
33,39,37
32,40,36
33,39,36
33,39,37
32,39,36
33,39,37
32,39,37
33,39,37
33,39,37
32,40,36
33,39,37
32,39,37
32,39,37
33,39,36
33,39,36
33,39,37
32,39,37
33,39,37
33,39,37
33,39,37
32,39,37
33,39,37
32,39,37
32,39,37
32,39,37
33,39,37
32,39,37
33,39,37
33,39,36
32,39,37
33,39,37
33,39,37
33,39,37
32,39,36
32,39,36
33,40,37
32,39,36
33,39,37
32,39,36
33,39,36
33,39,36
33,39,36
33,40,37
33,39,37
32,41,34
35,40,33
51,38,32
46,45,33
34,48,31
36,50,32
22,50,27
23,50,27
28,48,32
24,44,35
28,41,32
32,40,36
19,41,33
14,50,34
20,53,41
24,40,35
22,43,25
21,45,30
26,44,45
18,48,32
23,51,32
17,52,37
23,50,33
18,51,31
18,49,27
24,48,31
20,47,29
23,46,27
36,43,39
42,44,44
35,44,36
43,43,32
35,45,27
33,44,24
37,42,35
35,41,38
34,43,33
34,43,33
33,43,35
32,43,36
32,42,35
34,44,36
30,44,32
31,44,33
29,44,35
26,46,32
26,46,31
25,47,31
26,46,32
23,45,30
26,48,31
29,46,34
23,47,33
29,47,28
33,47,30
34,50,29
32,46,29
34,43,33
33,44,33
30,44,28
32,45,32
30,46,30
30,45,31
31,45,30
33,47,29
36,45,30
35,45,31
35,45,30
36,45,29
35,46,27
31,49,20
31,47,20
38,45,29
36,47,25
34,47,22
34,47,14
34,48,13
36,46,17
40,46,16
43,45,18
46,46,18
42,45,16
39,45,13
44,46,10
44,47,6
43,48,5
42,47,7
42,47,9
42,46,10
40,46,11
40,47,10
41,47,10
40,47,10
38,47,9
39,47,9
42,47,10
41,47,9
40,47,9
38,47,11
40,47,12
40,47,13
39,47,13
38,47,13
39,47,12
39,47,13
39,47,13
40,47,13
40,47,13
41,47,12
40,47,13
40,47,13
40,47,13
40,47,12
40,47,12
40,47,13
39,47,13
40,47,13
39,47,13
40,47,12
39,47,12
39,47,12
40,47,12
40,47,12
40,47,13
40,47,12
40,47,12
39,47,13
39,47,12
39,47,13
39,47,13
40,47,13
39,47,12
39,47,12
40,47,12
40,47,13
40,47,13
39,47,12
38,47,13
38,47,13
39,47,13
39,47,13
39,47,13
39,47,13
40,47,13
40,47,13
39,47,13
39,47,13
39,47,13
39,47,13
39,47,13
39,47,13
40,48,13
39,47,12
39,47,13
40,47,13
39,47,13
39,47,13
39,47,13
39,47,13
39,47,13
39,47,13
39,47,13
39,48,13
39,48,13
39,47,13
39,47,13
39,47,13
39,47,13
39,47,13
39,47,13
39,47,13
39,47,13
39,47,13
39,47,13
39,47,13
39,48,13
39,48,13
39,47,13
39,47,13
39,47,13
39,47,13
39,47,13
39,47,13
39,47,13
39,47,13
39,47,13
39,47,13
39,47,13
39,47,13
39,47,13
39,48,12
39,48,13
39,47,13
39,47,13
39,47,13
39,47,13
39,47,13
39,47,13
39,47,13
39,47,13
39,47,13
39,47,13
39,47,13
39,47,13
39,47,13
39,47,13
40,47,13
39,47,14
39,47,14
39,47,13
39,47,13
39,47,13
39,47,14
39,47,13
39,47,13
39,47,13
39,47,13
39,47,13
39,47,13
39,47,13
39,47,13
39,47,13
39,47,13
39,47,13
39,47,13
39,47,13
39,47,13
39,47,14
39,47,13
39,48,13
39,47,13
39,47,14
39,47,14
39,47,13
39,47,13
38,47,14
39,47,13
40,47,13
38,47,13
39,48,13
40,47,13
39,47,13
39,47,14
41,48,12
40,48,13
40,47,14
39,47,13
39,47,13
40,47,14
39,48,13
38,47,13
42,47,13
39,46,13
39,47,13
39,47,14
39,47,13
39,47,13
39,47,13
40,47,14
40,47,14
39,47,14
39,47,13
39,47,13
39,47,14
39,47,14
39,47,14
39,47,14
39,47,13
38,47,14
39,47,13
41,47,12
39,47,13
45,47,13
36,47,12
36,46,14
41,47,14
40,47,13
39,47,14
39,47,13
40,47,14
42,47,12
39,47,12
40,48,13
40,48,14
40,47,13
39,47,13
40,47,13
39,47,13
40,47,13
40,47,13
39,47,13
39,47,13
40,47,13
39,47,13
38,48,13
38,47,12
43,48,13
38,47,13
40,47,14
40,47,13
40,47,12
40,47,13
39,47,14
39,47,14
39,47,13
41,47,13
42,47,13
39,47,12
40,47,13
40,47,14
39,47,13
39,47,13
39,47,13
39,47,13
39,47,13
41,47,12
40,47,12
40,47,14
40,47,14
39,47,13
39,47,13
39,47,13
40,48,12
40,46,13
41,47,13
39,47,13
40,47,13
40,47,14
39,47,12
39,47,13
40,47,13
40,47,13
39,47,13
40,47,13
41,47,14
39,47,13
38,47,14
41,47,13
40,47,13
38,47,14
38,46,15
39,47,15
38,47,14
39,47,14
38,47,14
38,48,13
39,46,14
40,48,13
37,47,13
40,47,14
40,47,14
40,47,14
39,47,14
39,47,14
40,47,14
39,47,13
39,47,13
39,47,13
39,47,14
39,47,13
40,47,14
39,47,13
39,47,13
40,47,14
39,47,14
39,47,14
39,47,14
39,47,14
39,47,13
40,47,13
40,47,14
39,47,14
39,47,14
40,47,13
39,47,14
39,47,14
40,47,13
39,47,14
40,47,13
39,47,13
39,47,13
40,47,13
39,47,14
39,47,13
39,47,13
40,47,13
40,47,13
39,47,13
39,47,13
39,47,13
39,47,14
39,47,13
40,47,13
41,47,13
38,47,13
43,47,12
41,47,12
38,47,14
37,48,15
39,46,14
42,47,12
41,47,13
38,47,14
40,47,13
40,47,13
39,47,13
40,47,13
40,47,13
39,47,14
40,48,14
37,47,13
41,47,14
37,47,14
36,46,15
42,47,14
37,47,13
38,47,13
42,47,14
39,47,14
39,47,14
39,47,13
39,47,13
40,47,14
39,47,13
39,47,13
40,47,13
39,47,13
39,47,13
39,47,13
39,47,13
39,48,13
39,47,13
39,48,13
40,47,13
39,47,13
39,47,13
39,47,13
39,47,13
39,47,13
39,47,13
40,47,13
40,47,13
39,47,13
39,47,13
39,47,13
39,47,13
40,47,13
40,47,13
39,47,13
39,47,13
39,47,13
39,47,13
39,47,13
40,47,13
39,47,13
39,47,13
39,47,13
39,47,13
39,47,13
39,47,13
39,47,13
39,47,13
39,47,13
39,47,13
39,47,13
39,47,13
39,47,13
39,47,13
39,47,13
39,47,13
39,47,13
39,47,13
39,47,13
39,47,13
39,47,13
39,47,13
39,47,13
39,47,13
39,47,13
39,47,13
39,47,13
39,47,13
39,47,12
39,47,13
39,47,13
39,48,12
39,47,12
39,47,13
39,47,13
39,47,13
40,47,13
39,47,13
39,47,13
40,47,13
39,47,12
39,47,13
39,47,13
40,47,13
39,47,13
39,47,13
39,47,13
39,47,13
40,47,13
39,47,13
40,47,13
39,47,13
40,47,13
39,47,13
39,47,13
40,47,13
40,47,13
39,47,13
40,47,12
40,47,12
39,47,12
40,47,13
39,47,13
39,47,13
39,47,12
39,47,12
40,47,13
40,47,12
39,47,13
39,47,13
39,47,13
39,47,13
40,47,13
39,47,13
39,47,13
39,47,12
40,47,13
40,47,13
39,47,13
40,47,12
39,47,16
40,48,11
39,47,12
39,47,11
39,47,15
40,47,14
41,47,13
39,48,10
40,47,13
39,47,14
39,47,13
39,47,13
40,47,13
39,48,12
39,47,12
39,47,13
39,47,13
40,47,14
39,48,12
40,47,13
40,47,12
41,48,11
41,46,13
40,47,13
39,48,11
40,47,13
40,47,12
41,46,13
39,47,13
39,47,12
38,48,12
40,45,20
43,46,15
38,48,11
42,46,15
40,48,13
39,46,15
41,47,16
41,47,18
41,47,17
41,47,12
40,47,12
45,47,18
44,46,23
45,45,23
34,46,15
29,48,13
39,48,13
28,50,3
38,51,4
37,49,7
31,49,3
34,48,0
37,50,-2
40,49,1
41,51,-7
46,50,-8
46,48,-1
45,47,3
46,47,4
36,48,3
36,48,1
39,49,1
44,48,1
43,48,-2
43,47,-1
41,47,0
44,48,-1
42,48,-4
40,48,-3
40,48,-2
41,47,-1
43,47,-4
43,48,-4
43,47,-3
41,47,-3
41,47,-4
39,48,-4
39,48,-2
39,48,-1
41,47,0
43,47,1
43,47,1
43,47,1
43,47,1
43,47,1
42,48,1
59,48,0
62,39,-1
54,39,1
48,33,6
43,30,7
37,37,-1
27,36,-7
26,32,-8
38,33,-19
28,29,-17
30,31,-20
47,34,-20
50,29,-27
52,33,-28
52,33,-38
67,37,-32
54,32,-32
56,30,-40
50,27,-34
47,22,-40
56,25,-37
49,22,-31
45,21,-31
53,21,-33
55,19,-31
56,17,-30
59,18,-33
60,16,-35
59,15,-31
57,14,-29
57,12,-30
58,10,-25
60,10,-24
59,6,-28
51,6,-27
58,10,-27
53,9,-23
55,11,-21
54,13,-21
61,16,-10
62,13,-13
60,9,-23
61,11,-15
58,11,-18
59,8,-26
61,9,-22
54,9,-23
57,8,-23
61,8,-25
59,7,-23
62,4,-21
59,8,-20
56,3,-29
60,5,-26
60,5,-24
59,6,-21
58,6,-20
59,6,-16
57,7,-14
61,7,-13
60,8,-9
60,9,-4
65,12,0
73,13,3
58,10,4
61,13,9
65,12,13
58,11,16
55,13,14
64,10,19
56,14,21
51,14,27
51,14,27
41,17,27
48,14,34
52,8,36
49,13,41
39,16,42
42,18,43
48,17,43
44,17,42
42,18,42
42,18,47
38,18,49
31,18,45
31,18,46
38,17,48
36,18,48
31,21,46
34,20,49
33,19,50
37,19,51
32,18,51
31,17,54
29,15,54
23,17,51
26,18,52
28,20,52
25,22,50
26,21,51
27,20,50
25,22,55
22,22,54
17,25,51
22,24,51
24,24,55
23,22,53
25,22,51
28,24,54
30,22,56
26,23,56
26,24,55
23,21,51
25,21,52
25,20,52
29,17,51
27,16,52
26,18,53
32,16,56
26,17,55
20,16,56
22,18,54
23,20,53
21,23,52
24,23,51
26,24,52
30,25,52
33,21,49
32,24,54
23,20,54
27,20,56
33,21,56
38,21,59
45,20,53
36,21,56
1,23,52
11,28,52
11,28,50
12,28,49
15,30,45
18,31,45
28,32,48
30,30,47
34,29,48
27,25,54
17,26,53
21,23,61
18,25,66
-3,26,47
-1,25,45
16,28,50
28,31,53
24,32,54
22,32,50
20,34,44
24,33,43
23,30,50
13,33,57
14,34,60
17,34,63
17,35,54
20,36,56
23,36,55
20,42,52
18,37,49
22,21,45
46,15,44
54,8,42
46,-4,42
34,1,41
35,0,43
42,-10,43
41,-21,33
49,-23,31
63,3,31
50,18,60
54,22,53
50,11,50
38,10,69
18,13,46
5,10,63
1,5,62
19,6,60
37,8,73
31,8,59
25,9,55
12,7,48
12,8,51
25,10,44
56,10,57
53,10,45
43,16,28
63,16,32
50,14,23
61,10,29
71,9,26
53,11,20
64,13,19
70,10,31
60,9,25
39,11,28
43,10,37
43,13,33
55,13,37
52,11,31
49,13,32
50,12,30
51,13,31
57,12,32
51,14,31
53,11,27
58,11,35
55,10,35
50,12,31
50,12,30
51,12,33
48,12,34
48,12,36
49,12,35
52,12,34
53,11,35
51,10,34
50,11,37
49,12,35
52,11,37
47,12,37
47,11,38
44,12,37
47,12,37
52,13,38
50,15,25
44,9,40
47,12,40
46,13,37
49,11,40
48,10,39
50,12,39
48,12,37
47,13,40
47,11,45
39,11,43
35,14,44
40,13,43
40,11,45
37,12,50
34,11,50
34,11,50
36,10,50
36,12,52
34,11,51
34,13,49
34,12,49
34,13,49
33,11,50
34,11,52
33,10,53
36,12,51
36,12,48
35,12,49
37,11,51
30,12,48
36,12,52
38,11,51
30,12,49
29,14,49
36,10,45
46,11,48
45,10,46
41,9,47
43,11,46
41,9,49
33,3,68
45,18,49
74,12,60
23,17,29
44,7,45
53,9,46
52,10,36
56,7,43
50,5,41
41,12,46
45,8,43
41,11,35
48,10,39
47,11,35
51,11,36
48,9,41
48,11,37
49,11,35
46,9,41
46,12,39
43,9,40
50,14,36
48,7,42
49,10,41
46,11,40
46,7,47
42,12,44
38,9,45
40,13,41
43,12,40
42,10,49
30,8,51
31,8,51
33,12,45
39,11,47
45,9,41
44,11,46
43,9,43
41,10,46
36,7,50
39,6,50
39,5,53
30,1,50
38,4,53
45,5,53
38,9,54
34,9,52
20,12,49
29,9,52
29,7,54
24,7,56
17,7,55
19,8,54
28,8,54
33,7,58
31,3,63
17,2,58
25,7,61
22,0,57
26,6,52
30,12,47
33,13,44
50,17,37
48,14,32
44,14,39
70,7,53
36,15,24
40,12,33
61,0,64
38,8,60
29,11,56
55,12,47
54,15,43
34,20,45
19,24,50
10,27,58
5,31,61
11,28,59
15,27,53
13,28,45
10,32,44
9,27,42
5,28,37
-2,8,36
47,-11,57
63,-13,76
23,-17,51
42,-17,79
56,-5,78
7,-8,53
34,6,64
14,10,60
-12,0,49
10,-1,51
-5,4,59
-8,-9,55
-9,-14,63
0,-20,54
37,-32,67
23,-13,62
8,8,49
15,-5,70
-3,0,70
-14,2,62
13,-8,66
25,-8,68
8,-10,62
54,-13,49
74,-11,55
56,-19,55
43,-22,52
37,-17,54
49,4,55
33,5,41
40,8,46
33,2,36
13,5,29
27,14,46
23,26,42
6,35,45
1,36,46
-11,34,59
-19,17,75
26,9,76
29,-1,60
-27,-9,58
-20,-16,71
22,1,80
36,0,58
33,5,51
35,17,41
52,17,41
64,20,40
37,15,32
45,11,31
62,8,27
59,3,30
52,3,32
63,1,39
46,-9,52
33,4,34
36,11,33
54,5,38
61,5,48
41,6,38
40,3,45
30,4,54
22,3,51
45,6,58
41,12,47
34,9,51
14,6,58
27,6,49
28,7,49
19,4,53
15,3,63
10,3,65
23,0,57
27,2,63
18,3,63
15,5,55
28,5,56
27,3,61
17,3,55
23,3,56
30,3,55
29,5,59
25,5,57
27,3,55
29,5,55
24,5,54
27,6,56
24,5,60
25,-1,61
29,5,66
21,-3,66
24,3,65
18,7,58
16,7,57
15,10,57
23,8,56
22,13,56
20,14,54
24,15,59
26,16,56
22,18,54
21,23,54
26,23,53
25,25,51
31,20,50
10,15,54
15,14,42
20,5,57
17,0,60
35,0,55
15,-4,59
18,-6,59
28,-8,59
23,-9,66
15,-6,62
19,-5,58
28,-4,65
19,1,59
19,1,56
33,3,59
17,-1,59
13,0,54
24,-6,61
20,-10,58
15,-12,63
8,-10,52
17,-8,57
18,-9,69
6,-7,54
26,-6,62
28,-4,56
22,-8,53
25,-2,53
27,-3,52
28,-5,54
23,-6,53
21,-5,52
26,-11,55
24,-14,57
22,-17,49
33,-13,51
34,-11,48
31,-13,48
33,-16,67
30,-12,51
30,-12,43
48,-5,53
47,-7,52
38,-1,41
54,-3,48
49,-7,53
41,3,45
41,-3,52
30,-3,50
24,1,46
42,-3,47
48,0,44
61,3,49
48,2,48
45,-1,42
51,-1,42
45,-1,42
42,0,43
46,3,51
43,-1,46
43,0,43
40,-3,48
42,-1,42
47,0,40
45,-2,40
38,-1,42
41,-2,43
47,-2,43
43,-1,45
43,-1,45
43,0,45
45,-1,44
45,0,44
43,0,44
44,-1,45
43,0,46
43,0,45
45,-1,44
44,0,44
41,0,44
44,0,45
45,0,45
43,0,44
43,0,44
44,0,44
42,0,44
44,0,44
45,0,45
41,0,44
44,0,44
43,0,44
42,0,44
45,0,45
45,0,44
43,0,44
42,0,44
44,0,44
42,0,44
43,0,44
44,0,44
42,0,44
42,0,44
45,0,44
43,1,45
42,1,45
45,0,44
44,0,44
43,0,44
44,0,43
43,0,44
43,0,44
44,1,45
43,1,44
44,1,45
44,0,44
44,1,45
43,0,44
43,0,44
44,1,45
43,0,45
43,0,43
44,1,44
43,0,45
43,1,44
44,1,44
44,1,45
43,1,44
44,0,45
43,0,44
43,0,44
43,1,45
44,0,45
43,0,44
44,1,44
45,1,44
43,0,44
44,0,44
44,0,44
45,1,45
43,1,46
44,0,46
43,0,43
41,2,44
41,0,45
40,-2,42
45,2,46
47,2,47
43,0,45
44,1,44
43,0,44
43,0,44
43,0,45
43,1,45
43,-1,46
42,0,43
42,-2,43
43,0,45
43,-1,45
43,-1,44
46,-3,44
41,-1,47
38,-2,46
39,-2,49
43,-3,52
43,-9,57
45,-9,60
45,-11,58
43,-11,59
43,-12,59
43,-11,55
43,-7,48
48,-6,44
32,0,40
67,8,49
43,11,30
27,22,26
43,26,28
38,46,22
36,50,16
44,60,1
24,54,2
21,53,5
24,54,17
13,34,29
13,36,27
15,40,35
10,31,35
8,36,32
3,45,29
-13,47,20
-13,48,16
3,54,37
31,62,54
29,63,59
-14,69,17
17,70,16
24,70,21
28,66,28
19,50,12
11,51,14
19,58,27
26,55,26
25,53,26
25,55,32
19,48,38
15,51,37
-5,56,27
-2,56,20
-8,60,23
-14,56,21
8,60,27
0,60,33
-5,49,33
18,56,28
22,61,30
-11,49,33
-47,53,13
-36,52,18
-11,58,28
-13,54,29
-18,56,24
-20,53,33
-21,52,32
-16,50,35
-8,50,38
-6,55,32
-14,56,26
-22,53,28
-21,55,25
-25,55,22
-11,52,40
-13,52,40
-26,55,21
-14,55,35
-17,51,35
-16,49,38
-8,54,30
3,54,32
6,53,40
-6,55,25
0,55,27
-5,55,34
-25,54,21
-18,55,27
-10,58,30
-18,53,31
-16,53,31
-12,54,32
-12,54,30
-8,54,31
-1,54,36
-11,53,33
-7,53,34
-4,54,36
-7,54,32
-5,55,31
0,54,34
-5,55,30
-5,54,30
-2,55,33
3,54,35
7,54,33
6,56,33
3,55,30
4,56,29
5,54,32
4,55,32
1,55,30
6,56,30
10,54,33
11,54,34
15,56,28
14,55,27
15,54,32
19,55,29
14,57,30
1,57,30
-9,52,27
16,56,37
11,56,33
5,54,28
11,57,30
6,56,29
4,55,29
6,56,28
8,53,31
11,54,32
9,53,30
12,51,30
14,55,35
22,49,24
18,47,37
18,55,26
21,53,24
24,53,20
29,54,23
28,52,19
32,54,16
37,54,14
36,57,14
29,55,12
28,52,18
35,51,24
34,49,30
26,50,30
24,47,32
28,48,33
29,49,33
24,49,29
25,49,29
25,49,30
23,49,30
26,50,28
28,50,29
28,49,30
25,50,29
23,51,27
24,50,27
27,50,29
26,50,27
26,51,25
27,51,29
26,49,30
26,50,30
23,50,28
22,50,30
24,50,28
26,51,30
23,50,27
24,51,28
24,51,28
26,51,28
25,51,28
24,51,28
24,51,29
25,51,29
24,51,30
22,50,29
23,51,27
26,53,29
20,50,29
22,50,28
25,51,32
23,50,28
26,51,28
23,51,26
25,51,28
26,51,28
26,51,28
24,52,26
23,52,27
22,50,31
22,50,32
23,51,30
23,51,26
24,52,21
28,52,30
20,49,30
22,49,29
27,50,30
25,51,29
26,51,29
24,50,28
23,51,28
23,51,29
23,51,29
25,51,28
25,51,28
24,51,27
25,51,29
24,51,28
23,51,28
26,51,29
26,50,30
23,50,28
25,52,28
24,52,28
23,51,27
25,52,28
24,51,28
23,51,28
25,51,28
24,51,29
23,51,28
24,51,29
24,51,29
25,51,28
27,51,28
26,51,29
26,51,29
24,51,29
23,52,29
21,52,28
21,53,27
21,53,27
20,54,26
21,54,27
20,54,27
19,53,28
20,54,28
18,54,27
17,55,27
16,55,25
17,55,26
16,55,26
15,56,25
15,56,24
14,56,24
13,57,24
13,57,23
13,57,23
13,58,23
13,58,23
13,58,23
12,57,22
12,58,22
13,58,22
13,58,22
12,58,22
13,58,23
13,57,23
14,58,23
15,57,24
15,57,24
12,57,23
13,57,24
13,58,23
13,57,24
11,58,22
12,58,22
15,57,23
14,57,24
14,57,24
14,57,24
13,57,23
13,57,24
13,58,23
13,57,23
13,58,22
13,57,23
12,57,23
12,56,23
12,57,24
12,57,22
12,58,22
17,56,23
19,56,24
20,55,24
18,55,23
19,55,25
22,54,25
23,54,28
21,52,29
23,52,30
22,54,29
19,53,28
21,53,29
21,52,29
19,53,30
19,52,31
15,53,28
14,53,27
16,53,27
18,53,28
19,52,28
22,52,26
24,51,31
28,52,31
24,52,27
10,53,23
2,51,28
3,48,30
3,43,38
-5,34,36
-3,30,39
15,26,45
21,26,53
20,22,53
32,15,65
34,13,66
22,13,68
30,7,72
28,8,66
19,13,58
19,14,57
19,14,57
21,12,58
22,11,62
17,11,58
11,10,54
10,20,62
22,5,77
26,4,65
24,7,53
29,9,61
21,12,55
12,6,51
14,6,57
17,13,54
36,15,59
27,19,55
27,18,54
30,12,62
20,8,60
27,4,59
19,13,58
18,11,55
21,9,59
20,6,59
21,11,64
5,7,58
14,4,61
13,7,60
15,7,57
23,4,61
23,3,60
20,6,59
22,6,59
21,5,59
21,5,60
20,8,58
19,6,59
23,4,58
26,6,59
24,4,59
20,5,59
18,5,59
18,6,59
17,5,59
15,5,60
19,4,59
14,8,58
29,2,60
27,4,60
26,5,57
20,7,58
24,4,59
17,4,58
17,4,58
24,5,59
22,5,58
22,4,59
23,6,58
21,5,58
21,4,59
19,5,58
21,4,59
22,4,58
22,5,59
21,4,59
23,6,57
22,3,59
21,4,59
21,4,59
19,5,59
20,6,58
25,5,58
27,8,58
23,5,59
25,1,57
24,1,62
15,7,58
15,6,58
18,8,57
19,6,59
20,4,60
18,5,59
17,5,57
15,5,58
20,3,57
31,6,52
29,3,49
44,7,52
52,5,45
45,7,42
55,5,46
43,9,29
48,11,45
49,2,42
48,6,43
38,6,39
43,7,41
49,5,46
38,4,41
47,6,42
43,7,42
42,6,39
46,7,41
47,6,42
46,5,40
49,6,39
51,6,37
49,8,38
49,5,38
50,7,37
50,6,38
48,6,38
48,6,37
50,7,37
48,6,38
49,6,37
50,6,37
49,5,38
49,6,36
51,7,37
47,5,39
47,6,38
49,6,40
46,4,34
48,6,36
51,6,38
49,5,38
50,5,37
48,6,37
50,6,37
50,5,37
48,6,37
50,6,37
50,5,38
49,6,37
50,5,37
50,6,37
50,6,37
49,6,37
50,6,37
50,5,37
50,5,37
51,5,37
49,6,36
50,6,37
50,5,37
49,6,36
50,5,37
50,5,37
49,5,36
50,6,37
50,5,37
49,5,36
50,6,37
50,6,37
48,4,37
50,5,36
50,6,36
49,4,38
48,5,36
50,6,37
52,3,36
52,5,38
54,4,38
45,4,36
49,8,34
50,7,34
49,8,35
48,6,32
49,7,31
55,7,33
49,6,28
55,6,30
57,5,32
56,4,28
57,5,28
55,6,26
58,6,27
59,7,30
50,5,28
52,7,31
54,5,33
47,6,26
53,9,28
57,3,36
51,2,35
51,4,33
52,5,32
52,6,29
56,5,30
57,6,30
55,5,28
55,4,32
54,3,35
50,4,32
51,5,32
52,5,29
52,7,28
53,7,30
53,6,30
55,4,30
57,4,33
52,5,30
52,6,30
53,6,30
54,5,32
51,5,32
54,5,32
54,5,32
54,5,31
54,4,32
52,5,32
53,5,32
53,5,32
52,4,33
52,5,33
53,4,33
52,4,34
52,5,34
53,5,35
53,5,35
50,5,35
51,5,36
47,4,38
48,5,39
48,5,39
47,5,39
46,5,40
47,4,40
48,4,39
47,4,40
47,4,40
47,4,40
47,5,39
48,4,40
47,5,40
47,4,40
48,4,40
47,4,40
47,4,40
47,4,40
48,4,40
48,3,40
48,4,40
47,4,40
47,4,40
47,4,40
48,4,40
47,4,40
47,4,40
47,4,40
47,4,40
47,4,40
47,4,40
47,4,40
47,4,40
47,4,40
47,4,40
47,4,40
47,4,40
47,4,40
47,4,40
47,4,41
47,4,41
47,4,40
47,4,40
47,4,41
47,4,40
47,4,40
47,4,41
47,4,41
47,4,40
47,4,41
47,4,40
47,4,40
47,4,40
47,4,41
47,4,41
47,4,41
47,4,41
47,4,41
47,4,41
46,4,41
46,4,41
47,5,41
48,5,41
48,1,42
44,2,42
46,3,42
42,5,42
44,5,42
47,4,41
46,4,41
47,4,42
47,3,42
50,4,45
49,4,45
50,4,47
41,6,44
34,7,44
25,9,49
24,11,55
23,4,57
26,3,58
29,6,56
26,7,56
28,6,55
24,10,56
21,10,55
23,17,69
22,12,65
19,4,57
42,2,50
44,1,45
34,2,39
34,0,42
36,-1,47
41,2,51
39,2,49
45,0,55
50,3,70
43,7,65
18,19,59
25,29,54
23,32,41
22,30,35
53,28,48
31,21,32
17,12,27
46,-6,41
37,-11,36
42,-16,43
52,-11,49
42,-10,51
39,-10,53
29,-6,52
33,-4,48
38,-6,47
33,-1,48
40,0,46
42,1,45
47,4,50
48,3,50
41,-3,46
34,0,47
39,-6,47
56,-5,54
49,0,45
39,-1,43
47,0,46
44,-1,51
37,-1,43
43,-1,45
44,-1,46
40,0,45
40,0,45
43,-1,45
43,-1,49
42,0,46
41,0,46
43,-2,50
40,0,48
38,-1,46
43,-1,45
43,-1,45
41,-2,44
43,-2,46
41,0,45
43,1,46
39,-1,46
40,-2,43
48,0,47
43,-1,43
44,-1,43
43,-1,46
43,-1,42
46,0,44
41,-1,46
41,0,44
42,-1,44
44,1,45
43,-2,44
44,0,45
41,0,45
43,0,45
43,0,45
43,-1,42
45,-1,44
43,-1,44
44,0,44
43,-1,45
44,0,45
43,0,44
43,0,44
44,0,45
43,-1,44
43,-1,44
43,-1,44
44,-1,44
42,0,45
43,0,45
44,0,44
43,0,45
43,-1,44
44,0,44
44,0,44
43,-1,44
44,0,44
44,1,45
42,0,44
44,0,45
44,0,44
44,-1,44
43,1,45
43,0,45
43,-1,43
44,-1,44
44,0,44
42,-1,44
44,-1,44
44,0,44
42,0,45
43,0,45
43,0,45
44,-1,44
42,0,45
43,0,45
43,0,45
43,-1,43
44,0,44
43,0,45
42,-1,44
43,0,45
43,0,44
43,-1,44
43,-1,45
43,0,45
44,-1,44
41,0,45
42,0,45
44,0,44
43,-1,44
43,0,45
42,0,45
44,-1,43
43,0,44
43,0,47
42,1,45
44,0,44
43,-1,44
44,-1,42
44,0,44
44,0,45
43,0,45
42,1,46
44,0,45
44,0,44
43,0,45
42,1,44
42,0,45
44,1,45
44,0,46
43,-1,44
44,0,44
43,0,44
43,0,45
43,0,44
43,0,45
43,0,45
43,0,45
43,-1,44
44,0,44
43,1,45
43,1,46
42,-1,44
45,0,44
44,0,45
43,0,44
44,0,45
43,0,45
44,0,44
43,0,45
43,0,45
43,0,43
44,0,44
43,0,45
43,0,45
44,1,45
44,0,44
43,0,43
43,0,45
43,0,45
44,0,45
43,0,45
42,0,45
43,1,45
43,0,44
43,0,45
43,0,45
42,0,45
44,0,45
43,0,45
43,0,44
43,0,44
44,0,44
43,0,44
43,0,45
43,0,45
43,0,45
43,0,45
43,0,44
44,0,44
43,0,44
43,0,44
43,0,44
44,0,44
44,0,44
43,0,44
43,0,44
44,0,45
43,0,44
43,0,44
43,0,45
43,0,44
43,0,45
43,0,44
43,0,45
43,0,44
44,0,44
44,0,44
43,0,44
44,0,44
44,0,44
43,0,44
44,0,45
43,0,44
43,0,44
44,0,44
44,0,45
43,0,44
43,0,44
44,0,44
44,0,44
43,0,44
44,0,44
44,0,44
43,0,44
43,0,44
43,0,44
44,0,45
43,0,44
43,0,45
43,0,45
43,0,44
43,0,44
43,0,45
43,0,44
44,0,44
43,0,45
43,0,44
43,0,45
43,0,45
43,0,44
43,0,45
43,0,45
43,0,44
43,0,45
43,0,44
43,0,44
43,0,44
43,0,44
43,0,44
43,0,45
43,0,44
43,0,44
43,0,45
43,0,45
44,0,45
43,0,44
43,0,45
43,0,44
43,0,45
43,0,45
43,0,45
43,0,44
43,-1,44
43,0,45
42,0,45
43,0,45
43,0,44
43,-1,45
43,-1,44
43,0,44
43,0,45
43,0,46
42,0,45
43,0,45
43,0,45
42,0,46
43,-1,45
43,-1,44
44,0,45
42,0,45
42,0,45
43,0,45
43,0,45
42,0,45
43,0,45
43,0,45
43,0,45
43,0,45
43,0,45
43,0,45
44,0,46
43,0,44
43,0,46
41,0,46
44,0,47
42,0,47
41,0,47
40,0,46
40,0,44
42,-1,47
41,0,47
40,0,45
42,0,46
41,-1,47
40,0,47
41,0,48
41,0,45
41,0,46
42,0,45
43,0,47
38,0,46
42,1,46
40,1,45
39,0,47
41,-1,46
37,0,43
43,0,46
39,-1,46
43,2,46
42,2,44
41,-2,46
39,-1,45
43,1,47
41,0,46
41,-1,46
43,0,47
43,0,46
43,0,45
39,0,45
42,1,44
43,-1,43
42,0,46
44,1,47
30,8,48
58,-2,49
37,0,45
42,-1,46
43,0,44
43,0,45
43,0,45
41,0,46
43,0,45
42,0,45
42,0,45
43,0,45
43,0,46
43,-1,45
42,0,45
43,0,45
42,0,45
43,0,45
43,0,46
42,0,45
43,0,45
43,0,45
42,0,45
43,0,45
42,0,45
43,0,45
42,1,45
42,1,45
43,0,45
43,0,45
42,0,45
42,0,45
43,0,45
43,0,46
43,0,45
43,0,45
43,0,45
43,-1,45
43,0,45
42,0,45
43,0,45
43,0,45
42,0,45
43,0,45
42,0,45
43,1,46
43,0,45
43,0,45
43,0,45
43,0,45
43,0,44
43,0,45
43,0,44
43,0,45
43,0,45
43,0,44
44,0,45
42,0,46
42,0,45
43,0,45
42,1,47
43,-1,43
46,0,44
43,-1,43
43,0,45
42,0,45
42,1,46
42,1,47
42,0,47
43,1,46
42,0,42
42,1,43
41,0,45
43,1,44
43,1,46
42,0,46
43,1,45
43,-1,44
43,0,45
43,2,48
40,0,49
46,2,51
43,1,53
40,0,49
47,-1,43
50,2,43
52,1,49
49,-8,49
52,-8,47
56,-9,48
48,-10,44
43,-8,43
39,-6,44
36,-5,44
30,5,40
35,8,45
30,8,46
26,16,42
30,13,36
28,25,46
24,23,41
29,25,40
33,22,42
36,22,49
41,24,47
32,23,45
36,25,52
44,24,49
42,20,46
37,18,52
19,6,65
12,13,69
21,11,59
32,9,59
37,6,55
35,7,54
28,6,49
34,12,50
45,11,52
33,11,48
38,8,54
38,9,57
30,9,57
21,19,55
23,18,53
23,21,53
19,22,50
19,20,51
18,21,50
17,20,53
22,20,54
20,23,55
22,19,60
20,18,62
9,18,53
14,18,45
26,20,42
52,18,37
62,21,30
71,21,26
56,22,21
60,17,16
62,18,22
64,15,23
70,18,31
68,21,28
55,18,25
47,22,34
39,16,37
23,21,47
23,20,51
26,14,55
29,23,56
14,23,52
22,26,63
0,33,86
-3,32,76
0,36,69
17,42,59
-1,37,40
2,35,35
19,25,37
19,19,27
33,16,32
42,2,33
34,1,29
48,-10,32
56,-15,38
48,-19,34
47,-15,37
55,-22,41
60,-22,42
55,-17,45
44,-18,41
56,-21,45
52,-19,45
56,-13,43
60,-11,44
56,-1,40
56,1,37
53,3,31
58,9,32
54,3,31
49,13,33
47,17,35
38,19,40
32,21,37
28,20,39
33,17,50
27,15,47
24,16,49
16,6,39
15,1,50
18,5,66
4,5,69
0,4,68
1,3,67
9,2,67
11,2,65
12,1,66
12,0,64
11,-1,61
11,0,59
12,0,56
12,0,58
14,0,61
9,0,57
10,0,59
13,-1,65
13,-1,64
12,-1,62
19,0,64
15,1,64
13,-1,61
16,0,62
15,0,60
14,-1,59
12,-2,54
37,2,77
19,1,64
6,-1,61
8,0,59
7,0,59
8,-3,62
3,-2,63
2,-1,64
0,-1,66
10,-9,74
17,-14,79
14,-17,85
28,-5,82
31,-1,70
62,21,40
75,33,28
71,44,17
42,38,6
37,34,13
15,27,26
-8,24,21
-5,26,30
-4,24,37
-9,33,39
-19,51,30
-7,64,26
2,71,15
16,77,18
5,69,31
-11,61,4
-1,68,4
13,48,33
11,57,38
12,61,37
-3,63,16
11,64,10
17,62,19
20,52,26
21,54,5
34,56,31
21,45,26
17,50,18
21,45,16
25,59,12
11,69,29
-1,58,35
4,64,28
21,66,35
18,62,41
16,62,38
5,56,18
14,52,25
38,40,33
10,47,28
10,49,22
23,52,15
14,51,22
6,48,13
24,57,29
36,59,46
28,58,43
0,56,30
-13,45,25
-19,46,22
-43,33,0
-42,27,-5
-52,27,-17
-62,16,19
-43,22,50
-32,29,54
-29,36,42
-32,33,44
-25,31,60
-30,35,51
-34,32,43
-24,22,41
-31,13,71
-29,13,59
-49,9,49
-61,-5,52
-48,-7,69
-11,-4,87
-29,0,60
-25,-2,53
-15,-8,61
-28,1,51
-21,1,51
4,10,63
-8,14,63
-19,14,60
-21,16,56
-8,16,63
-7,15,57
-3,14,60
-2,14,77
-21,12,69
-3,15,66
16,17,65
18,17,62
15,13,55
13,12,54
13,13,57
7,14,57
-2,14,51
-2,11,52
-4,12,60
-2,12,63
0,15,64
-8,18,60
-7,17,60
1,17,64
-3,17,66
-6,14,61
0,15,60
7,20,60
5,21,57
9,21,60
13,23,63
15,22,58
14,20,57
16,18,57
21,17,59
21,17,59
21,17,58
19,17,58
20,17,58
20,18,57
20,18,56
20,19,55
22,19,56
25,19,56
24,19,55
22,20,54
23,20,54
23,21,55
22,20,54
22,20,55
22,20,55
21,20,55
22,20,55
22,20,55
22,20,55
22,20,55
22,20,55
22,20,55
22,20,55
21,20,55
22,21,55
23,20,55
22,20,55
22,20,55
22,20,55
22,20,55
22,20,55
22,20,55
22,20,55
22,20,55
22,20,55
23,20,55
22,20,54
23,20,55
21,20,55
22,19,56
21,19,55
22,19,56
24,22,54
25,24,54
24,20,58
19,23,56
17,20,55
21,18,54
22,16,54
21,18,55
19,23,54
24,26,57
24,26,58
17,21,54
18,25,53
18,27,51
20,27,56
20,30,59
25,33,70
29,34,80
13,39,72
3,39,68
-5,48,69
-14,46,57
-18,49,53
-22,55,44
-13,52,35
-21,54,30
3,45,37
14,43,33
2,35,28
14,7,32
36,-10,36
14,-8,30
-2,-13,14
38,-27,32
41,-24,27
43,-30,11
69,-27,-5
80,-27,-9
89,-28,-1
65,-22,-19
71,-30,-21
63,-24,-25
96,-26,-25
83,-18,-29
63,-20,-33
67,-15,-38
66,-16,-27
67,-9,-41
56,-9,-41
53,-11,-33
61,-9,-28
46,-5,-26
51,-9,-28
60,-12,-21
47,-9,-23
54,-7,-18
61,-7,-11
58,-9,-11
56,-6,-8
51,-6,-10
51,-7,-8
59,-10,-3
60,-7,-4
57,-5,-6
59,-6,-4
60,-4,-6
61,-5,-6
56,-2,-10
61,-4,-10
66,-2,-9
66,-2,-9
60,-2,-8
61,-3,-6
65,-2,-4
64,-3,-3
63,-2,-3
64,-5,-6
60,-6,-7
57,-7,-9
49,-8,-13
51,-11,-18
54,-17,-23
61,-20,-17
54,-32,-27
54,-27,-19
54,-14,-21
59,-7,-16
59,6,-17
55,9,-18
68,43,3
64,46,-10
68,22,7
74,28,2
64,20,-2
49,22,5
60,14,9
55,14,10
59,16,11
82,0,28
75,-2,37
60,-1,34
57,2,33
55,0,32
54,2,31
55,0,28
58,-1,29
51,-2,29
54,0,28
52,-7,28
42,-9,30
42,-7,35
47,-3,37
51,0,38
52,-1,37
51,0,37
54,3,39
52,3,38
50,4,36
51,6,37
51,6,35
55,4,37
47,4,34
49,4,35
55,2,41
39,2,38
33,2,36
25,-3,31
45,3,47
35,-7,46
27,-9,46
54,-18,59
40,-18,53
26,-20,46
42,-17,55
34,-17,50
40,-17,53
35,-19,48
35,-19,47
36,-18,49
28,-17,49
31,-20,53
26,-23,56
27,-25,58
25,-27,56
27,-23,54
22,-22,51
24,-22,54
25,-22,55
25,-23,52
23,-22,51
25,-24,50
24,-26,54
28,-27,59
22,-21,54
21,-21,52
20,-22,52
19,-20,50
24,-21,49
28,-23,54
25,-22,49
27,-24,49
26,-25,49
26,-22,49
25,-24,51
28,-25,54
25,-24,53
25,-25,52
27,-26,53
27,-24,53
31,-26,51
29,-26,51
28,-23,51
28,-22,50
29,-23,48
24,-24,48
23,-25,50
37,-21,53
32,-24,56
37,-24,56
37,-26,51
29,-25,51
20,-25,43
24,-20,36
34,-20,43
32,-18,39
25,-24,47
39,-25,62
33,-24,59
30,-25,47
29,-20,39
26,-20,40
37,-29,60
31,-22,56
26,-22,54
22,-20,47
30,-21,46
34,-23,45
24,-29,50
24,-24,52
25,-24,55
28,-24,55
21,-24,52
26,-24,54
25,-22,52
26,-22,51
25,-21,51
26,-23,52
28,-23,51
29,-22,51
23,-24,49
28,-24,49
32,-23,49
33,-24,52
27,-24,52
27,-23,50
28,-23,50
30,-23,49
29,-23,48
30,-24,49
28,-23,49
27,-22,46
28,-22,49
31,-21,48
32,-21,51
31,-27,65
21,-20,52
22,-19,47
28,-25,50
29,-25,49
29,-25,49
26,-24,48
24,-23,49
25,-26,50
27,-25,53
25,-23,53
26,-21,52
27,-22,52
27,-22,52
28,-22,50
28,-23,49
27,-23,50
27,-23,50
28,-23,51
28,-23,52
28,-22,52
27,-22,51
26,-22,50
26,-22,51
27,-23,52
28,-22,52
28,-23,52
27,-23,52
27,-22,52
27,-22,52
27,-22,50
27,-22,51
26,-22,50
27,-22,49
28,-23,50
28,-23,51
29,-22,50
28,-22,51
29,-21,50
27,-22,50
28,-23,50
28,-22,51
29,-22,51
30,-23,53
26,-22,50
24,-22,47
27,-24,49
31,-31,63
25,-26,54
22,-25,49
36,-22,48
42,-23,49
38,-22,46
33,-22,44
30,-19,46
32,-20,50
29,-20,46
32,-19,49
35,-20,51
38,-22,47
47,-21,48
50,-18,48
50,-20,42
48,-18,39
48,-18,38
44,-17,35
36,-19,32
34,-19,33
33,-22,38
26,-25,38
23,-26,40
11,-27,46
19,-22,49
24,-26,57
30,-28,64
36,-32,66
34,-37,62
38,-38,39
41,-40,30
49,-42,27
49,-46,24
47,-51,22
44,-52,17
38,-49,18
34,-46,17
40,-38,31
44,-25,52
42,-16,56
51,-5,51
47,-15,38
48,-17,29
55,-25,29
47,-47,16
52,-51,20
41,-44,25
28,-61,10
26,-56,10
23,-55,11
20,-61,22
17,-64,21
14,-68,6
21,-61,14
35,-63,31
26,-56,33
27,-47,14
25,-47,11
30,-44,13
41,-49,24
36,-51,23
45,-55,22
37,-48,30
27,-46,23
34,-49,26
20,-52,26
32,-53,32
28,-51,20
27,-49,23
25,-49,20
32,-44,29
28,-44,23
29,-46,22
25,-45,26
26,-46,30
27,-48,29
21,-51,28
19,-50,24
26,-49,22
24,-49,28
27,-30,32
35,-34,36
37,-37,22
52,-38,7
53,-41,3
56,-46,-8
41,-53,6
24,-57,9
17,-63,7
38,-61,1
44,-61,-17
24,-58,4
29,-54,4
25,-55,5
23,-57,7
21,-58,8
23,-56,8
21,-58,9
21,-58,9
22,-58,8
21,-58,8
21,-58,9
19,-60,10
17,-58,14
16,-58,15
16,-58,14
18,-59,12
19,-59,12
19,-58,12
19,-59,12
18,-59,12
18,-58,12
17,-59,13
19,-58,12
19,-59,12
19,-58,12
18,-58,13
19,-58,13
19,-58,13
19,-58,13
20,-58,13
18,-58,14
18,-58,13
18,-58,13
18,-59,13
19,-58,13
19,-58,14
17,-58,14
17,-58,14
17,-58,14
18,-58,14
18,-58,14
18,-58,14
18,-58,14
18,-58,14
18,-58,14
18,-58,14
18,-58,14
18,-58,14
18,-58,14
18,-58,14
18,-58,14
18,-58,14
18,-58,14
18,-58,14
18,-58,14
18,-58,14
18,-58,14
18,-58,14
18,-58,14
18,-58,14
18,-58,14
18,-58,14
18,-58,14
18,-58,14
18,-58,14
18,-58,14
18,-58,14
18,-58,14
18,-58,14
18,-58,14
18,-58,14
18,-58,14
18,-58,14
18,-58,14
18,-58,14
18,-58,14
18,-58,14
18,-58,14
18,-58,14
18,-58,14
18,-58,14
18,-58,14
18,-58,14
18,-58,14
18,-58,14
18,-58,14
18,-58,14
18,-58,14
18,-58,14
18,-58,14
18,-58,14
18,-58,14
18,-58,14
18,-58,14
18,-58,14
18,-58,14
18,-58,14
19,-58,14
19,-58,14
19,-58,14
19,-58,14
19,-58,14
19,-58,14
18,-58,14
18,-58,14
19,-58,14
18,-58,14
18,-58,14
19,-58,14
19,-58,14
18,-58,14
19,-58,14
18,-58,14
19,-58,14
19,-58,14
19,-58,14
18,-58,14
18,-58,14
19,-58,14
18,-58,14
19,-58,14
18,-58,14
18,-58,15
18,-58,14
18,-58,14
18,-58,14
19,-58,14
18,-58,14
18,-58,14
18,-58,14
18,-58,14
18,-58,14
18,-58,14
18,-58,15
18,-58,14
19,-58,15
18,-58,14
18,-58,14
18,-58,14
18,-58,15
18,-58,14
18,-58,14
18,-58,15
18,-58,15
18,-58,14
18,-58,14
18,-58,14
18,-58,15
18,-58,15
18,-58,14
18,-58,14
18,-58,14
18,-58,14
18,-58,15
18,-58,15
18,-58,14
18,-58,15
18,-58,15
18,-58,15
18,-58,15
18,-58,15
18,-58,15
18,-58,15
18,-58,15
18,-58,15
18,-58,15
18,-58,15
18,-58,15
18,-58,15
18,-58,15
18,-58,15
18,-58,15
18,-58,15
18,-58,15
19,-58,15
18,-58,15
18,-58,15
18,-58,15
18,-58,15
18,-58,15
18,-58,15
18,-58,15
18,-58,14
18,-58,15
18,-58,15
18,-58,14
18,-58,14
18,-58,15
18,-58,14
18,-58,14
18,-58,14
18,-58,14
18,-58,14
18,-58,15
18,-58,14
18,-58,14
18,-58,14
18,-58,14
18,-58,14
18,-58,15
18,-58,14
18,-58,14
18,-58,14
18,-58,14
18,-58,14
18,-58,14
18,-58,14
18,-58,14
18,-58,15
18,-58,14
18,-58,14
18,-58,14
18,-58,14
18,-58,14
18,-58,14
18,-58,14
18,-58,14
18,-58,14
18,-58,14
18,-58,14
18,-58,14
18,-58,14
18,-58,14
18,-58,14
18,-58,14
18,-58,15
18,-58,14
19,-58,14
19,-58,14
18,-58,14
18,-58,15
18,-58,14
18,-58,14
18,-58,14
18,-58,14
18,-58,15
18,-58,15
18,-58,15
18,-58,15
18,-58,14
18,-58,14
18,-58,15
18,-58,15
18,-58,15
18,-58,15
18,-58,15
18,-58,15
18,-58,15
18,-58,15
18,-58,15
18,-58,14
18,-58,15
18,-58,15
18,-58,15
18,-58,15
18,-58,15
18,-58,15
18,-58,15
18,-58,15
18,-58,15
18,-58,15
18,-58,14
18,-58,15
18,-58,15
18,-58,15
18,-58,15
18,-58,15
18,-58,15
18,-58,15
18,-58,15
18,-58,15
18,-58,15
18,-58,15
18,-58,14
18,-58,15
18,-58,15
18,-58,15
18,-58,15
18,-58,14
18,-58,15
18,-58,15
18,-58,15
18,-58,15
18,-58,15
18,-58,15
18,-58,15
18,-58,15
18,-58,15
18,-58,15
18,-58,15
18,-58,15
18,-58,15
18,-58,15
18,-58,15
18,-58,15
18,-58,15
18,-58,15
18,-58,15
18,-58,15
18,-58,15
18,-58,15
18,-58,15
18,-58,15
18,-58,15
18,-58,15
18,-58,15
18,-58,15
18,-58,15
18,-58,15
18,-58,15
18,-58,15
18,-58,15
18,-58,15
18,-58,15
18,-58,15
18,-58,15
18,-58,15
18,-58,15
18,-58,15
18,-58,15
18,-58,15
18,-58,15
18,-58,15
18,-58,15
18,-58,15
18,-58,15
18,-58,15
18,-58,15
18,-58,15
18,-58,15
18,-58,15
18,-58,15
18,-58,15
18,-58,15
18,-58,15
18,-58,15
18,-58,15
18,-58,15
18,-58,15
18,-58,15
18,-58,15
18,-58,15
18,-58,15
18,-58,15
18,-58,15
18,-58,15
19,-58,15
19,-58,15
19,-58,15
19,-58,15
19,-58,15
19,-58,15
18,-58,15
19,-58,15
19,-58,15
19,-58,15
19,-58,15
19,-58,15
19,-58,15
19,-58,15
19,-58,15
19,-58,15
19,-58,15
19,-58,15
19,-58,15
19,-58,15
19,-58,15
19,-58,15
19,-58,15
19,-58,15
19,-58,15
19,-58,15
19,-58,14
19,-58,15
19,-58,15
19,-58,15
19,-58,15
19,-58,15
19,-58,15
19,-58,15
19,-58,15
19,-58,15
18,-58,15
19,-58,15
18,-58,15
19,-58,15
18,-58,15
18,-58,15
19,-58,15
18,-58,15
18,-58,15
18,-58,15
18,-58,15
18,-58,15
18,-58,15
18,-58,15
18,-58,15
18,-58,15
18,-58,15
18,-58,15
18,-58,15
18,-58,15
18,-58,15
18,-58,15
18,-58,15
18,-58,15
18,-58,15
18,-58,15
18,-58,15
18,-58,15
18,-58,15
18,-58,15
19,-58,15
19,-58,15
18,-58,15
19,-58,15
18,-58,15
18,-58,15
19,-58,15
18,-58,15
18,-58,15
18,-58,15
18,-58,15
18,-58,15
18,-58,15
18,-58,15
18,-58,15
18,-58,15
19,-58,15
18,-58,15
18,-58,15
19,-58,15
18,-58,15
19,-58,15
18,-58,15
18,-58,15
19,-58,15
18,-58,15
19,-58,15
19,-58,15
18,-58,15
19,-58,15
18,-58,15
18,-58,15
18,-58,15
18,-58,16
18,-58,15
18,-58,15
18,-58,15
18,-58,15
18,-58,15
18,-58,15
18,-58,15
18,-58,15
18,-58,15
18,-58,15
18,-58,15
18,-58,15
18,-58,15
18,-58,15
18,-58,15
18,-58,15
18,-58,15
18,-58,15
18,-58,15
18,-58,15
18,-58,15
18,-58,15
18,-58,15
18,-58,15
18,-58,15
18,-58,15
18,-58,15
18,-58,15
18,-58,15
18,-58,15
18,-58,15
18,-58,15
18,-58,15
18,-58,15
19,-58,15
19,-58,15
18,-58,15
18,-58,15
18,-58,15
18,-58,15
18,-58,15
18,-58,15
18,-58,15
18,-58,15
18,-58,15
18,-58,15
18,-58,15
18,-58,15
18,-58,15
18,-58,15
18,-58,15
18,-58,15
18,-58,15
18,-58,15
18,-58,15
18,-58,15
18,-58,15
18,-58,15
18,-58,15
18,-58,15
18,-58,15
18,-58,15
18,-58,15
18,-58,15
18,-58,15
18,-58,15
18,-58,15
18,-58,15
18,-58,15
18,-58,15
18,-58,15
18,-58,15
18,-58,15
18,-58,15
19,-58,15
18,-58,15
18,-58,15
18,-58,15
18,-58,15
19,-58,15
18,-58,15
19,-58,15
18,-58,15
18,-58,15
18,-58,15
18,-58,15
18,-58,15
18,-58,15
18,-58,15
18,-58,15
18,-58,15
18,-58,15
18,-58,15
18,-58,15
18,-58,15
19,-58,15
18,-58,15
18,-58,15
20,-58,14
17,-58,15
18,-58,16
18,-58,15
18,-58,15
19,-58,15
18,-58,15
19,-58,15
19,-58,15
19,-58,15
19,-58,15
19,-58,15
19,-58,15
19,-58,15
19,-58,15
19,-58,14
20,-58,15
19,-57,15
20,-58,15
19,-58,15
19,-58,15
20,-58,15
19,-58,15
19,-57,15
20,-58,15
20,-58,15
19,-58,15
19,-57,15
19,-58,15
19,-58,15
19,-58,15
19,-58,15
19,-58,15
19,-58,15
19,-58,15
19,-58,15
19,-58,15
19,-58,15
19,-58,15
19,-58,15
18,-58,15
19,-58,15
18,-58,15
19,-58,15
19,-58,15
18,-58,15
18,-58,15
18,-58,15
18,-58,15
18,-58,15
18,-58,15
19,-58,15
18,-58,15
18,-58,15
19,-58,15
18,-58,15
18,-58,15
19,-58,15
19,-58,15
19,-58,15
19,-58,15
19,-58,15
19,-58,15
19,-58,15
19,-58,15
18,-58,15
19,-58,15
18,-58,15
19,-58,15
19,-58,15
19,-58,15
19,-58,15
19,-58,15
19,-58,15
19,-58,15
19,-58,15
19,-58,15
18,-58,15
19,-58,15
19,-58,15
19,-58,15
19,-58,15
19,-58,15
19,-58,15
19,-58,15
19,-58,15
19,-58,15
19,-58,15
18,-58,15
19,-58,15
19,-58,15
19,-58,15
19,-58,15
19,-58,15
19,-58,15
18,-58,15
19,-58,15
19,-58,15
18,-58,15
19,-58,15
19,-58,15
19,-58,15
19,-58,15
19,-58,15
19,-58,15
19,-58,15
19,-58,15
19,-58,15
19,-58,15
19,-58,15
19,-58,15
18,-58,15
19,-58,15
18,-58,15
18,-58,15
19,-58,15
19,-58,15
18,-58,15
19,-58,15
19,-58,15
19,-58,15
19,-58,15
19,-58,15
19,-58,15
19,-58,15
19,-58,15
18,-58,15
19,-58,15
19,-58,15
19,-58,15
19,-58,15
19,-58,15
19,-58,15
19,-58,15
19,-58,15
19,-58,15
18,-58,15
18,-58,15
18,-58,15
18,-58,15
18,-58,15
19,-58,15
18,-58,15
18,-58,15
19,-58,15
19,-58,15
18,-58,15
18,-58,15
18,-58,15
19,-58,15
18,-58,15
19,-58,15
18,-58,15
19,-58,15
19,-58,15
19,-58,15
19,-58,15
19,-58,15
18,-58,15
18,-58,15
19,-58,15
18,-58,15
19,-58,15
18,-58,15
19,-58,15
18,-58,15
18,-58,15
18,-58,15
19,-58,15
19,-58,15
19,-58,15
18,-58,15
19,-58,15
19,-58,15
19,-58,15
19,-58,15
18,-58,15
19,-58,15
19,-58,15
19,-58,15
19,-58,15
19,-58,15
19,-58,15
19,-58,15
19,-58,15
18,-58,15
19,-58,15
19,-58,15
18,-58,15
19,-58,15
19,-58,15
18,-58,15
19,-58,15
19,-58,15
18,-58,15
19,-58,15
19,-58,15
19,-58,15
19,-58,15
18,-58,15
19,-58,15
19,-58,15
19,-58,15
19,-58,15
19,-58,15
19,-58,15
19,-58,15
19,-58,15
18,-58,15
19,-58,15
18,-58,15
19,-58,15
18,-58,15
18,-58,15
19,-58,15
18,-58,15
19,-58,15
19,-58,15
18,-58,15
18,-58,15
19,-58,15
18,-58,15
18,-58,15
19,-58,15
18,-58,15
19,-58,15
19,-58,15
18,-58,15
18,-58,15
19,-58,15
19,-58,15
19,-58,15
19,-58,15
18,-58,15
19,-58,15
19,-58,15
19,-58,15
19,-58,15
19,-58,15
19,-58,15
19,-58,15
18,-58,15
19,-58,15
19,-58,15
19,-58,15
19,-58,15
19,-58,15
18,-58,15
18,-58,15
19,-58,15
18,-58,15
19,-58,15
19,-58,15
19,-58,15
19,-58,15
19,-58,15
18,-58,15
18,-58,15
19,-58,15
18,-58,15
19,-58,15
19,-58,15
18,-58,15
19,-58,15
19,-58,15
19,-58,15
19,-58,15
19,-57,15
18,-58,15
18,-58,15
19,-58,15
19,-58,15
19,-58,15
19,-58,15
19,-58,15
19,-58,15
19,-58,15
19,-58,15
19,-58,15
19,-58,15
19,-58,15
19,-58,14
19,-58,15
19,-58,15
19,-58,14
19,-58,14
19,-58,14
20,-58,14
20,-58,14
20,-58,15
20,-58,14
19,-57,14
20,-58,14
21,-57,15
20,-57,15
20,-57,15
21,-57,15
20,-57,14
21,-57,14
21,-57,14
21,-57,14
21,-57,14
21,-56,14
21,-56,15
22,-56,15
22,-56,15
23,-56,15
24,-55,14
25,-55,14
27,-55,14
27,-55,13
28,-54,13
28,-54,14
28,-54,14
29,-54,14
28,-54,14
27,-53,14
29,-53,14
29,-53,15
30,-54,15
29,-54,14
29,-55,15
27,-55,15
27,-56,18
28,-65,25
22,-65,17
24,-63,6
21,-61,-17
23,-58,-4
26,-56,1
30,-48,3
28,-45,1
31,-46,1
37,-50,2
48,-57,1
49,-59,3
49,-59,7
46,-55,6
47,-53,4
44,-53,1
36,-52,-2
34,-51,-1
32,-55,2
32,-58,6
36,-59,10
63,-65,21
20,-54,5
-5,-54,5
-9,-46,22
12,-41,27
18,-37,28
35,-35,33
24,-38,29
18,-39,29
20,-41,31
28,-46,32
31,-47,32
29,-47,31
31,-49,31
31,-53,30
33,-54,31
37,-50,38
34,-51,37
31,-54,32
30,-51,27
32,-48,28
34,-44,27
40,-45,24
51,-45,14
50,-38,13
48,-34,16
44,-24,19
38,-21,8
41,-19,9
50,-16,13
60,-19,8
59,-21,7
60,-19,4
66,-19,-4
70,-17,-7
79,-2,-29
45,4,-37
39,-33,-8
72,-57,0
59,-6,-43
59,-15,-43
40,-16,-40
39,-19,-28
41,-14,-19
36,-16,-15
36,-17,-13
38,-20,-12
37,-30,-16
42,-41,-9
39,-49,-8
38,-66,-13
34,-87,-18
31,-89,-19
28,-92,-15
19,-94,-14
14,-86,-13
9,-85,-11
10,-74,-13
11,-67,-7
7,-60,-3
6,-51,-13
11,-49,-14
10,-43,-11
9,-42,-4
13,-48,1
36,-59,10
57,-60,21
62,-60,28
51,-63,35
42,-65,38
42,-75,35
29,-74,22
23,-80,22
20,-82,19
18,-86,15
16,-84,10
14,-82,8
9,-76,6
8,-72,2
9,-72,0
11,-83,-5
10,-79,-6
5,-63,-6
12,-61,4
8,-57,6
10,-55,10
20,-43,19
25,-46,25
1,-34,39
-6,-35,38
-4,-45,37
3,-65,34
6,-84,19
13,-88,14
24,-105,4
36,-97,2
43,-81,6
37,-59,13
40,-59,24
39,-58,25
38,-55,22
43,-75,24
40,-85,21
25,-93,12
13,-78,12
7,-88,5
1,-106,-6
7,-99,-1
29,-92,5
33,-91,-4
-11,-82,-13
-20,-79,-17
-19,-74,-19
-9,-65,-9
-7,-60,-2
2,-50,5
19,-40,9
11,-43,13
8,-37,25
-12,-32,34
-27,-40,39
-18,-53,44
-8,-63,48
-13,-68,45
-11,-71,46
-16,-60,43
-19,-52,39
-20,-39,32
-24,-36,29
-25,-38,28
-18,-45,26
-21,-52,23
-25,-56,20
-25,-59,16
-13,-62,22
-7,-63,27
-6,-59,26
-8,-55,22
-10,-56,21
-9,-60,19
-1,-59,22
0,-57,23
2,-55,24
5,-51,24
5,-53,23
8,-59,21
12,-56,20
12,-54,18
16,-52,10
22,-55,7
27,-76,9
24,-74,22
19,-68,22
17,-70,13
13,-68,7
12,-62,8
16,-55,8
21,-53,11
22,-53,10
22,-57,7
23,-62,6
27,-62,7
16,-65,4
6,-60,3
6,-59,3
3,-61,2
-1,-62,0
2,-64,-1
10,-69,-2
10,-72,0
8,-71,1
10,-65,5
10,-62,10
10,-64,12
6,-63,16
4,-52,16
6,-46,15
7,-47,16
5,-50,15
7,-53,14
10,-59,17
13,-55,22
13,-60,21
13,-64,23
17,-68,25
16,-67,23
13,-69,17
14,-85,10
13,-90,6
12,-79,1
9,-87,-5
11,-84,-6
11,-74,-12
7,-65,-20
6,-65,-21
6,-57,-18
8,-56,-17
7,-57,-18
10,-52,-14
10,-58,-14
12,-60,-11
15,-66,-4
12,-66,0
13,-69,2
6,-72,2
6,-62,1
7,-57,6
-2,-70,11
-7,-63,15
-10,-62,11
-7,-59,6
-4,-56,6
3,-50,10
11,-52,13
12,-52,12
16,-54,16
23,-55,24
21,-59,23
12,-71,12
10,-75,7
9,-69,11
8,-76,14
12,-86,16
15,-92,14
22,-81,12
22,-66,7
23,-66,4
19,-58,3
15,-52,3
12,-55,1
-5,-60,-6
-18,-68,-9
-4,-75,-7
2,-72,-7
-12,-74,-5
-18,-69,-6
-26,-65,-3
-29,-57,2
-23,-66,5
-17,-78,14
-3,-75,25
4,-67,27
10,-56,23
6,-45,23
6,-41,23
12,-38,23
12,-49,18
12,-58,17
15,-74,20
17,-77,30
21,-74,35
27,-77,33
27,-88,26
26,-84,20
21,-89,16
10,-73,15
8,-75,13
5,-59,13
4,-48,11
5,-46,11
5,-46,8
9,-56,8
11,-66,9
10,-86,6
6,-79,2
4,-81,3
2,-76,6
1,-62,15
-3,-46,16
6,-48,21
6,-67,22
2,-67,19
9,-58,19
8,-47,24
5,-44,24
3,-40,21
4,-47,19
-1,-58,18
5,-86,15
15,-91,11
47,-86,14
51,-70,25
45,-67,23
47,-81,14
44,-70,11
45,-81,8
36,-75,9
28,-72,7
24,-65,8
14,-54,7
9,-51,4
8,-51,4
8,-58,2
10,-76,6
7,-84,7
2,-80,1
-4,-78,1
-9,-72,3
-10,-75,7
-8,-55,8
1,-58,12
7,-60,23
11,-57,23
16,-57,22
17,-50,20
15,-45,21
13,-44,22
11,-45,17
11,-48,16
13,-55,19
14,-86,19
23,-96,23
27,-85,29
30,-75,34
34,-84,29
38,-74,27
41,-84,16
20,-82,14
14,-71,16
13,-68,15
6,-54,11
3,-49,9
3,-45,7
7,-52,5
10,-56,4
12,-68,2
10,-91,-12
5,-93,-16
-1,-67,4
2,-73,12
7,-64,17
23,-52,27
25,-64,27
25,-69,27
16,-70,21
4,-51,23
0,-44,24
6,-35,22
9,-35,23
3,-47,17
4,-69,16
17,-78,25
21,-85,29
22,-85,30
29,-77,32
35,-90,35
17,-67,27
18,-74,21
16,-83,15
19,-74,14
15,-74,13
6,-57,12
2,-49,11
4,-46,10
9,-44,8
3,-50,2
5,-52,2
20,-63,12
17,-79,11
9,-81,8
3,-67,14
7,-61,25
7,-52,29
11,-58,29
15,-70,25
13,-69,23
3,-62,19
-6,-49,19
-6,-43,19
3,-39,15
4,-42,13
3,-46,15
5,-63,18
16,-84,25
18,-88,28
23,-81,33
38,-75,39
48,-75,38
35,-72,32
30,-96,28
21,-89,24
18,-77,19
7,-74,14
1,-68,12
3,-56,9
3,-53,7
4,-55,6
8,-62,7
10,-67,5
10,-71,6
4,-82,0
9,-65,11
7,-60,13
1,-50,15
9,-66,22
12,-73,22
18,-66,23
14,-58,25
12,-55,23
7,-48,23
0,-38,18
1,-41,15
5,-52,20
11,-76,25
17,-91,29
24,-97,29
31,-90,33
42,-64,40
36,-75,36
29,-84,31
34,-82,26
15,-80,20
17,-74,17
15,-74,15
8,-65,13
8,-60,12
8,-52,11
2,-55,4
2,-54,2
22,-54,5
18,-73,7
3,-82,4
-4,-73,5
1,-66,6
-5,-59,6
5,-66,16
13,-81,24
15,-77,25
18,-69,22
12,-57,22
7,-50,20
3,-41,17
5,-46,17
5,-51,18
8,-58,20
16,-68,24
19,-80,25
19,-89,24
22,-69,30
25,-72,29
34,-89,25
35,-79,22
35,-84,20
23,-74,19
18,-81,13
12,-81,11
6,-63,10
5,-57,7
5,-56,6
7,-55,6
8,-60,8
4,-65,3
2,-67,1
3,-72,-1
3,-74,2
4,-67,11
8,-63,17
10,-56,21
12,-61,23
19,-68,19
22,-67,21
14,-63,21
5,-56,21
1,-52,19
3,-49,17
8,-52,16
9,-56,18
19,-59,33
12,-59,37
11,-60,33
11,-68,27
3,-70,19
1,-69,18
4,-62,20
9,-59,21
22,-72,23
36,-89,18
39,-90,16
30,-72,12
18,-88,7
5,-96,5
-3,-103,1
-3,-101,0
-3,-99,0
15,-96,2
34,-96,-4
9,-99,-15
-1,-78,-10
-10,-56,-8
-10,-48,-3
-6,-46,8
-14,-37,5
-11,-30,9
0,-47,20
-1,-53,22
3,-50,26
5,-67,26
6,-87,23
8,-88,21
11,-80,18
13,-78,15
12,-74,17
9,-68,33
10,-66,51
24,-64,49
38,-61,40
23,-65,27
19,-67,25
21,-78,23
15,-100,18
9,-100,12
12,-103,7
13,-100,3
14,-105,-2
13,-95,-3
9,-76,1
8,-69,3
6,-60,-3
11,-59,-1
13,-64,0
13,-74,-4
17,-65,2
16,-65,5
11,-63,13
17,-50,22
18,-43,24
15,-30,20
13,-40,26
7,-42,24
3,-49,22
0,-62,28
0,-69,31
3,-71,29
4,-71,29
-1,-75,23
3,-77,28
4,-78,35
4,-87,42
23,-93,43
29,-87,41
30,-68,35
37,-86,32
30,-95,27
22,-77,21
11,-78,16
10,-75,14
11,-78,9
6,-66,7
6,-62,7
8,-58,9
8,-62,6
9,-64,6
11,-69,4
4,-78,3
-4,-79,0
1,-67,3
1,-64,11
0,-61,16
6,-64,21
12,-70,25
14,-66,26
12,-62,27
7,-55,24
3,-51,22
0,-45,22
-3,-47,14
1,-54,12
7,-68,17
18,-82,29
20,-87,30
33,-85,31
29,-65,33
21,-64,28
21,-88,21
23,-78,22
24,-79,21
21,-77,20
20,-72,17
20,-76,14
10,-71,9
5,-60,8
3,-57,8
1,-57,7
3,-61,9
3,-63,8
7,-69,4
9,-80,1
10,-77,5
8,-61,16
10,-57,24
10,-50,25
17,-44,28
21,-52,28
20,-55,24
16,-62,20
15,-64,24
9,-62,25
5,-58,15
8,-56,11
8,-57,13
9,-66,19
12,-71,20
22,-77,24
26,-73,23
27,-68,20
32,-65,20
46,-88,22
42,-83,24
30,-76,23
31,-70,24
28,-75,17
19,-91,8
6,-78,9
4,-73,9
5,-70,5
4,-70,2
5,-71,1
10,-74,-1
13,-84,-4
11,-82,-2
7,-72,2
12,-58,8
16,-58,7
20,-53,12
19,-24,24
23,-20,29
50,-30,20
78,-48,25
72,-44,18
64,-30,13
61,-17,8
60,-12,3
67,-4,1
59,-2,-4
57,1,-8
65,0,-9
63,-5,-13
63,-7,-15
67,-9,-14
69,-9,-18
73,-10,-25
89,-23,-27
78,-25,-37
67,-23,-37
55,-19,-35
39,-12,-30
36,-8,-26
35,-5,-24
39,-6,-23
42,-6,-23
41,-7,-34
47,-14,-31
53,-15,-28
59,-14,-39
73,-20,-32
70,-21,-29
63,-23,-24
71,-19,-24
70,-17,-25
62,-20,-21
59,-23,-10
55,-22,-10
52,-25,-13
50,-29,-9
49,-28,-9
41,-19,-5
34,-11,-8
41,-10,-5
52,-4,-7
57,1,-9
66,7,-11
70,12,-13
71,11,-14
73,13,-18
93,16,-28
103,6,-27
80,-7,-22
66,-4,-14
66,-8,-12
63,-20,-14
52,-21,-15
49,-17,-10
44,-9,-3
43,-5,-3
47,-3,-4
49,-3,-8
55,-7,-5
56,-9,-4
55,-8,-7
63,-11,-7
64,-11,-8
63,-12,-2
63,-10,3
62,-8,3
73,-7,2
76,-12,2
74,-14,2
68,-18,7
63,-29,16
56,-33,15
49,-37,10
47,-36,12
44,-36,11
40,-37,11
43,-36,12
44,-37,12
46,-36,15
47,-37,18
46,-37,19
43,-36,20
44,-37,21
46,-37,21
47,-38,21
45,-38,22
43,-38,22
40,-38,22
39,-37,22
40,-37,23
44,-36,25
47,-38,26
46,-39,26
47,-42,28
46,-43,30
46,-43,30
52,-45,42
52,-43,46
58,-42,51
63,-40,58
66,-39,60
65,-35,69
53,-31,56
48,-27,56
43,-17,56
30,-11,37
26,-5,39
29,11,55
18,26,45
6,31,50
-15,40,36
-20,61,20
-6,62,26
12,61,33
-1,61,5
9,52,9
39,55,13
34,49,3
32,46,9
42,45,25
26,51,25
20,43,31
4,45,28
8,32,30
5,32,27
4,43,33
4,37,34
3,40,33
14,42,33
20,43,36
14,46,28
17,46,39
-4,48,41
1,35,60
8,48,54
3,46,43
11,49,45
8,46,43
1,43,30
10,41,32
19,49,35
40,53,37
48,50,39
51,51,42
27,53,34
20,55,33
9,63,33
9,62,29
6,59,25
-7,55,20
-17,57,20
-17,55,23
-10,58,28
-9,60,30
-8,59,31
2,57,35
6,51,43
0,47,40
-6,46,32
11,47,49
10,46,46
-1,43,39
0,43,47
-13,44,41
-16,38,45
-50,18,53
-23,32,55
23,44,45
12,48,43
7,52,29
29,63,11
23,59,17
26,61,30
23,72,21
24,68,29
14,62,37
15,58,38
-1,47,60
-26,42,50
-21,39,45
-23,39,31
-26,35,18
-54,34,11
-45,30,23
-63,34,6
-79,15,66
-108,8,20
1,53,29
-19,48,36
-9,53,45
-19,59,37
-4,53,44
-12,57,40
2,48,24
-18,48,4
-4,53,4
10,61,14
5,62,24
-11,63,17
-5,51,31
-31,45,44
-43,42,41
-47,38,73
-70,33,49
-14,38,57
-22,46,43
-30,47,20
-29,49,27
-6,45,33
-27,47,23
-18,48,25
1,54,25
-9,57,25
7,61,28
19,61,25
4,58,28
5,57,33
-11,55,47
-19,54,44
-14,49,39
-13,48,35
-23,49,36
-19,51,32
-17,50,37
-2,50,30
6,52,32
-12,51,35
-2,54,36
-3,56,35
-5,53,36
10,53,42
-2,51,34
8,56,41
20,53,41
-26,49,18
11,51,37
21,56,44
15,59,46
32,65,44
23,60,35
-6,58,16
-30,55,-8
-19,51,8
-31,43,16
-65,31,13
-31,36,60
-39,39,57
-43,43,20
-14,40,58
-29,47,40
-39,40,39
-24,46,43
-35,45,28
30,65,32
10,58,39
7,53,46
-40,44,32
-16,43,46
-24,47,64
-23,33,62
-24,23,39
-11,28,22
19,21,28
9,10,37
-39,10,28
-35,10,3
-39,10,-3
-6,30,16
-6,18,4
10,35,-3
31,69,33
17,48,13
51,59,49
60,62,57
83,67,67
71,62,61
56,66,46
20,77,18
15,76,21
47,62,29
43,58,20
38,56,32
29,51,32
18,68,17
35,65,14
43,64,26
26,61,4
43,57,5
57,53,25
34,59,-1
42,52,-2
56,61,5
45,65,3
46,58,8
25,54,9
7,39,16
1,33,19
8,30,31
13,21,52
6,15,31
26,29,33
19,38,23
6,49,11
19,55,10
20,62,8
13,64,-10
28,73,-14
35,73,-9
41,69,-5
37,68,-4
32,66,-5
38,70,-10
33,64,-5
27,61,-3
24,63,-9
28,56,-9
29,56,-8
30,52,-11
31,53,-7
29,53,-8
31,55,-7
34,57,-6
35,57,-8
33,62,-11
34,59,-9
32,59,-9
29,59,-12
32,55,-13
37,53,-10
40,52,-7
35,61,-5
37,62,1
40,66,6
30,77,9
31,77,18
31,63,5
46,47,6
33,35,2
31,26,2
40,20,13
30,18,22
6,15,46
38,34,32
22,37,16
72,45,41
7,42,23
12,54,23
27,58,21
27,61,15
30,65,17
20,58,20
18,55,26
34,52,40
8,47,30
6,47,27
7,43,25
8,46,19
20,49,29
26,48,35
44,44,28
48,47,24
35,45,14
36,49,10
36,51,15
20,54,10
7,63,7
16,58,7
48,70,9
42,61,8
37,55,10
29,59,5
24,55,3
27,51,5
34,51,10
32,48,6
34,47,6
32,48,5
32,50,6
33,51,7
35,57,6
38,60,6
42,60,7
40,58,8
39,53,6
42,53,3
34,51,2
31,50,2
31,51,1
34,49,3
35,51,1
36,51,-1
39,50,3
39,51,2
39,52,-1
39,50,1
39,51,0
38,51,-2
36,51,-1
36,49,0
37,51,1
38,52,-3
38,51,-2
38,50,-1
35,53,-4
39,53,-5
39,52,-5
37,50,-3
35,48,-2
34,49,-2
39,53,-6
37,53,-6
39,55,-7
42,55,-6
38,58,-9
37,57,-5
33,58,-9
19,61,-10
15,60,-7
24,62,3
47,59,-10
52,54,-5
47,45,-4
40,29,-7
54,22,-4
70,16,0
59,20,-6
71,21,-15
56,24,-19
53,31,-26
61,37,-19
48,31,-19
51,38,-19
42,40,-17
47,36,-9
39,35,-9
48,39,-5
43,37,-11
42,40,-7
44,41,1
49,44,9
47,41,11
50,46,10
52,44,6
41,45,6
29,47,2
41,48,2
46,47,8
45,40,22
40,42,25
26,40,24
8,49,10
7,56,7
21,58,20
27,60,20
37,52,24
27,54,23
32,53,10
61,51,25
49,44,23
35,48,35
35,57,19
34,50,41
6,52,30
-18,55,26
-7,53,18
23,46,-14
88,54,-11
88,51,1
57,62,11
42,58,9
38,61,8
24,47,19
23,43,31
16,41,24
-1,38,32
-11,34,31
-7,41,30
-3,56,18
4,56,24
15,58,14
39,54,46
24,50,49
17,51,37
39,49,26
40,42,30
26,45,21
9,47,20
12,46,19
9,46,22
9,55,17
27,59,17
30,63,11
32,66,9
34,64,9
40,62,11
32,58,8
30,55,7
32,55,6
32,56,6
31,55,8
32,56,10
36,56,9
34,53,9
34,55,7
31,53,5
31,54,4
32,54,5
32,54,6
31,54,6
34,55,6
35,55,7
33,54,5
33,55,6
32,52,5
32,54,4
31,53,4
31,55,4
32,55,4
32,53,4
33,53,5
34,53,6
33,53,5
34,54,4
34,53,5
33,53,4
34,55,2
35,56,2
35,52,5
32,52,2
31,55,0
32,55,1
36,55,4
36,54,3
37,53,3
36,52,3
36,52,3
34,56,2
35,54,4
36,51,4
37,54,2
35,55,4
34,55,5
36,61,8
29,69,9
20,70,9
12,68,1
43,65,7
44,57,10
33,56,-1
42,37,13
46,38,14
48,29,17
55,23,22
52,26,14
43,27,38
30,28,24
38,44,21
36,44,32
31,42,33
27,48,23
30,51,17
34,53,19
39,51,20
21,57,12
30,54,19
18,54,11
34,52,19
36,50,19
33,51,17
32,55,5
27,54,4
25,58,-8
42,56,7
42,57,16
30,60,2
32,61,-3
26,59,-2
17,59,5
31,54,27
32,53,27
14,51,26
18,48,29
17,47,29
15,47,20
6,56,3
12,53,0
33,53,13
39,44,24
51,44,30
59,49,35
45,44,26
45,40,32
39,47,27
23,48,25
27,45,33
14,51,26
16,51,38
5,46,43
8,46,53
4,47,37
11,46,46
-10,47,41
-7,44,16
7,37,7
60,49,31
23,55,19
17,50,14
75,55,6
57,58,-26
56,53,-19
60,52,-8
30,48,-15
27,46,-14
47,47,0
50,43,-3
29,43,5
26,40,11
31,49,7
45,49,13
30,48,9
24,52,8
47,55,13
32,50,8
34,51,13
36,50,8
43,51,19
39,49,10
50,51,32
6,54,5
7,58,-3
28,67,7
37,62,26
36,60,32
17,61,19
23,52,26
23,50,24
8,44,23
7,39,31
6,36,39
9,47,22
14,56,12
21,61,18
26,51,36
25,50,44
20,51,39
19,54,20
42,52,15
55,50,19
48,44,25
35,41,21
35,42,17
22,44,17
13,49,14
10,55,10
9,65,5
27,68,4
31,69,7
26,68,12
29,64,9
31,63,8
28,61,6
27,54,8
26,53,9
22,54,8
25,57,7
27,56,8
26,56,8
28,58,8
30,57,7
30,57,7
28,59,6
28,59,6
29,58,6
29,57,7
30,56,8
28,54,7
26,55,7
26,53,8
27,56,6
26,60,4
26,62,3
27,65,1
27,64,1
28,61,3
27,57,2
21,57,0
18,65,-2
17,67,8
24,61,13
26,65,14
29,51,18
35,51,18
44,44,13
43,43,20
45,39,20
57,25,20
38,33,15
43,32,18
42,39,20
32,49,25
38,45,33
31,46,30
22,47,20
35,52,12
67,57,14
37,59,14
27,57,20
23,59,19
8,51,23
12,47,28
3,42,26
-3,37,32
8,50,18
32,56,24
22,62,21
20,59,27
22,61,20
45,53,38
30,52,26
17,55,17
35,45,22
21,51,20
20,49,26
16,45,29
15,42,25
16,20,30
28,5,23
41,6,22
64,17,23
64,26,18
69,27,18
80,35,17
73,36,15
65,34,11
62,32,10
58,30,4
59,30,2
62,33,3
62,34,4
64,34,6
63,36,2
67,36,6
64,33,8
55,27,9
51,26,7
52,28,8
54,29,8
56,31,9
55,31,9
51,31,9
51,31,8
51,29,5
56,30,6
57,31,5
55,33,2
56,44,-1
59,54,-2
66,64,4
62,58,8
58,59,8
59,53,10
60,49,13
58,45,13
49,47,16
43,51,20
40,59,22
43,65,29
41,65,33
39,67,33
30,63,42
20,57,44
10,53,38
2,51,36
-8,42,30
-12,40,28
-16,34,29
-8,26,36
-13,23,32
-23,22,26
-24,19,34
-31,27,34
-25,25,33
-28,27,42
-31,30,43
-29,25,36
-31,34,37
-20,36,43
-38,29,42
-31,32,45
-36,35,43
-33,33,38
-20,40,46
-25,39,35
-35,38,45
-5,46,36
-8,50,34
-30,51,25
-38,55,18
-20,50,24
12,49,53
-25,49,33
-8,49,43
-13,50,41
-9,52,34
-10,54,20
-1,51,41
-30,47,31
-42,45,30
-11,42,36
-17,41,41
-25,41,39
-12,46,41
-8,51,42
-9,50,37
-2,54,38
-1,59,33
10,60,33
-2,65,37
-4,65,26
12,60,29
-16,58,25
-17,53,25
0,52,35
-3,50,32
-8,50,32
-7,47,35
-11,48,31
-12,49,30
-20,47,34
-30,51,36
-20,49,34
-18,49,37
-13,48,38
-15,49,40
-24,50,33
-14,50,38
-22,51,41
-17,49,34
-16,50,36
-19,51,38
-21,50,32
-17,48,35
-22,48,36
-22,46,36
-26,46,40
-22,46,37
-23,47,38
-27,46,36
-32,45,36
-39,47,31
-36,49,32
-26,47,30
-32,49,32
-41,49,32
-30,49,33
-29,49,34
-24,50,32
-20,51,34
-21,52,30
-24,55,33
-20,54,33
-10,49,31
-12,51,31
-17,55,23
-18,53,36
-25,45,29
-28,46,40
-18,50,30
2,51,26
3,57,26
-1,55,37
5,59,56
7,56,53
4,51,42
-15,46,27
-15,45,25
-10,48,29
6,49,42
9,53,36
6,49,29
11,43,32
-1,37,27
6,24,35
2,22,29
14,5,54
-23,-8,32
-24,-13,27
-19,-8,23
-11,-1,28
-7,5,28
-16,8,15
-8,42,24
-3,62,32
18,68,61
-14,79,39
10,37,99
105,23,121
127,9,64
127,20,64
101,45,30
79,30,5
69,29,-1
62,36,-19
19,50,-28
7,33,-44
40,45,-57
40,32,-51
28,22,-56
29,21,-71
39,3,-59
36,1,-60
40,-12,-62
37,-21,-51
35,-23,-49
38,-36,-48
50,-35,-44
49,-30,-45
46,-25,-44
45,-28,-23
36,-26,-33
42,-27,-44
52,-22,-54
56,-30,-47
21,-53,-70
33,-36,-50
49,-24,-50
80,-2,58
85,-26,-62
73,3,-20
58,37,9
60,9,-8
64,-9,-22
73,18,-8
56,18,-20
52,13,-16
57,24,-25
42,5,-41
55,0,-40
42,-9,-46
37,-6,-53
43,-12,-44
49,-19,-36
50,-15,-43
46,-18,-42
61,-6,-27
63,-2,-31
58,-3,-28
56,3,-35
59,0,-28
51,-5,-32
47,-10,-32
44,-12,-28
41,-18,-42
75,-28,-21
79,-38,-29
52,-31,-51
48,-8,-24
35,-1,-21
52,6,-11
56,11,-44
63,15,-50
67,7,-48
55,6,-37
53,7,-36
40,8,-31
33,10,-30
27,5,-42
47,-7,-34
44,-11,-47
47,-11,-45
55,-13,-35
28,-32,-9
39,-24,-3
60,-9,-29
68,-26,-27
82,-23,-14
78,-10,-16
64,-22,-12
60,-22,-5
22,-21,7
53,-21,-4
58,-17,-2
74,-23,-18
67,-18,-12
67,-18,-21
64,-8,-20
64,-16,-18
64,-16,-18
65,-18,-27
64,-25,10
45,-14,35
49,12,-11
77,-7,-4
77,6,-9
53,7,-1
72,-1,-47
64,16,-37
46,-6,-42
69,-16,-26
68,-17,-2
52,-5,36
110,-29,26
78,-8,15
51,2,-13
61,-7,-16
75,0,-10
66,18,-13
83,7,8
72,9,6
53,33,48
57,48,37
18,30,27
11,36,18
54,38,20
55,40,15
53,31,10
51,35,15
45,38,8
50,35,10
45,36,8
41,35,4
47,37,2
48,40,0
54,40,-2
48,42,-7
45,44,-6
53,44,-9
34,55,-8
33,57,-7
57,44,2
52,49,-7
39,45,-14
39,41,-5
44,41,0
40,41,-1
44,48,7
39,49,1
36,49,4
32,50,2
35,54,7
33,50,-6
55,59,-6
62,50,1
56,51,-8
58,60,-6
61,67,-6
57,58,5
26,47,4
36,56,5
34,51,8
17,46,6
12,42,10
11,34,12
15,28,31
11,23,32
7,30,36
25,38,27
27,41,33
10,45,28
14,53,21
13,65,12
10,70,17
30,61,35
26,72,18
15,72,11
25,60,13
33,55,14
29,51,10
32,44,24
25,52,19
22,57,14
21,61,8
22,69,9
33,66,10
39,56,18
37,49,26
38,47,27
27,48,20
26,46,22
9,47,28
26,52,20
37,57,27
16,57,25
12,57,25
16,56,29
17,59,26
26,57,36
24,59,33
14,55,26
9,49,21
7,47,23
7,51,23
9,57,21
14,56,21
20,61,17
20,61,17
16,58,16
14,62,14
18,62,15
22,61,20
15,62,14
12,61,12
14,60,13
11,64,10
19,63,14
19,64,15
21,68,17
13,67,26
6,64,24
2,67,19
5,63,19
18,57,9
23,52,0
37,44,9
46,38,14
47,31,19
40,32,21
37,41,22
43,47,26
38,53,21
27,54,16
36,62,19
31,56,27
14,55,19
11,49,35
5,42,38
-3,37,43
1,33,39
25,45,32
20,55,28
17,54,28
17,57,25
13,64,12
5,69,19
16,59,33
21,57,37
9,61,20
16,52,33
19,52,35
14,51,26
16,51,31
15,52,37
20,50,33
25,50,34
16,47,32
18,44,32
20,46,29
30,50,27
26,52,28
21,53,28
27,49,30
20,49,33
26,50,32
27,51,28
17,56,29
16,53,29
16,52,30
18,52,31
16,51,32
15,54,30
15,51,32
16,52,30
16,58,29
11,51,32
13,55,30
18,52,32
17,54,31
18,53,32
17,52,35
17,53,41
15,55,31
8,64,19
13,52,26
11,52,27
6,51,28
11,56,29
17,58,29
17,59,22
15,58,22
14,58,21
12,61,20
14,58,25
17,55,26
10,57,18
10,58,21
15,55,25
12,59,19
16,62,12
23,61,13
26,60,10
24,59,22
25,59,22
21,55,27
29,51,29
21,52,20
19,56,13
32,57,18
25,55,15
27,54,15
22,52,16
20,50,21
28,52,21
19,48,26
23,48,19
35,66,15
38,59,40
13,54,18
36,52,25
53,51,35
15,49,18
37,56,29
23,53,28
22,42,40
8,42,18
-9,38,28
-41,32,16
27,52,0
49,56,7
103,47,-1
77,56,4
65,52,11
44,48,18
39,39,21
39,37,23
33,38,24
26,37,28
9,36,23
3,26,61
27,29,49
26,27,52
20,24,37
20,20,31
25,13,45
25,6,53
28,9,37
56,4,32
82,8,45
58,9,48
51,8,48
49,7,46
55,7,37
61,10,36
65,10,35
59,10,31
59,11,30
59,9,30
56,8,30
54,5,30
52,4,30
50,2,31
48,1,32
48,-2,36
48,-3,37
48,-5,36
50,-7,36
58,-10,40
53,-9,40
38,-11,35
41,-9,32
43,-8,30
50,-7,29
62,-6,28
64,-5,27
59,-6,27
53,-6,28
52,-6,28
54,-5,28
54,-4,27
55,-4,25
64,-2,24
87,-9,21
84,-13,18
59,-14,7
47,-15,6
45,-9,4
58,-8,2
56,-9,-4
64,-10,-15
66,-13,-16
62,-12,-16
60,-9,-15
55,-10,-19
55,-12,-21
62,-12,-21
64,-12,-20
65,-11,-18
65,-8,-15
65,-8,-14
63,-10,-15
64,-11,-15
63,-12,-14
63,-11,-13
63,-12,-10
58,-13,-5
57,-13,-2
54,-12,4
55,-12,7
58,-12,8
58,-10,9
58,-7,8
60,-6,9
62,-4,10
66,-3,11
67,-3,12
67,-3,13
61,-6,12
58,-6,11
59,-4,10
60,-1,7
59,1,6
59,4,6
59,6,4
60,6,4
61,7,4
62,7,3
63,6,3
63,4,1
63,4,2
63,4,3
61,4,2
59,5,0
58,6,0
62,14,-1
63,16,-6
63,19,-8
68,23,-7
73,26,-8
70,27,-10
66,23,-11
61,22,-9
59,21,-9
59,16,-3
55,16,-4
55,14,-5
52,16,-3
49,17,-6
52,12,4
47,19,2
46,20,-7
64,22,4
63,21,-3
62,24,-1
64,25,-2
63,23,-5
64,23,-6
62,22,-7
59,22,-7
55,23,-11
56,24,-10
58,23,-11
59,21,-9
57,21,-11
55,22,-10
54,22,-11
50,25,-10
53,27,-7
51,27,-7
52,29,-5
55,30,-5
55,31,-5
52,32,-8
51,35,-12
53,37,-10
57,39,-7
53,41,-10
53,43,-13
54,45,-23
61,38,-24
63,33,-16
52,30,-11
46,36,-19
47,36,-22
60,35,-16
40,30,-13
35,28,-10
47,30,-4
44,35,-9
48,35,-7
50,30,-2
52,34,-1
52,33,0
51,35,2
55,34,1
57,34,1
57,33,2
61,35,7
61,37,7
61,33,-2
65,22,3
62,21,5
57,17,3
54,15,1
54,17,-2
52,21,-3
48,19,0
49,22,2
48,26,1
47,27,2
48,28,1
53,30,4
53,29,5
55,31,8
56,33,4
57,35,3
62,39,0
67,38,0
71,40,-4
72,40,-10
62,30,-3
58,29,-4
61,29,-10
63,26,-13
57,25,-11
44,19,-5
39,21,4
40,31,7
39,64,6
64,24,-6
73,11,-1
58,3,-5
69,-4,1
68,-6,6
52,-6,12
49,1,12
52,8,8
59,4,2
73,2,-4
82,0,-5
78,1,-11
68,0,-13
64,-1,-16
59,-2,-18
49,-3,-17
46,-2,-16
48,-1,-12
49,-2,-16
51,2,-16
52,12,-17
70,20,-20
78,22,-15
74,26,-14
89,30,-28
96,32,-28
97,29,-32
87,13,-25
82,9,-20
72,2,-10
67,-8,20
76,-13,48
57,0,29
5,-16,9
13,-18,14
22,-10,17
31,-6,14
36,-8,15
19,-4,23
4,-6,28
5,-12,33
11,-32,22
25,-75,3
25,-101,0
34,-128,7
53,-128,12
52,-128,8
58,-95,11
46,-64,11
32,-55,8
17,-46,16
7,-50,17
3,-68,10
28,-69,15
36,-68,17
47,-67,21
61,-67,25
65,-68,27
62,-88,26
38,-81,20
35,-83,22
33,-101,18
25,-119,7
12,-109,2
9,-96,2
7,-80,2
6,-72,0
10,-57,0
15,-50,2
14,-50,1
12,-56,-2
14,-63,0
15,-68,2
14,-58,14
8,-45,22
6,-39,24
13,-41,27
11,-69,27
4,-79,27
7,-88,27
11,-88,26
10,-87,22
8,-81,11
12,-70,0
19,-70,6
30,-70,24
32,-77,24
35,-81,23
45,-78,21
49,-67,17
51,-64,19
54,-72,25
50,-70,23
47,-86,18
31,-87,11
24,-97,6
18,-100,5
6,-87,5
6,-75,6
9,-72,5
14,-70,5
16,-72,4
18,-74,4
17,-72,1
11,-72,3
6,-69,3
2,-50,8
2,-44,7
4,-44,10
15,-56,20
16,-71,24
14,-75,23
9,-83,19
7,-84,20
5,-77,24
4,-69,20
6,-67,15
17,-75,8
29,-77,11
35,-79,16
47,-89,22
47,-71,19
49,-66,22
55,-85,29
43,-69,25
37,-68,23
22,-81,18
18,-86,14
19,-92,12
15,-86,13
11,-80,16
9,-78,13
9,-72,7
12,-63,4
14,-60,4
13,-60,3
11,-66,2
8,-64,1
8,-55,5
9,-50,7
8,-50,7
13,-50,17
16,-67,27
14,-74,29
13,-83,25
11,-96,22
11,-94,22
12,-73,17
9,-59,4
11,-58,2
24,-61,2
36,-58,-6
42,-58,-7
60,-52,4
62,-50,7
59,-54,2
67,-80,3
55,-51,3
45,-51,0
40,-78,2
38,-79,4
36,-85,4
26,-77,10
14,-73,12
9,-71,11
6,-68,15
-1,-61,12
-2,-52,9
7,-54,14
15,-64,12
21,-71,11
19,-58,11
25,-51,7
27,-48,7
41,-51,16
25,-59,16
18,-65,13
10,-85,4
9,-91,1
14,-82,2
21,-59,1
25,-50,-1
34,-52,1
44,-61,2
50,-59,5
57,-51,10
48,-52,9
47,-48,10
55,-65,17
60,-60,20
58,-66,17
47,-81,8
35,-76,4
30,-79,4
18,-68,7
13,-60,10
14,-61,13
11,-62,12
9,-62,10
10,-62,10
1,-59,7
-24,-62,2
-30,-62,0
-6,-66,8
17,-76,10
26,-81,12
34,-91,18
27,-97,21
16,-93,18
-8,-72,17
-9,-52,14
-7,-49,9
2,-49,5
16,-48,2
21,-48,3
29,-50,5
38,-53,16
43,-58,22
36,-68,21
39,-67,24
41,-69,26
40,-85,29
34,-68,25
34,-82,21
21,-79,13
20,-79,7
18,-81,5
16,-68,9
6,-62,8
3,-59,7
4,-57,5
9,-58,6
10,-59,4
13,-67,7
11,-74,13
0,-80,7
-16,-70,-1
-7,-62,7
4,-62,16
18,-65,30
14,-84,21
14,-82,17
11,-74,11
9,-62,14
9,-57,15
11,-53,14
14,-51,13
17,-55,11
21,-66,16
25,-66,21
37,-68,33
45,-76,36
45,-76,35
42,-72,32
31,-81,30
20,-63,27
24,-75,24
27,-85,19
28,-84,15
26,-96,8
15,-87,4
9,-76,4
4,-64,2
5,-61,-1
9,-61,1
12,-66,3
8,-71,8
3,-70,9
-8,-65,2
-3,-57,8
2,-57,14
6,-56,19
9,-63,15
10,-70,14
11,-75,15
13,-79,17
15,-78,20
15,-74,21
11,-68,15
9,-66,13
13,-71,12
17,-74,15
19,-73,17
32,-74,28
44,-75,31
50,-73,31
55,-68,32
48,-83,29
40,-82,28
24,-80,23
16,-85,19
17,-86,16
18,-101,9
10,-93,6
8,-82,6
7,-69,5
9,-65,5
9,-64,3
8,-59,2
-11,-53,5
-18,-46,3
-1,-67,4
-1,-63,13
4,-57,16
11,-64,16
11,-69,13
11,-77,11
11,-93,10
13,-93,11
16,-91,17
18,-79,23
20,-73,24
15,-64,21
13,-59,18
14,-58,18
15,-56,19
23,-60,20
30,-66,24
42,-72,30
45,-73,30
48,-75,33
39,-90,34
21,-85,24
19,-83,21
20,-91,21
15,-100,15
11,-105,10
9,-93,6
11,-74,3
11,-68,2
10,-63,0
12,-61,0
11,-62,1
6,-61,-1
6,-53,6
5,-52,8
4,-49,13
8,-47,19
8,-46,19
8,-52,12
10,-68,16
12,-74,19
13,-82,18
13,-85,17
14,-83,18
14,-77,17
10,-71,14
11,-72,13
17,-77,14
24,-76,15
30,-79,19
42,-81,29
49,-75,33
49,-73,36
49,-78,41
38,-85,37
28,-82,32
14,-85,24
16,-88,17
23,-98,17
28,-112,9
30,-89,1
34,-81,-8
55,-81,-25
66,-97,-29
58,-98,-32
39,-89,-25
40,-77,-14
32,-73,-5
30,-48,11
28,-31,26
36,-25,31
43,-14,40
36,-7,41
28,1,42
25,5,47
27,5,46
31,4,45
30,7,44
26,6,43
23,10,42
27,14,46
28,17,44
35,17,45
30,22,44
25,27,43
31,31,44
33,33,41
30,34,40
41,42,48
47,42,43
40,44,41
33,45,38
31,44,31
32,40,30
34,30,39
24,22,35
21,22,34
19,19,17
19,23,8
24,27,11
37,24,12
43,14,13
44,12,17
42,7,20
32,-6,11
33,-17,12
24,-42,19
6,-86,21
2,-116,20
16,-128,7
41,-128,0
66,-108,27
34,-42,55
-7,-68,12
-8,-76,0
1,-87,3
19,-69,29
14,-59,43
0,-62,43
-5,-58,50
-4,-65,51
12,-68,61
4,-68,56
4,-76,56
9,-87,53
11,-87,39
8,-86,31
-3,-87,22
1,-91,28
11,-94,33
20,-87,29
22,-76,22
20,-72,22
23,-68,27
20,-64,26
28,-59,37
26,-48,39
21,-38,47
25,-35,49
18,-20,47
14,-12,48
2,6,45
-10,24,34
-16,30,29
-21,36,29
-19,36,37
-12,32,41
-8,28,45
0,19,60
4,22,62
4,34,59
3,41,48
5,46,43
5,47,33
25,47,40
28,38,40
11,27,52
4,42,57
15,48,54
36,61,55
36,62,52
37,59,51
37,45,44
36,37,37
35,31,30
33,30,21
47,25,17
58,19,30
47,16,27
38,18,20
38,20,24
36,22,19
44,19,17
50,21,14
65,21,15
73,22,21
67,23,22
61,23,18
66,30,6
69,26,8
75,29,4
68,28,1
63,25,0
56,23,-3
55,18,3
54,19,5
47,20,1
46,24,2
48,27,3
47,28,4
49,31,2
52,35,1
60,37,2
54,38,-2
58,41,-7
70,37,-9
60,27,-9
60,24,-10
60,30,-16
55,29,-18
56,26,-24
48,22,-22
47,21,-20
46,19,-24
51,28,-21
44,24,-28
50,27,-24
45,25,-28
49,25,-34
52,33,-34
48,41,-39
48,45,-38
47,47,-40
49,43,-37
51,39,-32
58,30,-26
58,22,-15
60,17,-11
60,17,-19
53,21,-22
47,20,-19
37,20,-39
26,41,-26
31,33,-26
52,32,-16
51,38,-12
62,34,-14
46,28,-32
41,56,-37
34,43,-46
44,27,-30
49,39,-22
49,40,-23
49,44,-20
43,37,-13
42,37,-14
45,40,-18
43,42,-11
43,41,-9
43,39,-11
43,43,-15
43,46,-14
46,47,-11
48,49,-14
49,49,-14
48,47,-15
46,46,-13
45,46,-9
43,46,-10
43,45,-8
42,45,-4
38,48,1
39,50,4
38,48,5
38,36,-4
39,41,-17
47,39,-12
37,38,-16
41,37,-12
49,42,-9
37,42,-7
47,50,-3
42,44,-8
39,46,-9
42,52,-9
38,49,-11
43,45,-8
47,45,-6
39,47,-9
41,48,-4
37,44,-6
41,49,-1
40,48,-3
39,50,-1
41,50,1
39,51,2
39,49,2
40,49,2
39,50,3
40,49,4
38,52,6
39,49,6
42,48,8
41,49,10
36,50,16
35,50,17
37,48,7
34,47,6
31,49,8
31,50,8
52,48,12
49,52,9
36,45,6
36,52,8
37,50,8
39,51,9
36,49,6
36,50,5
45,52,8
37,49,5
39,51,6
40,53,5
45,54,8
40,52,8
32,46,5
36,47,8
37,47,10
38,45,9
39,47,10
38,46,10
40,47,10
41,47,10
42,47,10
40,50,8
39,50,8
39,49,7
38,48,7
39,48,8
37,48,8
38,49,9
38,50,6
40,50,7
42,47,7
42,47,7
41,47,7
44,46,5
48,41,7
38,65,6
38,45,3
39,51,4
43,51,3
39,49,4
42,49,5
44,44,7
43,42,5
43,47,4
42,50,6
39,42,4
43,50,5
41,46,5
40,48,5
40,47,5
41,48,4
40,47,6
42,48,5
42,47,4
41,49,5
41,49,5
41,48,5
41,48,6
40,50,4
38,49,4
41,47,5
40,50,5
42,42,8
44,48,9
45,48,11
46,38,9
46,40,12
50,41,14
47,38,11
46,41,11
46,40,10
45,40,13
43,41,17
43,43,20
43,36,19
27,41,14
34,43,0
45,44,-3
51,40,5
50,41,2
47,45,1
48,44,2
48,43,1
47,45,1
48,42,-1
48,43,-1
46,43,-3
47,57,-9
30,38,-11
55,45,6
46,40,-5
40,42,-7
44,49,-3
44,51,-4
44,47,-6
45,41,-5
44,47,-4
46,29,0
46,48,-3
44,47,-3
46,53,2
42,40,0
41,40,-3
47,48,0
47,36,1
50,46,3
45,41,-1
48,42,2
46,41,2
45,41,1
47,37,3
47,39,6
47,37,1
47,41,2
45,39,1
49,46,1
51,44,-3
48,42,0
51,41,-4
48,44,3
48,45,3
47,38,-1
47,37,2
45,35,-1
45,26,2
60,44,-3
41,45,-8
60,62,13
47,23,2
49,25,1
55,30,5
53,33,6
53,28,5
57,32,2
54,29,1
54,32,2
54,32,-2
58,31,6
55,28,5
40,31,8
61,12,7
45,35,5
49,48,3
43,41,-1
52,36,-3
51,50,-1
43,40,-1
50,39,-7
40,35,0
50,53,2
49,45,0
47,43,6
55,53,5
45,43,-9
53,39,-3
46,40,-1
46,39,-1
44,41,-3
51,40,-1
52,41,2
46,41,-2
47,44,-5
46,41,-3
44,44,-5
43,47,-8
43,45,-7
40,48,-7
41,48,-8
42,46,-9
43,47,-8
42,45,-9
43,46,-7
42,47,-10
42,46,-8
39,45,-6
37,47,-9
37,47,-10
37,48,-10
44,48,-2
46,46,0
43,46,3
43,48,-6
44,48,-9
39,47,-15
40,47,-14
38,47,-7
49,48,1
47,49,-5
44,51,-9
42,50,-6
48,45,-8
46,46,-7
40,40,-10
47,41,-14
42,43,-15
41,41,-13
30,42,-16
30,45,-13
32,48,-17
38,51,-12
32,49,-22
35,49,-24
47,45,-23
44,46,-20
42,44,-24
34,47,-22
35,47,-24
40,48,-23
39,48,-23
41,47,-26
43,43,-20
46,40,-15
43,45,-18
32,45,-23
37,45,-21
36,44,-21
42,44,-23
36,44,-22
34,44,-20
49,44,-13
47,46,-13
42,45,-16
44,45,-15
45,46,-16
37,45,-16
43,44,-15
45,44,-11
39,44,-8
40,45,-13
43,45,-10
39,48,-9
37,48,-6
39,50,-4
35,50,-5
56,48,4
51,47,1
44,44,5
34,47,5
37,52,0
41,54,0
45,57,-4
46,55,-7
49,48,-2
42,41,4
39,39,3
44,40,-2
46,34,2
45,35,3
41,34,0
38,37,1
41,38,3
46,41,1
50,48,0
53,49,-2
57,47,-5
58,42,-5
59,43,-7
66,43,-11
69,35,-6
66,30,-6
53,30,-15
53,33,-13
53,34,-13
45,28,-11
42,26,-3
43,29,-1
48,23,-1
49,36,4
38,22,0
48,29,-1
50,40,0
54,32,-2
63,38,2
61,35,3
64,32,3
62,39,-2
73,30,3
75,22,2
69,22,1
63,17,1
59,18,1
59,15,4
53,16,5
50,19,4
48,23,3
47,25,6
45,27,4
46,33,2
46,38,2
48,39,4
47,45,5
49,47,6
51,47,10
55,48,8
54,49,4
50,51,2
49,45,5
49,43,2
46,38,-3
49,36,-4
48,33,-1
42,30,7
41,33,6
41,35,6
42,37,7
43,38,7
43,37,6
48,39,4
53,38,6
54,39,5
57,40,7
60,41,9
59,40,8
61,38,6
57,35,8
56,32,7
52,27,7
55,28,6
55,27,8
49,25,9
44,28,11
44,29,9
45,33,10
48,36,9
47,37,8
47,40,8
50,41,10
49,42,10
50,43,11
49,43,9
49,44,5
53,48,-1
55,44,3
54,42,2
55,42,-9
56,41,-9
58,40,-5
44,35,7
39,33,16
40,34,19
42,36,16
40,37,15
42,38,16
47,39,14
49,41,13
51,40,14
47,37,19
45,41,17
49,43,17
50,46,20
50,38,22
48,35,23
