1556145193.00
64.000000
-0.00
-0.00
-0.00
-0.00
-0.00
-0.00
-0.00
-0.00
-0.00
-0.00
0.00
0.01
0.01
-0.00
-0.03
-0.05
-0.05
0.00
0.13
0.36
0.66
1.01
1.37
1.72
2.06
2.40
2.79
3.24
3.80
4.42
5.06
5.66
6.20
6.68
7.15
7.68
8.31
9.14
10.09
11.04
11.88
12.56
13.14
13.76
14.65
15.96
17.91
20.32
22.90
25.38
27.58
29.57
31.68
34.32
37.81
42.54
48.15
54.10
59.83
64.97
69.58
74.14
79.34
85.71
93.76
103.00
112.62
121.73
129.77
136.75
143.30
150.75
157.77
166.64
177.95
191.79
206.97
220.57
228.25
225.36
208.53
176.87
132.76
80.05
23.07
-34.94
-92.44
-149.16
-205.23
-260.37
-313.74
-363.87
-409.83
-450.91
-486.50
-515.74
-537.23
-549.22
-549.96
-538.37
-514.21
-478.67
-433.88
-382.45
-327.02
-269.84
-212.63
-156.66
-102.95
-52.37
-5.90
35.58
71.43
101.35
125.50
144.38
158.69
169.15
176.37
180.75
182.57
182.07
179.51
175.23
169.65
163.18
156.14
148.80
141.29
133.69
126.03
118.35
110.71
103.18
95.80
88.63
81.70
75.06
68.72
62.71
57.02
51.66
46.61
41.85
37.37
33.17
29.27
25.69
22.44
19.50
16.84
14.42
12.19
10.13
8.25
6.60
5.21
4.12
3.29
2.64
2.04
1.39
0.65
-0.15
-0.88
-1.39
-1.61
-1.56
-1.42
-1.41
-1.72
-2.43
-3.39
-4.33
-4.95
-5.06
-4.72
-4.20
-3.90
-4.18
-5.13
-6.56
-8.01
-9.02
-9.32
-8.91
-8.14
-7.48
-7.36
-8.06
-9.70
-12.16
-15.05
-17.48
-18.23
-16.07
-10.38
-1.66
8.38
17.38
23.29
25.19
23.60
20.01
16.06
12.71
10.05
7.61
4.94
2.01
-0.83
-3.09
-4.54
-5.25
-5.47
-5.43
-5.16
-4.59
-3.80
-3.07
-2.85
-3.52
-5.08
-7.16
-9.09
-10.22
-10.08
-8.45
-5.17
-0.08
6.87
15.31
24.32
32.50
38.56
41.77
42.37
41.34
39.94
39.03
38.78
38.71
38.15
36.56
33.77
30.07
25.59
20.51
14.93
8.93
2.66
-3.53
-9.23
-13.99
-17.52
-19.81
-21.01
-21.47
-21.47
-21.18
-20.64
-19.89
-19.04
-18.19
-17.43
-16.74
-16.02
-15.23
-14.50
-14.08
-14.23
-15.06
-16.44
-18.08
-19.69
-21.08
-22.10
-22.56
-22.07
-20.25
-16.86
-12.16
-6.83
-1.76
2.26
4.89
6.33
7.10
7.72
8.46
9.33
10.08
10.57
10.74
10.72
10.72
10.94
11.46
12.29
13.30
14.37
15.45
16.49
17.48
18.41
19.31
20.30
21.51
23.11
24.87
26.58
27.85
28.23
27.35
25.02
21.30
16.46
10.93
5.20
-0.27
-5.16
-9.41
-13.16
-16.77
-20.59
-24.79
-29.34
-33.98
-38.40
-42.43
-46.18
-49.92
-54.00
-58.62
-63.71
-68.90
-73.46
-76.47
-76.95
-74.17
-67.83
-58.25
-46.37
-33.54
-21.14
-10.30
-1.57
5.03
9.95
13.86
17.40
20.96
24.61
28.07
30.91
32.77
33.58
33.58
33.29
33.27
33.84
35.04
36.65
38.30
39.75
40.89
41.71
42.24
42.45
42.24
41.49
40.19
38.43
36.39
34.25
32.15
30.10
28.08
26.05
24.01
22.03
20.15
18.33
16.30
13.68
10.04
5.12
-1.06
-8.21
-15.85
-23.48
-30.78
-37.59
-43.98
-50.19
-56.44
-62.90
-69.48
-75.75
-80.97
-84.21
-84.60
-81.69
-75.54
-66.81
-56.51
-45.73
-35.36
-25.91
-17.56
-10.17
-3.50
2.73
8.71
14.54
20.17
25.44
30.15
34.08
37.05
39.05
40.22
40.87
41.38
42.07
43.01
44.00
44.59
44.38
43.12
40.90
38.04
34.91
31.77
28.68
25.57
22.37
19.07
15.75
12.46
9.24
6.06
2.91
-0.19
-3.19
-6.00
-8.62
-11.07
-13.44
-15.87
-18.47
-21.30
-24.30
-27.34
-30.24
-32.88
-35.36
-37.88
-40.64
-43.60
-46.28
-47.79
-47.17
-43.72
-37.34
-28.62
-18.60
-8.40
1.10
9.41
16.42
22.20
26.85
30.45
33.05
34.75
35.69
35.97
35.65
34.72
33.08
30.72
27.71
24.21
20.49
16.82
13.47
10.64
8.47
6.97
6.06
5.54
5.20
4.90
4.56
4.21
3.86
3.47
2.95
2.19
1.15
-0.10
-1.41
-2.62
-3.66
-4.57
-5.43
-6.40
-7.57
-9.01
-10.75
-12.82
-15.22
-17.98
-21.07
-24.49
-28.27
-32.53
-37.36
-42.68
-48.15
-53.01
-56.27
-56.95
-54.45
-48.86
-40.87
-31.65
-22.37
-13.86
-6.45
0.04
6.01
11.87
17.83
23.84
29.65
34.97
39.56
43.29
46.16
48.24
49.61
50.37
50.66
50.63
50.46
50.25
50.05
49.82
49.37
48.54
47.15
45.13
42.50
39.37
35.87
32.14
28.32
24.46
20.61
16.79
13.08
9.59
6.45
3.76
1.48
-0.61
-2.85
-5.62
-9.15
-13.41
-18.08
-22.66
-26.64
-29.74
-32.00
-33.78
-35.65
-38.22
-41.89
-46.74
-52.48
-58.39
-63.48
-66.67
-67.06
-64.23
-58.42
-50.48
-41.65
-33.16
-25.86
-20.05
-15.58
-12.04
-9.03
-6.26
-3.57
-0.80
2.16
5.34
8.65
11.87
14.72
17.02
18.80
20.22
21.56
23.04
24.79
26.82
29.09
31.50
33.93
36.23
38.29
39.99
41.23
41.98
42.19
41.84
40.87
39.25
37.01
34.25
31.17
27.99
24.89
21.91
18.97
15.91
12.66
9.25
5.88
2.73
-0.14
-2.91
-5.95
-9.64
-14.27
-19.78
-25.73
-31.40
-35.91
-38.45
-38.48
-35.90
-31.05
-24.65
-17.57
-10.58
-4.25
1.20
5.82
9.78
13.34
16.72
20.08
23.49
26.91
30.20
33.11
35.43
37.01
37.89
38.23
38.29
38.23
38.08
37.75
37.10
36.04
34.60
32.89
31.01
29.01
26.82
24.33
21.40
17.97
14.00
9.47
4.44
-0.97
-6.49
-11.81
-16.68
-20.96
-24.70
-28.07
-31.24
-34.25
-36.97
-39.19
-40.75
-41.68
-42.23
-42.86
-44.12
-46.45
-50.01
-54.55
-59.38
-63.47
-65.69
-65.19
-61.55
-54.99
-46.29
-36.50
-26.78
-18.05
-10.92
-5.57
-1.84
0.73
2.73
4.75
7.20
10.28
13.94
17.96
22.05
25.82
28.92
31.05
32.05
32.00
31.23
30.27
29.58
29.41
29.67
30.01
30.04
29.47
28.24
26.48
24.36
22.00
19.44
16.67
13.76
10.81
7.97
5.30
2.72
0.06
-2.88
-6.18
-9.77
-13.45
-16.96
-20.08
-22.72
-24.83
-26.42
-27.47
-27.99
-28.09
-28.03
-28.21
-29.00
-30.56
-32.69
-34.73
-35.77
-34.95
-31.70
-26.00
-18.32
-9.44
-0.24
8.57
16.51
23.32
28.92
33.34
36.74
39.36
41.46
43.25
44.73
45.76
46.15
45.71
44.49
42.66
40.51
38.33
36.30
34.50
32.95
31.69
30.78
30.27
30.11
30.18
30.24
30.03
29.42
28.38
27.08
25.72
24.42
23.19
21.86
20.16
17.81
14.56
10.23
4.72
-1.98
-9.66
-17.94
-26.33
-34.34
-41.72
-48.53
-55.06
-61.66
-68.44
-75.10
-81.01
-85.32
-87.24
-86.33
-82.58
-76.45
-68.73
-60.37
-52.25
-45.00
-38.87
-33.74
-29.24
-24.89
-20.34
-15.45
-10.31
-5.12
-0.12
4.52
8.67
12.18
14.91
16.72
17.62
17.79
17.61
17.57
17.96
18.78
19.70
20.20
19.88
18.67
16.86
14.97
13.41
12.38
11.72
11.15
10.41
9.46
8.46
7.67
7.24
7.16
7.21
7.07
6.44
5.21
3.35
0.98
-1.78
-4.82
-8.12
-11.63
-15.35
-19.27
-23.39
-27.75
-32.36
-37.05
-41.38
-44.64
-46.00
-44.78
-40.77
-34.32
-26.30
-17.77
-9.70
-2.74
2.93
7.45
11.16
14.39
17.31
19.96
22.20
23.92
24.96
25.28
24.82
23.56
21.52
18.80
15.67
12.50
9.71
7.58
6.11
5.06
4.03
2.67
0.83
-1.41
-3.84
-6.25
-8.54
-10.78
-13.14
-15.79
-18.87
-22.40
-26.28
-30.32
-34.33
-38.09
-41.45
-44.35
-46.74
-48.58
-49.79
-50.19
-49.61
-47.87
-44.91
-40.75
-35.60
-29.75
-23.62
-17.64
-12.28
-7.88
-4.66
-2.53
-1.18
-0.05
1.51
4.00
7.71
12.53
18.04
23.65
28.75
32.92
36.01
38.13
39.58
40.71
41.76
42.79
43.71
44.29
44.38
43.87
42.82
41.36
39.69
37.99
36.40
35.05
34.00
33.28
32.77
32.28
31.57
30.41
28.73
26.60
24.18
21.67
19.18
16.71
14.22
11.62
8.90
6.11
3.34
0.65
-1.96
-4.58
-7.29
-10.14
-13.07
-15.93
-18.56
-20.85
-22.79
-24.56
-26.36
-28.46
-31.03
-34.12
-37.58
-41.03
-43.86
-45.33
-44.74
-41.63
-35.98
-28.22
-19.16
-9.69
-0.60
7.63
14.79
20.85
25.85
29.86
32.96
35.28
36.99
38.24
39.09
39.52
39.47
38.98
38.18
37.25
36.39
35.68
35.09
34.57
34.05
33.50
32.90
32.20
31.31
30.17
28.83
27.38
25.95
24.61
23.31
21.95
20.41
18.67
16.75
14.73
12.69
10.69
8.81
7.15
5.79
4.66
3.52
2.01
-0.21
-3.31
-7.20
-11.59
-16.18
-20.82
-25.57
-30.65
-36.27
-42.46
-49.05
-55.66
-61.82
-67.00
-70.63
-72.18
-71.15
-67.32
-60.79
-52.12
-42.20
-32.06
-22.63
-14.52
-7.94
-2.72
1.49
5.08
8.33
11.39
14.23
16.68
18.47
19.33
19.14
17.99
16.22
14.33
12.78
11.87
11.63
11.90
12.43
13.00
13.41
13.50
13.12
12.16
10.67
8.80
6.84
5.02
3.43
1.95
0.39
-1.43
-3.53
-5.79
-8.06
-10.24
-12.31
-14.38
-16.52
-18.76
-21.03
-23.20
-25.08
-26.55
-27.60
-28.31
-28.94
-29.77
-31.01
-32.60
-34.18
-35.07
-34.54
-32.05
-27.47
-21.13
-13.73
-6.07
1.15
7.49
12.79
17.10
20.55
23.36
25.71
27.77
29.67
31.49
33.20
34.69
35.77
36.30
36.20
35.50
34.31
32.73
30.80
28.55
26.00
23.24
20.44
17.83
15.58
13.80
12.50
11.60
11.05
10.77
10.64
10.50
10.19
9.57
8.63
7.49
6.36
5.42
4.74
4.21
3.55
2.43
0.63
-1.93
-5.09
-8.50
-11.85
-14.89
-17.61
-20.16
-22.82
-25.88
-29.53
-33.76
-38.27
-42.48
-45.59
-46.84
-45.80
-42.53
-37.62
-31.99
-26.45
-21.46
-17.09
-13.04
-8.98
-4.74
-0.37
3.92
7.88
11.30
14.00
15.82
16.63
16.31
14.90
12.57
9.63
6.49
3.57
1.23
-0.36
-1.18
-1.46
-1.60
-2.06
-3.20
-5.19
-7.93
-11.10
-14.24
-16.88
-18.64
-19.26
-18.53
-16.31
-12.50
-7.07
-0.13
8.02
16.93
26.03
34.80
42.85
49.97
56.15
61.48
66.05
69.85
72.80
74.68
75.13
73.71
69.98
63.73
55.21
45.23
35.04
26.01
19.18
14.99
13.21
13.18
14.11
15.37
16.58
17.53
18.06
18.05
17.39
16.18
14.66
13.17
11.97
11.12
10.44
9.63
8.44
6.77
4.72
2.53
0.40
-1.57
-3.46
-5.42
-7.66
-10.30
-13.38
-16.86
-20.75
-25.09
-29.99
-35.54
-41.70
-48.27
-54.86
-60.96
-66.14
-70.12
-72.87
-74.59
-75.58
-76.09
-76.24
-75.97
-75.15
-73.68
-71.55
-68.90
-65.97
-63.04
-60.37
-58.18
-56.66
-55.91
-55.83
-56.11
-56.16
-55.20
-52.55
-47.81
-41.06
-32.84
-23.96
-15.25
-7.29
-0.38
5.48
10.48
14.89
18.96
22.92
26.85
30.70
34.26
37.23
39.33
40.40
40.52
39.95
39.01
38.01
37.13
36.39
35.75
35.11
34.35
33.39
32.19
30.77
29.25
27.74
26.32
25.03
23.80
22.56
21.27
19.94
18.60
17.20
15.64
13.84
11.81
9.73
7.81
6.21
4.89
3.60
1.99
-0.13
-2.71
-5.50
-8.19
-10.56
-12.69
-14.90
-17.61
-21.11
-25.37
-29.90
-33.90
-36.42
-36.64
-34.23
-29.38
-22.78
-15.36
-8.02
-1.48
3.88
7.97
10.97
13.19
14.96
16.60
18.26
19.91
21.40
22.54
23.22
23.43
23.26
22.89
22.42
21.94
21.51
21.19
21.02
21.05
21.27
21.60
21.87
21.91
21.55
20.73
19.48
17.88
16.06
14.12
12.15
10.20
8.31
6.52
4.86
3.36
1.98
0.63
-0.85
-2.68
-5.00
-7.82
-11.02
-14.30
-17.37
-19.96
-22.02
-23.66
-25.19
-26.98
-29.26
-31.97
-34.67
-36.64
-37.08
-35.35
-31.30
-25.24
-17.90
-10.14
-2.71
3.94
9.68
14.59
18.85
22.61
25.97
28.95
31.58
33.81
35.58
36.82
37.49
37.63
37.35
36.88
36.45
36.25
36.36
36.70
37.08
37.30
37.20
36.70
35.80
34.52
32.90
30.96
28.74
26.28
23.61
20.80
17.93
15.06
12.30
9.70
7.27
4.91
2.42
-0.44
-3.81
-7.72
-11.98
-16.30
-20.45
-24.31
-27.95
-31.66
-35.74
-40.44
-45.72
-51.20
-56.19
-59.83
-61.38
-60.42
-57.00
-51.61
-44.95
-37.81
-30.81
-24.34
-18.56
-13.49
-9.02
-4.96
-1.11
2.66
6.38
9.93
13.10
15.75
17.80
19.28
20.37
21.21
21.99
22.83
23.81
24.91
26.00
26.83
27.07
26.43
24.72
21.96
18.36
14.21
9.83
5.49
1.37
-2.45
-5.96
-9.17
-12.13
-14.84
-17.32
-19.59
-21.70
-23.71
-25.63
-27.42
-28.95
-30.12
-30.90
-31.35
-31.64
-31.95
-32.46
-33.28
-34.52
-36.18
-38.19
-40.17
-41.55
-41.60
-39.73
-35.71
-29.83
-22.84
-15.67
-9.10
-3.55
0.95
4.66
7.89
10.84
13.60
16.13
18.40
20.38
22.06
23.36
24.22
24.58
24.47
24.05
23.55
23.18
23.05
23.18
23.45
23.73
23.92
23.86
23.45
22.59
21.25
19.52
17.60
15.68
13.90
12.27
10.73
9.21
7.63
6.01
4.33
2.55
0.62
-1.50
-3.75
-6.03
-8.20
-10.22
-12.17
-14.24
-16.64
-19.60
-23.21
-27.41
-31.97
-36.38
-40.00
-42.13
-42.26
-40.28
-36.48
-31.53
-26.19
-21.09
-16.61
-12.77
-9.40
-6.25
-3.12
0.12
3.46
6.83
10.15
13.30
16.24
18.87
21.16
23.08
24.71
26.23
27.90
29.98
32.63
35.85
39.47
43.25
47.00
50.52
53.65
56.11
57.56
57.62
56.05
52.86
48.25
42.57
36.14
29.19
21.90
14.56
7.56
1.34
-3.82
-7.93
-11.32
-14.46
-17.69
-21.09
-24.40
-27.31
-29.60
-31.39
-33.04
-35.04
-37.78
-41.34
-45.44
-49.47
-52.56
-53.84
-52.64
-48.77
-42.55
-34.83
-26.69
-19.08
-12.61
-7.40
-3.22
0.25
3.21
5.68
7.61
8.95
9.81
10.34
10.63
10.66
10.24
9.16
7.34
4.91
2.20
-0.37
-2.44
-3.85
-4.61
-4.86
-4.82
-4.65
-4.46
-4.24
-3.89
-3.34
-2.53
-1.56
-0.59
0.12
0.41
0.25
-0.21
-0.72
-1.07
-1.19
-1.25
-1.53
-2.33
-3.73
-5.63
-7.74
-9.72
-11.39
-12.72
-13.81
-14.82
-15.93
-17.31
-19.20
-21.79
-25.12
-28.85
-32.20
-34.13
-33.70
-30.45
-24.72
-17.41
-9.73
-2.66
3.28
8.09
12.07
15.59
18.91
22.13
25.20
28.02
30.42
32.27
33.42
33.80
33.40
32.31
30.68
28.70
26.56
24.41
22.28
19.99
17.30
13.98
9.96
5.42
0.69
-3.87
-8.00
-11.53
-14.28
-16.00
-16.46
-15.58
-13.56
-10.90
-8.23
-6.01
-4.44
-3.43
-2.86
-2.73
-3.19
-4.35
-6.15
-8.23
-10.17
-11.64
-12.61
-13.29
-13.98
-14.88
-16.04
-17.43
-18.96
-20.57
-22.02
-22.86
-22.34
-19.73
-14.55
-6.91
2.50
12.58
22.20
30.52
37.12
42.02
45.48
47.84
49.44
50.51
51.22
51.68
51.91
51.83
51.32
50.24
48.55
46.32
43.76
41.19
38.90
37.12
35.93
35.28
34.99
34.80
34.45
33.73
32.55
30.88
28.86
26.64
24.32
21.93
19.38
16.59
13.54
10.32
7.12
4.09
1.29
-1.31
-3.80
-6.23
-8.59
-10.84
-13.02
-15.21
-17.54
-20.08
-22.81
-25.56
-28.20
-30.68
-33.11
-35.69
-38.60
-41.90
-45.39
-48.61
-50.95
-51.69
-50.20
-46.15
-39.64
-31.21
-21.79
-12.37
-3.84
3.29
8.83
12.87
15.64
17.38
18.34
18.78
18.96
19.09
19.32
19.60
19.75
19.59
19.00
18.02
16.83
15.69
14.75
14.09
13.62
13.16
12.51
11.52
10.11
8.30
6.18
3.85
1.45
-0.96
-3.32
-5.59
-7.74
-9.74
-11.61
-13.36
-15.09
-16.87
-18.78
-20.86
-23.09
-25.41
-27.73
-29.98
-32.03
-33.81
-35.26
-36.42
-37.51
-38.88
-40.89
-43.78
-47.42
-51.26
-54.45
-56.02
-55.26
-51.90
-46.21
-38.87
-30.77
-22.72
-15.34
-8.95
-3.65
0.65
4.13
7.04
9.59
11.97
14.27
16.52
18.61
20.44
21.88
22.86
23.35
23.42
23.15
22.66
22.11
21.64
21.30
21.09
20.89
20.59
20.08
19.31
18.30
17.11
15.80
14.41
12.98
11.54
10.10
8.65
7.13
5.44
3.55
1.54
-0.41
-2.10
-3.44
-4.54
-5.68
-7.19
-9.26
-11.85
-14.65
-17.29
-19.42
-20.96
-22.07
-23.06
-24.34
-26.23
-28.87
-32.15
-35.71
-38.94
-41.12
-41.56
-39.85
-35.93
-30.14
-23.14
-15.73
-8.64
-2.39
2.71
6.66
9.63
11.90
13.71
15.24
16.58
17.75
18.74
19.53
20.08
20.36
20.33
20.05
19.62
19.24
19.09
19.24
19.67
20.22
20.71
20.91
20.67
19.89
18.57
16.82
14.81
12.77
10.88
9.17
7.57
5.94
4.18
2.23
0.17
-1.89
-3.88
-5.82
-7.77
-9.80
-11.91
-14.02
-16.03
-17.87
-19.56
-21.24
-23.10
-25.31
-27.98
-31.11
-34.57
-38.07
-41.14
-43.11
-43.32
-41.29
-36.94
-30.68
-23.31
-15.73
-8.67
-2.53
2.66
7.04
10.82
14.08
16.81
18.97
20.59
21.74
22.52
23.03
23.32
23.42
23.34
23.16
22.94
22.78
22.73
22.81
22.98
23.16
23.27
23.22
22.91
22.28
21.32
20.05
18.57
16.99
15.36
13.70
11.93
9.98
7.81
5.48
3.10
0.83
-1.23
-3.12
-4.97
-6.94
-9.13
-11.51
-13.94
-16.27
-18.41
-20.43
-22.47
-24.71
-27.33
-30.39
-33.88
-37.69
-41.55
-44.98
-47.32
-47.81
-45.86
-41.21
-34.13
-25.39
-16.01
-7.03
0.83
7.30
12.51
16.79
20.43
23.57
26.18
28.24
29.74
30.84
31.65
32.22
32.43
32.16
31.39
30.30
29.25
28.58
28.47
28.80
29.22
29.31
28.78
27.55
25.80
23.81
21.85
20.07
18.45
16.85
15.09
13.02
10.62
7.99
5.31
2.75
0.41
-1.73
-3.76
-5.83
-8.07
-10.54
-13.26
-16.13
-19.05
-21.84
-24.38
-26.61
-28.65
-30.75
-33.26
-36.42
-40.22
-44.29
-47.86
-49.98
-49.76
-46.66
-40.68
-32.38
-22.72
-12.83
-3.72
4.00
10.09
14.72
18.22
21.01
23.34
25.36
27.08
28.39
29.23
29.55
29.37
28.78
27.89
26.90
26.00
25.41
25.26
25.54
26.08
26.61
26.80
26.44
25.49
24.05
22.26
20.25
18.04
15.62
13.04
10.44
8.00
5.83
3.90
2.02
-0.06
-2.49
-5.25
-8.17
-11.03
-13.68
-16.08
-18.31
-20.49
-22.74
-25.22
-28.12
-31.61
-35.74
-40.27
-44.62
-47.89
-49.16
-47.73
-43.42
-36.62
-28.15
-18.99
-10.01
-1.83
5.25
11.10
15.75
19.30
21.99
24.10
25.95
27.70
29.32
30.60
31.27
31.19
30.42
29.24
27.97
26.90
26.17
25.78
25.66
25.72
25.86
25.97
25.93
25.58
24.78
23.45
21.62
19.42
17.03
14.64
12.34
10.15
7.97
5.73
3.41
1.12
-1.00
-2.80
-4.31
-5.72
-7.30
-9.30
-11.79
-14.62
-17.53
-20.24
-22.62
-24.75
-26.92
-29.48
-32.73
-36.72
-41.18
-45.48
-48.78
-50.21
-49.15
-45.35
-39.12
-31.22
-22.65
-14.41
-7.23
-1.48
2.84
5.96
8.15
9.63
10.55
10.97
10.95
10.58
9.99
9.28
8.46
7.41
5.95
3.96
1.47
-1.34
-4.11
-6.55
-8.56
-10.29
-12.05
-14.11
-16.55
-19.18
-21.63
-23.43
-24.22
-23.82
-22.19
-19.42
-15.66
-11.10
-5.94
-0.37
5.36
10.97
16.11
20.40
23.49
25.16
25.37
24.28
22.16
19.29
15.94
12.32
8.53
4.61
0.46
-4.08
-9.09
-14.42
-19.62
-23.93
-26.53
-26.78
-24.47
-19.90
-13.73
-6.81
0.13
6.57
12.26
17.08
21.02
24.07
26.26
27.68
28.46
28.82
28.95
29.01
28.98
28.79
28.35
27.61
26.73
25.93
25.45
25.38
25.64
25.96
26.09
25.86
25.26
24.39
23.33
22.11
20.62
18.78
16.51
13.93
11.23
8.62
6.23
4.01
1.79
-0.63
-3.36
-6.36
-9.47
-12.43
-15.07
-17.31
-19.18
-20.78
-22.26
-23.80
-25.60
-27.90
-30.85
-34.39
-38.21
-41.69
-44.05
-44.56
-42.83
-38.88
-33.17
-26.42
-19.41
-12.75
-6.81
-1.71
2.60
6.24
9.32
11.92
14.11
16.00
17.76
19.56
21.49
23.58
25.68
27.60
29.12
30.10
30.52
30.45
30.03
29.40
28.71
28.07
27.53
27.10
26.64
25.96
24.87
23.24
21.03
18.38
15.49
12.52
9.54
6.49
3.28
-0.18
-3.89
-7.70
-11.44
-14.91
-18.01
-20.68
-22.98
-24.96
-26.73
-28.43
-30.22
-32.28
-34.75
-37.67
-40.89
-44.01
-46.39
-47.28
-46.02
-42.30
-36.30
-28.67
-20.41
-12.51
-5.74
-0.41
3.60
6.65
9.17
11.46
13.58
15.38
16.61
17.10
16.84
16.09
15.23
14.63
14.55
14.97
15.67
16.37
16.84
17.08
17.20
17.37
17.63
17.86
17.80
17.24
16.09
14.45
12.52
10.54
8.60
6.72
4.82
2.82
0.69
-1.54
-3.86
-6.24
-8.70
-11.24
-13.84
-16.42
-18.94
-21.37
-23.81
-26.40
-29.30
-32.50
-35.76
-38.56
-40.20
-40.06
-37.77
-33.40
-27.42
-20.53
-13.40
-6.56
-0.29
5.26
10.02
13.97
17.10
19.50
21.30
22.67
23.73
24.53
25.05
25.30
25.30
25.20
25.13
25.19
25.37
25.52
25.40
24.72
23.32
21.22
18.68
16.08
13.82
12.09
10.80
9.63
8.22
6.33
3.93
1.24
-1.48
-4.03
-6.33
-8.40
-10.26
-11.89
-13.23
-14.24
-14.96
-15.50
-16.07
-16.88
-18.12
-19.91
-22.36
-25.50
-29.21
-33.15
-36.72
-39.16
-39.71
-37.92
-33.76
-27.73
-20.65
-13.44
-6.86
-1.32
3.03
6.29
8.64
10.29
11.42
12.22
12.87
13.55
14.39
15.49
16.81
18.20
19.44
20.28
20.60
20.44
19.99
19.52
19.23
19.16
19.18
19.06
18.64
17.82
16.59
15.02
13.17
11.15
9.05
7.00
5.04
3.15
1.15
-1.22
-4.11
-7.53
-11.23
-14.88
-18.13
-20.80
-22.98
-24.97
-27.17
-29.93
-33.39
-37.41
-41.52
-45.02
-47.07
-46.93
-44.15
-38.76
-31.27
-22.56
-13.68
-5.60
1.05
6.05
9.54
11.87
13.44
14.51
15.20
15.55
15.57
15.34
15.01
14.75
14.66
14.73
14.93
15.22
15.64
16.25
17.11
18.18
19.31
20.25
20.78
20.80
20.33
19.50
18.53
17.56
16.64
15.69
14.54
12.98
10.87
8.13
4.80
1.04
-2.93
-6.85
-10.54
-13.87
-16.88
-19.64
-22.32
-24.99
-27.65
-30.14
-32.11
-33.15
-32.80
-30.70
-26.77
-21.22
-14.58
-7.51
-0.64
5.63
11.19
16.19
20.81
25.16
29.18
32.67
35.40
37.24
38.23
38.51
38.33
37.85
37.17
36.35
35.36
34.24
33.01
31.71
30.32
28.76
26.92
24.73
22.26
19.67
17.12
14.73
12.48
10.28
8.05
5.85
3.80
2.04
0.59
-0.73
-2.27
-4.32
-6.99
-10.10
-13.32
-16.26
-18.72
-20.73
-22.49
-24.26
-26.20
-28.35
-30.66
-32.98
-35.09
-36.73
-37.54
-37.17
-35.39
-32.15
-27.65
-22.29
-16.57
-10.99
-5.92
-1.59
1.88
4.57
6.62
8.28
9.76
11.26
12.85
14.50
16.13
17.62
18.86
19.80
20.41
20.72
20.78
20.60
20.17
19.45
18.40
17.00
15.29
13.36
11.33
9.36
7.59
6.10
4.93
4.02
3.26
2.45
1.39
-0.10
-2.13
-4.64
-7.48
-10.45
-13.36
-16.12
-18.75
-21.35
-24.03
-26.90
-30.03
-33.46
-37.17
-41.02
-44.66
-47.54
-48.97
-48.43
-45.69
-40.99
-34.94
-28.33
-21.86
-15.95
-10.69
-5.95
-1.56
2.58
6.43
9.93
12.97
15.51
17.55
19.10
20.20
20.88
21.17
21.15
20.88
20.46
20.02
19.69
19.60
19.80
20.28
20.93
21.59
22.06
22.22
22.05
21.67
21.21
20.81
20.47
20.04
19.29
18.03
16.29
14.28
12.38
10.97
10.21
9.91
9.64
8.82
6.99
3.92
-0.31
-5.33
-10.61
-15.47
-19.26
-21.40
-21.51
-19.52
-15.70
-10.62
-5.05
0.27
4.74
8.07
10.29
11.71
12.76
13.82
15.04
16.39
17.62
18.46
18.74
18.47
17.82
17.05
16.32
15.70
15.13
14.51
13.81
13.07
12.40
11.90
11.55
11.22
10.70
9.85
8.67
7.29
5.92
4.75
3.82
2.97
1.99
0.68
-1.03
-3.06
-5.22
-7.29
-9.12
-10.65
-11.92
-13.05
-14.24
-15.67
-17.55
-19.98
-22.92
-26.13
-29.16
-31.45
-32.46
-31.83
-29.48
-25.65
-20.81
-15.53
-10.31
-5.57
-1.49
1.88
4.63
6.87
8.78
10.44
11.88
13.08
13.95
14.48
14.68
14.60
14.28
13.73
12.93
11.89
10.68
9.47
8.46
7.77
7.49
7.55
7.79
8.08
8.22
8.12
7.69
6.89
5.68
4.11
2.27
0.32
-1.58
-3.33
-4.93
-6.49
-8.17
-10.15
-12.50
-15.13
-17.85
-20.42
-22.70
-24.69
-26.58
-28.63
-31.12
-34.17
-37.65
-41.09
-43.76
-44.83
-43.62
-39.88
-33.97
-26.69
-19.12
-12.17
-6.38
-1.78
1.95
5.20
8.26
11.18
13.90
16.29
18.29
19.90
21.12
21.88
22.09
21.71
20.79
19.58
18.40
17.52
17.05
16.89
16.78
16.46
15.77
14.76
13.55
12.32
11.17
10.09
9.02
7.87
6.59
5.17
3.68
2.17
0.67
-0.83
-2.36
-3.97
-5.68
-7.48
-9.35
-11.23
-13.05
-14.75
-16.28
-17.62
-18.81
-19.99
-21.39
-23.22
-25.58
-28.36
-31.20
-33.53
-34.75
-34.34
-32.08
-28.04
-22.56
-16.20
-9.58
-3.29
2.22
6.68
10.05
12.47
14.24
15.69
17.04
18.39
19.64
20.62
21.14
21.13
20.63
19.74
18.60
17.29
15.93
14.63
13.50
12.70
12.29
12.22
12.34
12.42
12.21
11.59
10.51
9.05
7.36
5.57
3.83
2.20
0.70
-0.68
-2.03
-3.41
-4.89
-6.48
-8.21
-10.04
-11.97
-13.94
-15.87
-17.71
-19.42
-21.09
-22.91
-25.13
-27.95
-31.33
-34.87
-37.85
-39.41
-38.86
-35.95
-30.99
-24.71
-18.02
-11.70
-6.22
-1.64
2.14
5.31
8.02
10.34
12.32
14.03
15.57
17.04
18.42
19.64
20.51
20.87
20.67
20.00
19.13
18.36
17.91
17.84
18.00
18.11
17.95
17.37
16.40
15.21
13.96
12.78
11.66
10.56
9.38
8.06
6.57
4.95
3.26
1.58
-0.02
-1.51
-2.90
-4.31
-5.84
-7.62
-9.68
-11.94
-14.25
-16.45
-18.43
-20.19
-21.93
-23.93
-26.45
-29.63
-33.25
-36.80
-39.49
-40.52
-39.39
-36.02
-30.82
-24.52
-17.88
-11.54
-5.88
-1.07
2.85
5.88
8.10
9.68
10.87
11.94
13.11
14.43
15.79
16.99
17.86
18.31
18.37
18.16
17.81
17.48
17.28
17.33
17.70
18.36
19.21
20.04
20.59
20.62
20.00
18.72
16.84
14.54
11.98
9.37
6.88
4.68
2.82
1.27
-0.13
-1.59
-3.30
-5.37
-7.73
-10.21
-12.64
-14.92
-17.13
-19.45
-22.12
-25.23
-28.68
-32.14
-35.08
-36.92
-37.17
-35.52
-31.97
-26.83
-20.67
-14.12
-7.80
-2.13
2.72
6.76
10.12
12.96
15.38
17.45
19.17
20.56
21.61
22.34
22.76
22.89
22.79
22.53
22.20
21.90
21.67
21.51
21.35
21.12
20.76
20.22
19.53
18.75
17.93
17.06
16.09
14.89
13.34
11.35
8.97
6.35
3.70
1.21
-1.05
-3.16
-5.28
-7.53
-10.00
-12.60
-15.19
-17.62
-19.77
-21.63
-23.31
-25.04
-27.14
-29.88
-33.40
-37.51
-41.63
-44.89
-46.38
-45.44
-41.92
-36.22
-29.12
-21.55
-14.25
-7.73
-2.15
2.53
6.44
9.74
12.58
15.08
17.29
19.16
20.57
21.40
21.63
21.37
20.84
20.32
20.01
20.00
20.26
20.69
21.12
21.43
21.46
21.13
20.40
19.35
18.13
16.88
15.69
14.55
13.31
11.86
10.09
8.01
5.65
3.03
0.18
-2.88
-6.10
-9.33
-12.37
-15.03
-17.20
-18.92
-20.36
-21.77
-23.46
-25.69
-28.63
-32.27
-36.36
-40.43
-43.78
-45.66
-45.41
-42.70
-37.60
-30.54
-22.30
-13.72
-5.57
1.60
7.49
12.13
15.76
18.73
21.35
23.81
26.11
28.14
29.75
30.79
31.24
31.18
30.70
29.96
29.13
28.38
27.85
27.63
27.66
27.78
27.77
27.43
26.66
25.46
23.86
21.95
19.79
17.40
14.88
12.27
9.65
7.04
4.46
1.90
-0.68
-3.29
-5.91
-8.61
-11.43
-14.44
-17.63
-20.88
-24.08
-27.07
-29.89
-32.70
-35.82
-39.56
-44.03
-49.06
-54.09
-58.29
-60.74
-60.68
-57.81
-52.40
-45.25
-37.44
-30.01
-23.67
-18.65
-14.78
-11.75
-9.30
-7.33
-5.86
-4.91
-4.45
-4.37
-4.55
-4.99
-5.66
-6.39
-6.74
-6.03
-3.47
1.43
8.66
17.62
27.34
36.74
45.00
51.70
56.77
60.31
62.49
63.37
63.00
61.47
59.00
55.85
52.36
48.79
45.27
41.85
38.43
34.91
31.20
27.25
23.03
18.57
13.94
9.22
4.54
0.02
-4.24
-8.23
-12.05
-15.90
-20.02
-24.62
-29.64
-34.72
-39.17
-42.12
-42.78
-40.75
-36.13
-29.51
-21.76
-13.77
-6.20
0.53
6.28
11.04
14.90
17.99
20.46
22.45
24.02
25.20
25.96
26.33
26.38
26.27
26.13
26.08
26.19
26.48
26.94
27.47
27.92
28.08
27.77
26.97
25.81
24.55
23.42
22.51
21.70
20.78
19.53
17.84
15.76
13.41
10.94
8.47
6.12
3.90
1.80
-0.24
-2.35
-4.64
-7.13
-9.78
-12.44
-15.06
-17.68
-20.52
-23.91
-28.11
-33.09
-38.47
-43.50
-47.28
-49.06
-48.44
-45.55
-40.90
-35.28
-29.44
-23.95
-19.10
-14.94
-11.42
-8.43
-5.86
-3.62
-1.60
0.28
2.07
3.78
5.36
6.79
8.12
9.43
10.82
12.33
13.85
15.21
16.22
16.77
16.92
16.79
16.55
16.27
15.94
15.48
14.82
13.93
12.84
11.57
10.12
8.49
6.69
4.81
2.95
1.22
-0.35
-1.83
-3.33
-4.95
-6.73
-8.61
-10.50
-12.33
-14.10
-15.84
-17.67
-19.70
-22.05
-24.84
-27.99
-31.21
-33.94
-35.43
-34.97
-32.23
-27.40
-21.13
-14.36
-7.90
-2.20
2.64
6.83
10.57
13.93
16.84
19.21
21.02
22.37
23.41
24.20
24.72
24.84
24.48
23.67
22.63
21.65
20.97
20.65
20.59
20.55
20.27
19.63
18.62
17.41
16.13
14.94
13.86
12.83
11.72
10.42
8.86
7.07
5.14
3.16
1.23
-0.58
-2.28
-3.86
-5.38
-6.91
-8.55
-10.36
-12.40
-14.62
-16.91
-19.11
-21.12
-22.91
-24.62
-26.52
-28.87
-31.83
-35.26
-38.72
-41.50
-42.82
-42.09
-39.15
-34.34
-28.40
-22.23
-16.61
-11.98
-8.34
-5.37
-2.66
0.12
3.05
5.99
8.66
10.79
12.21
12.95
13.16
13.18
13.33
13.88
14.88
16.11
17.06
17.10
15.61
12.26
7.04
0.40
-6.91
-13.98
-20.02
-24.51
-27.38
-29.05
-30.21
-31.67
-33.97
-37.24
-41.05
-44.61
-47.06
-47.74
-46.43
-43.34
-38.96
-33.80
-28.28
-22.66
-17.13
-11.95
-7.39
-3.73
-1.12
0.42
0.96
0.55
-0.83
-3.16
-6.21
-9.37
-11.73
-12.29
-10.29
-5.48
1.79
10.85
20.94
31.55
42.44
53.54
64.76
75.79
86.19
95.48
103.34
109.55
113.89
116.02
115.56
112.36
106.63
99.09
90.71
82.47
74.97
68.35
62.46
57.12
52.37
48.46
45.57
43.71
42.66
42.04
41.44
40.49
38.95
36.73
33.83
30.12
25.61
20.53
15.25
10.05
4.95
-0.27
-5.92
-12.19
-19.62
-28.37
-38.14
-48.18
-57.77
-66.35
-73.64
-79.55
-84.16
-88.53
-93.52
-99.25
-105.01
-109.78
-112.82
-113.89
-113.19
-111.19
-109.38
-108.67
-108.90
-109.12
-108.49
-106.92
-105.03
-103.63
-96.62
-80.85
-57.58
-31.97
-9.11
8.81
22.16
32.41
41.01
48.81
55.00
58.72
59.90
59.35
58.06
56.67
55.44
54.50
53.78
52.36
49.44
44.90
39.13
32.58
25.55
17.96
10.19
2.53
-5.27
-13.50
-21.94
-30.29
-38.58
-47.25
-56.69
-66.76
-76.74
-85.36
-90.91
-91.58
-86.33
-75.41
-59.86
-40.82
-19.24
3.64
26.90
46.90
61.01
68.32
69.15
65.15
59.01
54.83
54.13
57.16
63.29
71.39
79.83
86.47
90.11
91.54
93.25
98.03
104.99
112.99
120.04
123.26
118.74
103.25
75.98
39.05
-2.96
-44.11
-77.70
-98.23
-98.78
-79.26
-49.89
-25.51
-15.80
-20.91
-34.88
-50.13
-61.53
-67.90
-71.29
-73.79
-75.27
-76.19
-74.06
-68.96
-62.84
-57.92
-55.15
-53.96
-52.37
-48.00
-39.63
-27.96
-16.08
-7.38
-3.04
-3.56
-8.24
-15.46
-23.26
-30.11
-35.08
-38.54
-41.19
-43.54
-46.04
-48.98
-52.53
-56.75
-61.45
-66.17
-70.67
-74.65
-77.84
-80.27
-82.16
-83.80
-85.44
-86.98
-88.03
-88.20
-87.17
-84.75
-81.03
-76.10
-70.06
-62.98
-54.89
-45.82
-35.98
-25.71
-15.47
-5.78
3.00
10.71
17.43
23.46
29.19
34.94
40.80
46.52
51.56
55.37
57.45
57.64
56.03
52.93
48.67
43.51
37.60
31.00
23.72
15.67
6.65
-3.54
-14.96
-27.21
-39.31
-49.84
-57.25
-60.40
-58.93
-53.34
-44.81
-34.77
-24.50
-14.92
-6.47
0.77
6.95
12.30
17.11
21.58
25.83
29.90
33.73
37.24
40.39
43.26
46.03
49.00
52.44
56.51
61.15
66.08
70.95
75.37
79.16
82.27
84.74
86.56
87.52
87.32
85.65
82.34
77.46
71.32
64.30
56.80
49.10
41.42
33.88
26.54
19.38
12.35
5.37
-1.67
-8.82
-16.09
-23.44
-30.83
-38.26
-45.81
-53.65
-61.93
-70.65
-79.47
-87.52
-93.60
-96.40
-94.89
-88.77
-78.48
-65.11
-50.01
-34.45
-19.38
-5.41
7.20
18.30
27.92
36.12
43.05
48.89
53.80
57.91
61.36
64.24
66.61
68.41
69.53
69.80
69.19
67.82
65.99
64.02
62.15
60.43
58.77
57.00
55.02
52.87
50.69
48.74
47.30
46.61
46.83
47.94
49.82
52.20
54.82
57.45
60.00
62.42
64.61
66.34
67.17
66.52
63.83
58.75
51.31
41.83
30.83
18.89
6.53
-5.75
-17.34
-27.51
-35.47
-40.62
-42.83
-42.50
-40.41
-37.41
-34.00
-30.29
-26.03
-20.97
-15.05
-8.46
-1.59
5.18
11.56
17.40
22.56
26.89
30.23
32.41
33.40
33.34
32.49
31.17
29.62
27.92
25.99
23.68
20.81
17.33
13.36
9.13
4.90
0.90
-2.79
-6.26
-9.73
-13.42
-17.50
-21.93
-26.54
-31.02
-35.13
-38.79
-42.07
-45.15
-48.18
-51.17
-53.99
-56.43
-58.33
-59.61
-60.28
-60.36
-59.88
-58.86
-57.27
-55.01
-51.89
-47.56
-41.50
-33.20
-22.20
-8.39
8.04
26.51
46.12
65.81
84.46
100.96
114.39
124.02
129.46
130.59
127.73
121.56
113.14
103.70
94.46
86.34
79.78
74.69
70.64
67.03
63.39
59.47
55.25
50.84
46.38
41.94
37.53
33.11
28.60
23.91
18.97
13.69
8.00
1.88
-4.64
-11.46
-18.38
-25.14
-31.49
-37.20
-42.17
-46.43
-50.17
-53.63
-56.96
-60.13
-62.86
-64.80
-65.64
-65.32
-64.19
-62.83
-61.91
-61.83
-62.54
-63.41
-63.41
-61.39
-56.50
-48.42
-37.48
-24.59
-10.92
2.37
14.39
24.58
32.73
38.88
43.18
45.85
46.99
46.60
44.53
40.60
34.81
27.37
18.80
9.84
1.27
-6.16
-11.88
-15.53
-16.99
-16.41
-14.23
-11.06
-7.66
-4.65
-2.47
-1.26
-0.92
-1.17
-1.69
-2.14
-2.24
-1.88
-1.11
-0.17
0.59
0.77
0.08
-1.57
-4.07
-7.16
-10.47
-13.75
-16.87
-19.86
-22.92
-26.28
-30.18
-34.75
-39.98
-45.64
-51.30
-56.35
-60.11
-62.01
-61.79
-59.56
-55.79
-51.14
-46.17
-41.26
-36.46
-31.60
-26.48
-20.96
-15.07
-8.98
-2.94
2.80
8.07
12.71
16.62
19.79
22.27
24.20
25.75
27.08
28.22
29.07
29.43
29.13
28.10
26.40
24.18
21.66
18.98
16.26
13.58
11.01
8.55
6.18
3.83
1.35
-1.40
-4.44
-7.69
-10.89
-13.75
-16.03
-17.56
-18.34
-18.48
-18.16
-17.57
-16.78
-15.78
-14.52
-12.99
-11.34
-9.88
-9.05
-9.17
-10.25
-11.82
-13.04
-12.85
-10.35
-5.02
3.13
13.65
25.80
38.72
51.58
63.63
74.30
83.17
90.05
94.92
97.78
98.59
97.20
93.47
87.39
79.24
69.58
59.12
48.55
38.38
28.80
19.82
11.29
3.09
-4.82
-12.36
-19.34
-25.56
-30.89
-35.38
-39.22
-42.67
-45.97
-49.23
-52.41
-55.41
-58.14
-60.54
-62.59
-64.27
-65.52
-66.33
-66.76
-66.97
-67.16
-67.54
-68.22
-69.21
-70.49
-72.03
-73.85
-75.97
-78.32
-80.61
-82.29
-82.58
-80.65
-75.82
-67.88
-57.17
-44.52
-31.01
-17.67
-5.26
5.81
15.41
23.59
30.43
36.06
40.58
44.15
46.94
49.13
50.86
52.21
53.24
53.98
54.53
55.03
55.71
56.71
58.06
59.58
60.98
61.94
62.26
61.92
61.05
59.85
58.47
56.90
55.05
52.76
49.84
46.17
41.68
36.46
30.70
24.72
18.87
13.37
8.28
3.50
-1.07
-5.46
-9.50
-12.97
-15.77
-18.06
-20.30
-23.15
-27.22
-32.92
-40.20
-48.47
-56.69
-63.51
-67.56
-67.87
-64.04
-56.42
-45.99
-33.99
-21.58
-9.58
1.55
11.68
20.80
28.93
35.94
41.56
45.52
47.78
48.52
48.17
47.36
46.84
47.36
49.35
52.80
57.52
63.45
70.52
78.68
87.73
97.17
106.21
113.58
117.58
116.59
109.62
95.98
75.98
50.94
23.40
-3.01
-24.59
-38.93
-45.51
-45.88
-44.09
-44.47
-50.32
-63.30
-80.33
-94.59
-100.03
-95.16
-82.55
-67.58
-54.33
-44.93
-39.34
-36.19
-33.84
-31.35
-29.45
-28.35
-30.07
-35.75
-46.03
-60.72
-79.31
-100.85
-124.38
-148.92
-164.61
-167.39
-156.08
-133.26
-104.24
-75.93
-53.35
-38.01
-27.54
-17.01
-5.17
9.50
24.90
36.67
39.64
31.93
15.75
-3.45
-18.93
-26.19
-22.80
-9.66
15.00
45.19
71.80
87.16
88.51
78.44
61.80
44.04
28.74
17.26
7.26
-1.23
-6.73
-7.65
-3.25
5.16
15.08
23.35
27.71
27.09
23.08
19.62
19.33
22.87
28.71
34.33
37.47
37.37
34.49
30.79
28.11
26.94
26.50
25.37
22.41
17.45
11.43
5.81
2.41
2.27
4.97
8.90
11.95
11.96
7.20
-3.17
-18.76
-37.58
-56.78
-73.56
-85.57
-91.23
-90.20
-83.56
-73.43
-62.22
-51.91
-44.13
-40.09
-40.04
-42.69
-45.83
-47.40
-45.87
-39.67
-26.69
-4.74
27.15
67.90
113.85
158.73
194.85
215.11
214.31
195.57
170.16
149.39
136.84
128.70
119.63
105.14
82.29
52.45
17.44
-20.98
-61.54
-102.49
-140.81
-172.78
-195.57
-208.01
-210.48
-204.58
-192.58
-177.29
-161.25
-146.08
-132.39
-120.22
-109.04
-97.72
-85.09
-70.53
-54.57
-38.46
-23.37
-9.97
1.60
11.65
20.89
29.91
38.89
47.35
54.29
58.75
60.15
58.47
54.29
48.71
42.99
38.12
34.61
32.38
30.95
29.67
27.84
24.96
20.84
15.64
9.83
4.02
-1.36
-6.18
-10.72
-15.51
-21.05
-27.48
-34.47
-41.18
-46.52
-49.43
-49.18
-45.54
-38.82
-29.73
-19.25
-8.37
2.09
11.55
19.71
26.55
32.19
36.87
40.78
44.01
46.56
48.31
49.13
48.98
47.94
46.19
44.03
41.77
39.67
37.92
36.64
35.86
35.50
35.38
35.30
34.98
34.17
32.65
30.30
27.18
23.51
19.66
15.98
12.69
9.72
6.80
3.63
0.00
-4.00
-8.16
-12.19
-16.01
-19.73
-23.66
-28.07
-33.16
-38.97
-45.40
-52.27
-59.21
-65.70
-70.98
-74.24
-74.76
-72.20
-66.77
-59.18
-50.51
-41.82
-33.87
-26.92
-20.80
-15.13
-9.63
-4.25
0.76
5.17
8.84
11.84
14.41
16.72
18.84
20.71
22.24
23.46
24.45
25.31
26.10
26.78
27.32
27.70
27.93
27.98
27.71
26.92
25.41
23.13
20.25
17.06
13.80
10.55
7.19
3.52
-0.63
-5.21
-10.00
-14.66
-18.91
-22.64
-25.91
-28.96
-32.08
-35.55
-39.54
-44.11
-49.15
-54.32
-59.03
-62.53
-64.07
-63.07
-59.31
-53.01
-44.76
-35.35
-25.55
-16.03
-7.26
0.52
7.20
12.89
17.75
21.98
25.70
28.96
31.67
33.66
34.87
35.30
35.16
34.73
34.29
34.02
33.98
34.12
34.39
34.74
35.11
35.42
35.55
35.31
34.54
33.20
31.34
29.14
26.81
24.49
22.18
19.79
17.20
14.29
11.05
7.51
3.72
-0.23
-4.30
-8.41
-12.45
-16.37
-20.14
-23.82
-27.59
-31.70
-36.37
-41.66
-47.35
-52.85
-57.30
-59.71
-59.28
-55.70
-49.26
-40.85
-31.65
-22.71
-14.71
-7.78
-1.70
3.84
9.03
13.85
18.17
21.85
24.88
27.30
29.18
30.54
31.33
31.56
31.33
30.88
30.47
30.33
30.55
31.03
31.60
32.01
32.09
31.75
30.97
29.77
28.18
26.21
23.94
21.48
18.99
16.61
14.48
12.63
11.05
9.61
8.13
6.41
4.25
1.47
-1.90
-5.72
-9.67
-13.45
-16.89
-20.07
-23.31
-27.01
-31.50
-36.83
-42.66
-48.37
-53.10
-55.98
-56.32
-53.79
-48.51
-41.02
-32.17
-22.87
-13.91
-5.80
1.24
7.21
12.22
16.40
19.83
22.56
24.64
26.15
27.19
27.88
28.34
28.67
28.98
29.31
29.68
30.10
30.54
30.98
31.39
31.69
31.80
31.58
30.93
29.76
28.03
25.79
23.15
20.22
17.11
13.91
10.68
7.43
4.15
0.78
-2.72
-6.35
-10.11
-13.92
-17.73
-21.48
-25.16
-28.77
-32.39
-36.19
-40.37
-45.01
-49.98
-54.76
-58.51
-60.21
-59.06
-54.77
-47.67
-38.53
-28.35
-18.00
-8.10
1.00
9.14
16.22
22.22
27.17
31.16
34.32
36.82
38.76
40.24
41.31
42.01
42.40
42.58
42.66
42.67
42.61
42.39
41.91
41.10
40.01
38.72
37.35
35.95
34.47
32.78
30.75
28.29
25.34
21.99
18.40
14.77
11.31
8.11
5.12
2.15
-1.02
-4.54
-8.37
-12.39
-16.38
-20.19
-23.80
-27.27
-30.73
-34.32
-38.25
-42.68
-47.68
-53.05
-58.23
-62.33
-64.37
-63.55
-59.56
-52.66
-43.61
-33.41
-23.03
-13.21
-4.34
3.42
10.11
15.84
20.71
24.84
28.34
31.32
33.84
35.93
37.54
38.63
39.15
39.14
38.65
37.78
36.68
35.46
34.26
33.19
32.33
31.69
31.17
30.60
29.81
28.63
27.03
25.02
22.64
19.94
16.93
13.63
10.13
6.58
3.15
-0.05
-3.05
-6.01
-9.16
-12.63
-16.37
-20.19
-23.84
-27.15
-30.16
-33.08
-36.21
-39.85
-44.14
-49.07
-54.33
-59.37
-63.36
-65.36
-64.52
-60.43
-53.26
-43.84
-33.34
-22.99
-13.67
-5.78
0.74
6.25
11.16
15.74
20.07
24.04
27.45
30.06
31.68
32.26
31.95
31.07
30.08
29.43
29.37
29.84
30.51
30.88
30.55
29.40
27.64
25.60
23.57
21.47
18.84
15.10
9.81
2.98
-4.85
-12.78
-19.85
-25.30
-28.91
-31.01
-32.59
-35.04
-39.82
-48.02
-59.92
-74.86
-91.28
-107.08
-120.12
-128.68
-131.88
-129.71
-122.89
-112.41
-99.01
-82.84
-63.57
-40.80
-14.86
12.88
40.21
64.99
85.98
103.36
118.26
131.82
144.26
154.55
160.93
161.80
156.63
146.44
133.77
121.95
114.13
112.16
115.78
122.68
129.41
132.90
131.85
127.24
121.56
117.38
115.87
116.27
116.49
114.32
108.56
99.41
88.04
75.78
63.42
51.16
38.76
26.08
13.26
0.80
-10.78
-21.26
-30.93
-40.45
-50.54
-61.50
-73.03
-84.34
-94.53
-103.08
-110.01
-115.86
-121.20
-126.30
-130.85
-134.07
-135.02
-133.03
-127.93
-120.15
-110.51
-100.00
-89.42
-79.29
-69.76
-60.78
-52.20
-43.96
-36.16
-28.94
-22.39
-16.48
-11.16
-6.39
-2.28
1.00
3.32
4.68
5.36
5.77
6.38
7.42
8.82
10.37
11.87
13.13
13.99
14.26
13.81
12.51
10.34
7.36
3.95
0.68
-2.06
-4.38
-6.77
-9.78
-13.72
-18.58
-24.25
-30.17
-35.70
-40.65
-45.82
-52.36
-61.29
-73.16
-87.95
-105.31
-123.66
-140.31
-152.29
-157.54
-155.03
-144.90
-128.90
-110.09
-92.48
-78.79
-69.57
-63.60
-59.23
-54.48
-47.35
-36.67
-19.05
3.59
25.43
41.63
53.22
61.86
67.04
68.31
65.56
59.29
50.19
40.20
32.04
27.91
27.95
30.66
33.75
34.76
31.93
24.46
13.40
1.02
-10.63
-21.06
-30.81
-40.52
-50.40
-59.90
-68.14
-73.99
-76.65
-76.23
-73.86
-70.69
-67.22
-63.21
-58.06
-51.44
-43.43
-34.53
-25.65
-17.94
-12.30
-9.00
-7.61
-7.07
-5.86
-2.27
5.14
17.00
32.71
50.51
67.91
82.38
91.95
95.64
93.52
86.37
75.49
62.38
48.63
35.79
25.16
17.54
13.17
11.73
12.59
15.01
18.30
21.75
24.61
26.13
25.79
23.53
19.73
14.93
9.50
3.48
-3.34
-10.99
-19.13
-26.96
-33.57
-38.25
-40.86
-41.62
-40.99
-39.28
-36.55
-32.65
-27.41
-20.95
-13.79
-6.82
-0.94
3.29
6.01
8.00
10.36
13.89
18.74
24.37
30.04
35.42
40.95
47.73
57.03
69.59
85.32
103.30
122.21
140.83
158.29
173.99
187.41
197.85
204.41
206.31
203.20
195.50
184.42
171.59
158.64
146.75
136.42
127.48
119.40
111.64
103.92
96.27
89.05
82.69
77.54
73.69
70.92
68.82
66.96
65.14
63.51
62.46
62.36
63.24
64.72
66.07
66.67
66.25
65.03
63.47
61.96
60.57
58.99
56.71
53.22
48.10
40.93
31.31
19.02
4.24
-12.14
-28.49
-42.85
-53.46
-59.38
-60.78
-58.85
-55.32
-51.91
-49.84
-49.62
-51.08
-53.66
-56.69
-59.70
-62.49
-65.10
-67.59
-69.92
-71.83
-72.92
-72.76
-71.04
-67.70
-62.97
-57.29
-51.29
-45.72
-41.22
-38.26
-36.95
-37.05
-38.01
-39.19
-40.07
-40.32
-39.90
-38.90
-37.48
-35.85
-34.21
-32.80
-31.84
-31.48
-31.74
-32.49
-33.55
-34.69
-35.74
-36.63
-37.36
-38.01
-38.70
-39.59
-40.90
-42.89
-45.88
-50.19
-55.99
-63.20
-71.26
-79.15
-85.56
-89.22
-89.25
-85.48
-78.34
-68.67
-57.42
-45.47
-33.63
-22.71
-13.60
-7.07
-3.57
-2.94
-4.39
-6.70
-8.61
-9.17
-7.92
-4.84
-0.19
5.63
12.25
19.28
26.39
33.28
39.71
45.50
50.53
54.76
58.23
61.02
63.19
64.64
65.10
64.19
61.59
57.24
51.51
45.03
38.52
32.48
27.01
21.88
16.71
11.20
5.20
-1.29
-8.30
-15.95
-24.37
-33.62
-43.42
-53.18
-62.14
-69.68
-75.65
-80.38
-84.48
-88.36
-91.90
-94.35
-94.60
-91.61
-84.88
-74.69
-62.06
-48.37
-34.98
-22.86
-12.40
-3.50
4.21
11.02
16.95
21.73
24.93
26.32
25.97
24.35
22.03
19.48
16.96
14.50
12.19
10.23
8.94
8.67
9.49
11.14
13.04
14.50
14.94
14.10
12.01
9.02
5.63
2.46
0.09
-1.03
-0.73
0.84
3.16
5.55
7.40
8.41
8.68
8.62
8.77
9.48
10.86
12.76
14.97
17.25
19.42
21.27
22.57
23.14
23.00
22.51
22.34
23.16
25.43
29.05
33.48
37.94
41.70
44.35
45.80
46.12
45.41
43.63
40.69
36.49
31.06
24.61
17.48
10.12
2.99
-3.45
-8.83
-12.88
-15.50
-16.68
-16.53
-15.04
-12.04
-7.22
-0.28
8.72
19.19
29.95
39.53
46.67
50.79
52.06
51.24
49.17
46.35
42.87
38.52
33.09
26.64
19.59
12.62
6.51
1.96
-0.63
-1.31
-0.54
0.87
2.05
2.22
0.94
-2.04
-6.74
-13.20
-21.33
-30.84
-41.06
-51.00
-59.57
-65.94
-69.77
-71.26
-71.04
-69.87
-68.42
-67.08
-65.95
-64.95
-63.91
-62.73
-61.37
-59.84
-58.19
-56.38
-54.41
-52.29
-50.12
-48.09
-46.37
-45.04
-44.01
-43.06
-41.92
-40.39
-38.39
-36.00
-33.37
-30.76
-28.49
-26.89
-26.19
-26.42
-27.31
-28.36
-29.00
-28.89
-28.02
-26.80
-25.88
-25.97
-27.63
-31.11
-36.24
-42.40
-48.57
-53.65
-56.68
-57.21
-55.46
-52.21
-48.43
-44.97
-42.25
-40.24
-38.56
-36.68
-34.04
-30.06
-24.17
-15.88
-5.00
8.15
22.53
36.55
48.44
56.73
60.72
60.63
57.42
52.31
46.38
40.35
34.53
29.05
23.99
19.51
15.85
13.19
11.68
11.34
12.06
13.69
16.04
19.03
22.70
27.32
33.19
40.49
49.14
58.76
68.81
78.78
88.26
96.97
104.58
110.66
114.68
116.23
115.21
112.00
107.34
102.11
97.00
92.31
87.88
83.27
77.87
71.17
62.86
52.96
41.73
29.68
17.45
5.68
-5.11
-14.53
-22.35
-28.44
-32.56
-34.38
-33.47
-29.47
-22.36
-12.63
-1.35
10.01
19.90
27.10
30.96
31.59
29.68
26.20
21.89
16.85
10.22
0.35
-14.56
-35.56
-62.09
-91.78
-120.96
-145.84
-163.68
-173.53
-176.06
-172.93
-165.82
-155.99
-144.31
-131.52
-118.60
-106.75
-97.07
-90.21
-86.10
-84.03
-83.00
-82.02
-80.40
-77.92
-74.61
-70.68
-66.31
-61.65
-56.86
-52.21
-48.23
-45.61
-45.00
-46.60
-49.97
-53.89
-56.71
-56.85
-53.39
-46.42
-36.95
-26.49
-16.43
-7.53
0.14
7.04
13.63
20.03
25.85
30.47
33.29
34.13
33.20
31.05
28.33
25.63
23.44
22.12
22.02
23.39
26.29
30.53
35.66
41.16
46.58
51.64
56.21
60.19
63.34
65.32
65.77
64.41
61.13
56.05
49.32
41.14
31.73
21.32
10.15
-1.57
-13.79
-26.60
-40.21
-54.68
-69.83
-85.16
-99.96
-113.54
-125.40
-135.29
-143.12
-148.85
-152.38
-153.61
-152.54
-149.35
-144.32
-137.67
-129.38
-119.15
-106.65
-91.84
-75.22
-57.79
-40.78
-25.20
-11.59
-0.16
8.80
14.86
17.64
17.28
14.78
11.96
10.86
13.13
19.23
28.23
38.35
48.01
56.60
64.71
73.41
83.36
94.37
105.05
113.41
117.81
117.79
114.07
107.57
98.45
85.92
69.85
51.09
31.73
14.56
2.22
-3.88
-4.48
-2.09
0.34
2.53
5.56
9.97
14.56
16.92
14.74
6.84
-6.16
-21.72
-33.31
-34.52
-22.44
1.37
33.07
68.92
106.06
142.51
176.90
211.44
248.64
288.57
329.02
368.28
406.87
446.64
488.92
509.07
487.86
424.66
337.52
247.17
165.77
97.56
43.10
1.38
-28.53
-49.03
-61.79
-70.67
-81.66
-99.75
-126.29
-159.16
-194.82
-223.29
-234.74
-223.14
-190.47
-146.42
-103.63
-71.94
-55.03
-50.23
-50.82
-49.23
-40.90
-26.87
-12.23
-2.00
2.02
1.35
-1.27
-4.12
-7.48
-13.01
-22.81
-37.64
-55.81
-73.63
-87.15
-94.03
-94.14
-89.36
-82.02
-73.92
-65.79
-57.30
-47.54
-36.05
-23.38
-11.10
-1.51
3.58
3.47
-1.01
-7.83
-14.27
-17.65
-16.28
-10.29
-2.33
2.79
-0.28
-15.02
-40.88
-72.69
-102.43
-122.65
-129.73
-125.19
-114.42
-103.83
-98.00
-98.67
-105.55
-118.14
-136.82
-162.34
-194.13
-228.70
-259.76
-280.08
-284.47
-272.25
-247.85
-219.29
-194.98
-180.48
-176.68
-180.13
-185.29
-187.33
-184.07
-176.27
-166.38
-156.55
-147.41
-137.96
-126.49
-111.51
-92.38
-69.23
-42.76
-14.44
13.07
35.94
50.09
52.94
45.19
31.21
17.82
11.78
17.18
34.61
61.92
96.31
135.75
179.02
224.34
267.97
304.29
327.61
334.85
327.30
310.06
289.61
270.50
253.39
235.51
213.14
184.57
151.46
117.97
88.18
63.65
42.72
21.97
-1.16
-26.38
-50.49
-69.21
-79.95
-83.72
-85.28
-91.02
-106.06
-131.67
-164.24
-196.30
-218.97
-224.83
-209.88
-174.51
-123.36
-64.48
-7.63
38.09
67.16
79.44
80.23
78.30
82.19
96.53
120.21
147.50
171.29
186.85
193.41
193.22
189.21
182.87
173.80
160.72
143.40
123.50
104.71
90.57
82.81
80.74
81.99
83.81
83.93
81.50
76.89
73.35
74.11
80.97
93.72
110.40
127.92
142.09
149.86
149.73
146.36
145.31
150.04
160.56
174.01
186.40
192.93
191.77
183.15
175.60
176.90
190.12
212.80
239.64
265.92
287.34
303.87
315.84
330.71
352.20
377.77
401.28
418.22
429.46
437.94
450.08
419.18
320.62
162.55
-18.47
-184.23
-313.76
-390.38
-429.14
-441.91
-437.59
-415.37
-375.47
-327.23
-281.78
-248.57
-231.25
-229.87
-238.06
-249.39
-253.24
-243.34
-220.00
-188.50
-155.68
-126.65
-105.65
-92.74
-87.54
-85.85
-84.90
-84.77
-87.30
-94.30
-105.54
-119.62
-132.62
-141.20
-141.65
-132.66
-115.68
-93.79
-70.23
-46.89
-24.54
-2.03
21.99
49.02
79.21
110.79
140.19
162.58
173.10
168.24
147.79
115.25
77.36
42.11
16.09
2.33
-0.51
3.04
7.51
8.81
5.48
-1.59
-10.36
-19.14
-27.34
-35.30
-43.52
-52.04
-60.42
-68.30
-76.05
-84.90
-96.52
-111.98
-130.93
-151.69
-172.15
-190.93
-208.09
-224.80
-242.08
-259.58
-275.18
-285.70
-288.38
-282.08
-267.78
-247.87
-224.97
-201.00
-176.84
-152.69
-128.86
-106.12
-85.74
-68.67
-55.00
-43.58
-32.43
-19.55
-3.87
14.22
33.17
51.07
66.57
79.51
90.99
102.89
117.04
134.45
154.76
176.27
196.50
213.08
224.65
231.33
234.46
235.89
237.10
238.72
240.58
242.34
243.83
245.31
247.12
249.26
251.15
251.95
251.04
248.41
244.45
239.34
232.75
223.91
212.22
197.89
181.94
165.69
149.67
133.01
113.54
89.01
58.42
22.99
-13.91
-47.96
-75.30
-93.82
-103.33
-105.18
-101.29
-93.31
-82.24
-68.25
-51.02
-30.18
-5.61
22.37
52.94
84.80
116.27
145.36
169.90
187.82
197.65
198.87
192.16
179.36
162.98
145.62
129.32
115.10
102.87
91.77
80.56
68.20
53.85
37.43
19.51
0.85
-18.06
-37.20
-56.92
-77.75
-100.11
-124.58
-151.39
-180.21
-210.07
-239.52
-266.81
-290.40
-309.47
-324.42
-337.39
-350.64
-365.38
-381.50
-397.98
-413.68
-427.78
-439.94
-450.12
-459.94
-469.48
-476.75
-478.97
-474.59
-464.16
-449.86
-434.47
-420.90
-415.12
-419.86
-433.16
-449.85
-464.84
-474.72
-477.80
-473.42
-462.01
-450.29
-441.36
-432.57
-418.20
-394.72
-362.88
-326.54
-289.97
-256.94
-236.93
-232.86
-239.50
-247.64
-251.01
-248.49
-242.30
-234.89
-177.01
-54.36
107.23
262.15
379.85
453.83
491.35
500.80
495.75
483.80
461.26
427.03
386.11
347.33
315.15
290.49
271.75
257.15
244.40
226.04
198.76
165.26
131.80
103.14
80.70
63.02
47.60
31.40
9.02
-20.78
-53.90
-83.10
-102.30
-108.47
-101.83
-84.35
-59.05
-30.18
0.06
32.05
67.54
107.83
153.25
203.34
257.34
313.80
369.84
421.79
465.77
498.20
516.69
520.97
513.08
496.76
475.93
453.56
431.08
408.66
386.00
363.02
340.05
317.50
295.37
273.06
249.51
223.74
195.29
164.59
132.85
101.72
72.70
46.77
24.26
4.95
-11.73
-26.46
-39.97
-53.11
-66.69
-81.26
-96.58
-111.22
-122.44
-126.72
-120.79
-102.78
-73.07
-34.49
8.00
48.37
80.94
101.69
109.12
104.39
90.77
72.48
53.72
37.29
24.38
15.09
9.36
7.34
9.33
15.33
24.61
36.20
48.38
59.32
67.81
73.70
77.61
80.40
82.76
84.92
87.59
90.37
91.72
89.68
82.88
71.12
55.38
37.43
18.86
1.65
-13.95
-29.27
-45.78
-63.78
-82.14
-99.05
-112.95
-130.91
-153.96
-178.36
-199.05
-213.29
-220.61
-221.13
-215.63
-204.46
-188.79
-169.60
-149.52
-132.25
-120.99
-117.04
-119.67
-126.34
-132.93
-135.53
-130.01
-113.93
-86.90
-50.54
-8.44
34.00
70.73
98.83
116.02
122.40
119.65
109.97
95.77
79.56
64.02
51.86
44.85
42.26
41.26
37.45
26.01
4.17
-26.87
-61.71
-92.44
-111.61
-115.08
-102.74
-78.41
-48.50
-19.78
2.56
16.28
22.28
23.70
24.15
26.21
30.25
34.26
34.70
28.00
11.83
-13.71
-45.90
-79.71
-108.89
-127.58
-132.10
-121.84
-99.22
-68.44
-33.73
1.74
35.95
67.26
94.00
114.79
129.17
137.84
141.85
142.18
139.35
133.75
126.18
118.46
113.05
111.89
114.97
118.89
119.13
112.31
97.43
75.35
47.46
14.71
-22.50
-63.73
-109.58
-158.34
-205.21
-243.63
-268.29
-277.29
-272.35
-257.80
-238.94
-223.88
-217.87
-221.09
-229.30
-236.99
-240.13
-236.96
-227.93
-215.21
-206.41
-207.91
-221.61
-244.89
-273.50
-304.17
-334.84
-363.99
-362.38
-314.41
-226.62
-122.85
-25.22
55.59
117.01
159.44
183.77
191.32
180.28
151.97
112.87
72.17
38.28
15.78
5.45
5.34
12.24
19.63
22.80
20.77
15.87
11.28
7.57
4.73
2.93
2.95
3.95
5.94
10.26
19.01
33.41
52.77
75.24
98.56
120.93
140.35
155.91
167.99
177.63
185.69
192.24
197.04
199.83
200.59
199.31
196.27
192.03
187.19
182.11
176.80
171.18
165.24
159.04
152.68
146.09
138.91
130.58
120.50
108.35
94.35
79.26
64.24
50.44
38.61
28.79
20.23
11.58
1.44
-11.10
-26.06
-42.60
-59.34
-74.76
-87.55
-96.77
-101.72
-101.89
-97.06
-87.34
-73.39
-56.36
-37.63
-18.66
-0.67
15.46
29.31
40.85
50.49
58.95
67.25
76.60
88.27
103.29
121.89
143.06
164.31
182.13
193.01
194.85
187.88
174.67
159.16
145.04
134.43
127.29
121.92
115.87
107.07
94.33
77.31
56.08
30.73
1.36
-31.68
-67.31
-103.50
-137.54
-166.65
-188.97
-204.21
-213.74
-219.88
-224.63
-228.65
-230.81
-228.72
-219.87
-202.81
-177.72
-146.19
-110.45
-72.55
-34.13
3.23
37.31
65.11
83.46
90.35
86.04
73.33
56.66
40.39
27.34
18.17
11.85
6.71
1.46
-4.52
-11.25
-18.58
-26.26
-33.91
-40.80
-46.02
-48.74
-48.70
-46.42
-43.06
-40.16
-39.16
-41.11
-46.35
-54.44
-64.15
-73.72
-81.31
-85.53
-85.88
-82.95
-78.08
-72.92
-68.77
-66.21
-65.01
-64.40
-63.37
-61.09
-57.02
-50.95
-43.00
-33.49
-22.91
-11.81
-0.66
10.21
20.64
30.51
39.72
48.06
55.34
61.57
66.98
72.05
77.30
83.06
89.40
96.29
103.62
111.36
119.37
127.23
134.19
139.21
141.19
139.26
132.92
122.20
107.64
90.29
71.50
52.72
35.08
19.09
4.42
-9.86
-24.97
-41.95
-61.34
-83.05
-106.54
-131.07
-155.78
-179.61
-201.27
-219.50
-233.49
-243.37
-250.13
-255.35
-260.51
-266.19
-271.61
-274.73
-273.19
-265.42
-251.49
-232.88
-212.08
-191.59
-173.06
-156.69
-141.27
-124.88
-105.85
-83.32
-56.67
-26.00
7.50
41.47
73.01
99.71
120.30
134.92
144.93
153.82
164.96
179.61
195.90
210.13
219.04
221.21
217.04
208.01
198.22
191.31
188.20
186.29
181.42
170.63
153.19
130.25
104.31
82.16
71.82
79.84
108.86
158.04
224.23
302.04
383.38
438.38
439.64
378.54
273.92
158.00
56.78
-17.80
-65.34
-92.02
-105.63
-109.67
-105.13
-93.44
-78.92
-67.31
-62.93
-65.82
-75.06
-87.76
-98.16
-101.22
-95.44
-84.10
-72.94
-67.30
-69.18
-77.64
-89.58
-100.28
-106.10
-106.41
-103.92
-102.46
-104.92
-111.63
-121.06
-130.60
-137.22
-138.61
-134.23
-126.63
-116.79
-106.15
-95.72
-86.30
-78.33
-71.82
-66.23
-60.98
-55.49
-48.92
-40.81
-30.86
-19.29
-6.93
4.91
15.14
22.81
27.49
29.49
29.32
27.79
25.85
24.64
23.11
21.44
19.99
19.12
19.10
19.77
20.74
21.50
21.58
20.66
18.98
16.84
14.50
12.25
10.18
8.31
6.64
5.10
3.55
1.94
-0.01
-2.72
-6.55
-11.66
-17.83
-24.54
-31.14
-37.07
-41.90
-45.69
-48.89
-52.17
-56.20
-61.31
-67.34
-73.48
-78.46
-80.73
-78.99
-72.63
-61.79
-47.39
-30.81
-13.53
3.14
18.35
31.75
43.41
53.63
62.75
70.92
78.04
83.73
87.60
89.45
89.44
87.97
85.56
82.63
79.41
75.99
72.39
68.68
64.83
60.77
56.22
50.87
44.54
37.37
29.78
22.36
15.60
9.67
4.42
-0.52
-5.53
-10.79
-16.21
-21.49
-26.20
-29.96
-32.48
-33.74
-33.97
-33.63
-33.28
-33.36
-34.05
-35.18
-36.34
-37.02
-36.84
-35.62
-33.34
-30.07
-25.86
-20.77
-14.87
-8.31
-1.24
6.20
14.02
22.38
31.50
41.45
52.05
62.83
73.14
82.32
89.93
95.73
99.72
102.07
103.13
103.35
103.26
103.33
103.74
104.29
104.45
103.54
101.06
96.74
90.62
82.84
73.57
62.98
51.35
39.11
26.84
15.11
4.42
-4.98
-13.04
-19.86
-25.67
-30.76
-35.39
-39.79
-44.05
-48.19
-52.14
-55.85
-59.34
-62.65
-65.69
-68.12
-69.28
-68.36
-64.67
-57.90
-48.31
-36.70
-24.12
-11.59
0.20
11.01
21.05
30.76
40.82
51.90
64.64
79.25
95.18
110.78
123.44
130.20
128.73
118.21
99.69
75.68
49.26
23.06
-1.25
-22.92
-41.70
-57.36
-69.53
-77.90
-82.48
-83.87
-83.06
-81.22
-79.28
-77.75
-76.65
-75.67
-74.42
-72.63
-70.25
-67.42
-64.37
-61.29
-58.27
-55.31
-52.39
-49.55
-46.87
-44.45
-42.36
-40.51
-38.69
-36.52
-33.57
-29.42
-23.91
-17.19
-9.77
-2.36
4.38
10.01
14.41
17.63
19.74
20.78
20.78
19.90
18.56
17.32
16.69
16.95
18.10
19.86
21.96
24.22
26.57
28.91
31.00
32.52
33.14
32.76
31.54
29.85
28.07
26.34
24.52
22.29
19.33
15.49
10.85
5.68
0.29
-5.01
-9.96
-14.37
-18.15
-21.36
-24.24
-27.21
-30.70
-34.90
-39.62
-44.23
-47.85
-49.66
-49.13
-46.21
-41.29
-35.08
-28.34
-21.74
-15.73
-10.56
-6.26
-2.72
0.26
2.84
5.17
7.32
9.26
10.92
12.17
12.95
13.24
13.06
12.47
11.50
10.17
8.48
6.49
4.29
2.09
0.12
-1.43
-2.42
-2.85
-2.83
-2.53
-2.19
-2.04
-2.30
-3.12
-4.52
-6.41
-8.59
-10.81
-12.85
-14.58
-16.05
-17.41
-18.93
-20.85
-23.23
-25.84
-28.17
-29.51
-29.25
-27.04
-22.95
-17.43
-11.14
-4.69
1.47
7.12
12.21
16.74
20.73
24.16
27.05
29.45
31.44
33.11
34.47
35.51
36.16
36.34
36.01
35.18
33.94
32.40
30.68
28.90
27.15
25.41
23.68
21.89
20.04
18.17
16.36
14.63
12.88
10.92
8.53
5.60
2.24
-1.28
-4.58
-7.36
-9.46
-10.96
-12.03
-12.90
-13.78
-14.79
-16.01
-17.38
-18.74
-19.80
-20.18
-19.51
-17.61
-14.60
-10.85
-6.90
-3.23
-0.15
2.29
4.23
5.83
7.20
8.36
9.33
10.23
11.26
12.62
14.35
16.25
17.92
18.96
19.14
18.52
17.39
16.15
15.15
14.55
14.33
14.33
14.35
14.17
13.62
12.63
11.27
9.69
8.10
6.71
5.59
4.66
3.76
2.70
1.33
-0.36
-2.33
-4.48
-6.75
-9.07
-11.39
-13.62
-15.66
-17.47
-19.11
-20.75
-22.66
-25.02
-27.88
-31.01
-33.95
-36.13
-36.96
-36.13
-33.56
-29.53
-24.55
-19.20
-14.02
-9.36
-5.35
-1.92
1.09
3.85
6.41
8.74
10.75
12.38
13.65
14.60
15.29
15.75
15.98
16.00
15.91
15.85
15.97
16.30
16.73
17.06
17.05
16.60
15.75
14.67
13.56
12.56
11.72
10.94
10.09
9.04
7.66
5.97
4.00
1.88
-0.24
-2.27
-4.13
-5.82
-7.42
-9.08
-10.98
-13.29
-16.10
-19.32
-22.67
-25.66
-27.71
-28.35
-27.38
-24.95
-21.47
-17.46
-13.34
-9.36
-5.61
-2.10
1.15
4.07
6.62
8.76
10.54
12.02
13.31
14.48
15.61
16.67
17.65
18.44
18.96
19.18
19.17
19.07
19.05
19.17
19.40
19.58
19.48
18.96
17.97
16.61
15.06
13.53
12.13
10.89
9.71
8.46
7.00
5.28
3.36
1.31
-0.78
-2.87
-4.99
-7.14
-9.37
-11.67
-14.04
-16.53
-19.23
-22.21
-25.47
-28.85
-31.99
-34.45
-35.86
-36.03
-35.08
-33.32
-31.19
-29.06
-27.11
-25.36
-23.69
-21.95
-20.08
-18.08
-15.98
-13.76
-11.39
-8.86
-6.22
-3.64
-1.37
0.35
1.46
2.09
2.50
3.01
3.80
4.89
6.11
7.18
7.86
7.95
7.41
6.31
4.94
3.69
2.96
3.02
3.92
5.46
7.26
8.89
10.00
10.42
10.13
9.25
7.92
6.34
4.70
3.18
1.97
1.18
0.77
0.54
0.12
-0.83
-2.51
-4.84
-7.39
-9.58
-10.84
-10.81
-9.41
-6.82
-3.33
0.70
4.91
8.90
12.31
14.85
16.44
17.13
17.12
16.59
15.68
14.50
13.17
11.88
10.85
10.21
9.97
9.93
9.87
9.58
9.05
8.37
7.67
7.07
6.57
6.13
5.66
5.08
4.30
3.28
2.00
0.49
-1.16
-2.87
-4.55
-6.16
-7.69
-9.14
-10.45
-11.58
-12.48
-13.15
-13.66
-14.15
-14.79
-15.72
-17.07
-18.93
-21.22
-23.74
-26.09
-27.77
-28.30
-27.35
-24.90
-21.22
-16.84
-12.33
-8.12
-4.42
-1.20
1.68
4.39
7.01
9.52
11.85
13.95
15.78
17.33
18.59
19.53
20.17
20.57
20.79
20.95
21.07
21.12
21.05
20.81
20.40
19.89
19.33
18.74
18.01
17.02
15.67
13.93
11.90
9.68
7.40
5.12
2.90
0.79
-1.18
-3.01
-4.78
-6.57
-8.51
-10.64
-12.92
-15.23
-17.46
-19.57
-21.61
-23.69
-25.91
-28.33
-30.91
-33.47
-35.77
-37.41
-37.99
-37.17
-34.76
-30.85
-25.79
-20.18
-14.64
-9.68
-5.58
-2.28
0.48
3.03
5.62
8.32
11.02
13.50
15.58
17.18
18.35
19.19
19.80
20.20
20.34
20.20
19.83
19.41
19.10
19.00
19.03
18.99
18.59
17.66
16.24
14.55
12.89
11.45
10.23
9.06
7.70
6.01
4.00
1.77
-0.53
-2.81
-5.06
-7.25
-9.36
-11.33
-13.12
-14.73
-16.27
-17.94
-19.91
-22.28
-24.95
-27.63
-29.80
-30.89
-30.42
-28.20
-24.44
-19.68
-14.57
-9.66
-5.23
-1.31
2.21
5.45
8.40
10.99
13.10
14.70
15.84
16.65
17.29
17.84
18.30
18.61
18.71
18.61
18.34
18.01
17.72
17.52
17.42
17.37
17.27
16.98
16.36
15.30
13.80
11.94
9.91
7.87
5.93
4.01
2.02
-0.18
-2.64
-5.26
-7.94
-10.55
-13.05
-15.43
-17.73
-19.95
-22.14
-24.38
-26.76
-29.36
-32.08
-34.66
-36.62
-37.42
-36.65
-34.18
-30.19
-25.12
-19.51
-13.84
-8.40
-3.35
1.26
5.37
8.93
11.87
14.24
16.15
17.78
19.25
20.56
21.63
22.30
22.50
22.26
21.76
21.18
20.68
20.26
19.88
19.44
18.87
18.17
17.39
16.54
15.58
14.45
13.10
11.55
9.93
8.33
6.80
5.30
3.67
1.78
-0.48
-3.06
-5.79
-8.46
-10.90
-13.03
-14.90
-16.68
-18.57
-20.74
-23.28
-26.15
-29.15
-31.95
-34.18
-35.43
-35.34
-33.69
-30.47
-25.89
-20.38
-14.51
-8.82
-3.72
0.64
4.30
7.49
10.35
12.96
15.25
17.06
18.30
18.97
19.18
19.11
18.92
18.70
18.47
18.24
18.01
17.80
17.57
17.31
16.98
16.55
16.01
15.34
14.48
13.35
11.92
10.23
8.40
6.58
4.81
3.04
1.11
-1.07
-3.50
-6.01
-8.35
-10.38
-12.12
-13.75
-15.52
-17.62
-20.11
-22.93
-25.91
-28.84
-31.44
-33.39
-34.32
-33.91
-32.02
-28.73
-24.38
-19.42
-14.28
-9.31
-4.70
-0.50
3.31
6.74
9.81
12.56
15.02
17.30
19.45
21.42
23.11
24.32
24.93
24.96
24.56
24.01
23.55
23.25
23.07
22.86
22.52
22.03
21.44
20.71
19.72
18.30
16.32
13.88
11.20
8.63
6.39
4.49
2.78
0.98
-1.07
-3.37
-5.73
-7.96
-9.95
-11.75
-13.51
-15.40
-17.48
-19.76
-22.18
-24.74
-27.43
-30.20
-32.78
-34.72
-35.45
-34.54
-31.91
-27.87
-22.96
-17.81
-12.83
-8.23
-4.08
-0.38
2.84
5.55
7.76
9.62
11.36
13.16
15.08
17.01
18.71
19.91
20.43
20.27
19.62
18.81
18.21
18.06
18.46
19.28
20.19
20.85
20.92
20.20
18.63
16.26
13.28
9.89
6.38
2.96
-0.15
-2.86
-5.17
-7.18
-9.04
-10.87
-12.71
-14.51
-16.14
-17.48
-18.54
-19.43
-20.37
-21.61
-23.29
-25.39
-27.74
-30.02
-31.85
-32.85
-32.68
-31.11
-28.12
-23.86
-18.73
-13.23
-7.87
-3.02
1.15
4.66
7.67
10.34
12.79
15.06
17.13
18.89
20.24
21.06
21.34
21.14
20.62
19.97
19.34
18.78
18.28
17.81
17.39
17.05
16.85
16.72
16.53
16.07
15.16
13.80
12.12
10.38
8.76
7.33
5.98
4.51
2.74
0.60
-1.79
-4.19
-6.38
-8.18
-9.61
-10.87
-12.23
-13.99
-16.33
-19.24
-22.52
-25.79
-28.54
-30.30
-30.65
-29.45
-26.78
-22.93
-18.30
-13.32
-8.34
-3.64
0.57
4.18
7.15
9.54
11.48
13.10
14.45
15.53
16.27
16.68
16.86
17.01
17.31
17.82
18.46
19.02
19.30
19.24
18.89
18.42
17.96
17.55
17.14
16.63
15.96
15.10
14.07
12.84
11.35
9.54
7.42
5.12
2.82
0.69
-1.24
-3.02
-4.79
-6.63
-8.52
-10.41
-12.27
-14.10
-15.96
-17.92
-20.03
-22.27
-24.67
-27.26
-30.06
-32.91
-35.47
-37.18
-37.50
-36.10
-32.96
-28.46
-23.20
-17.83
-12.81
-8.40
-4.63
-1.39
1.43
3.94
6.19
8.24
10.16
11.99
13.74
15.32
16.60
17.44
17.77
17.65
17.25
16.77
16.39
16.16
16.06
16.01
15.87
15.57
15.08
14.39
13.52
12.51
11.36
10.14
8.88
7.61
6.36
5.14
3.93
2.69
1.39
-0.02
-1.52
-3.07
-4.63
-6.17
-7.66
-9.13
-10.63
-12.26
-14.10
-16.21
-18.53
-20.89
-23.00
-24.50
-25.06
-24.47
-22.68
-19.80
-16.11
-11.88
-7.45
-3.10
0.86
4.23
6.90
8.88
10.34
11.50
12.54
13.54
14.47
15.20
15.63
15.79
15.75
15.61
15.45
15.25
14.95
14.49
13.84
13.07
12.27
11.52
10.89
10.34
9.81
9.25
8.64
7.99
7.34
6.70
6.09
5.52
5.05
4.74
4.68
4.93
5.45
6.09
6.65
6.93
6.86
6.45
5.86
5.21
4.59
3.87
2.82
1.15
-1.32
-4.52
-8.03
-11.19
-13.27
-13.67
-12.15
-8.87
-4.32
0.82
5.92
10.54
14.60
18.29
21.98
25.97
30.29
34.59
38.19
40.27
40.19
37.76
33.26
27.43
21.18
15.34
10.42
6.53
3.24
-0.26
-5.02
-11.93
-21.24
-32.34
-43.72
-53.49
-60.05
-62.74
-62.04
-59.26
-55.96
-53.34
-51.93
-51.62
-51.90
-52.16
-51.77
-50.21
-46.98
-41.73
-34.37
-25.10
-14.42
-3.03
8.34
19.04
28.62
36.88
43.81
49.59
54.40
58.37
61.44
63.46
64.33
64.18
63.51
63.04
63.48
65.12
67.70
70.40
72.20
72.20
69.92
65.36
58.85
50.96
42.40
33.94
26.34
20.21
15.79
12.85
10.76
8.75
6.28
3.21
-0.21
-3.52
-6.31
-8.29
-9.37
-9.56
-8.97
-7.85
-6.68
-6.05
-6.53
-8.46
-11.77
-16.10
-20.85
-25.46
-29.53
-32.87
-35.53
-37.67
-39.60
-41.70
-44.44
-48.31
-53.80
-61.35
-71.27
-83.62
-98.10
-113.96
-130.10
-145.25
-158.23
-168.09
-174.09
-175.53
-171.65
-161.76
-145.41
-122.82
-95.01
-63.80
-31.53
-0.64
26.75
49.13
65.86
77.14
83.83
87.25
88.81
89.76
91.02
93.08
96.08
99.87
104.10
108.27
111.89
114.50
115.70
115.13
112.42
107.10
98.68
86.70
71.05
52.20
31.39
10.49
-8.33
-23.32
-33.66
-39.76
-43.01
-45.20
-47.77
-51.37
-55.79
-60.33
-64.16
-66.75
-67.95
-67.89
-66.83
-65.04
-62.77
-60.25
-57.79
-55.78
-54.62
-54.63
-55.82
-57.81
-59.86
-61.06
-60.67
-58.41
-54.52
-49.61
-44.42
-39.53
-35.19
-31.35
-27.79
-24.27
-20.60
-16.70
-12.62
-8.47
-4.43
-0.69
2.61
5.38
7.60
9.37
10.84
12.26
13.88
15.97
18.71
22.15
26.11
30.24
34.09
37.22
39.30
40.19
39.92
38.64
36.55
33.91
30.97
28.03
25.31
22.91
20.74
18.59
16.17
13.28
9.84
5.95
1.72
-2.73
-7.38
-12.19
-17.07
-21.83
-26.17
-29.86
-32.77
-34.92
-36.35
-37.01
-36.62
-34.86
-31.40
-26.23
-19.64
-12.19
-4.47
3.10
10.36
17.27
23.83
29.86
35.04
39.04
41.62
42.72
42.43
40.90
38.25
34.65
30.39
25.91
21.81
18.64
16.72
15.99
16.11
16.54
16.84
16.84
16.57
16.32
16.40
17.03
18.31
20.19
22.48
24.91
27.15
28.83
29.60
29.25
27.79
25.48
22.82
20.35
18.59
17.90
18.36
19.89
22.20
24.88
27.50
29.72
31.38
32.60
33.77
35.36
37.78
41.08
44.88
48.49
51.12
52.23
51.71
49.93
47.47
44.88
42.38
39.79
36.61
32.32
26.58
19.42
11.27
2.77
-5.33
-12.39
-17.96
-21.85
-24.08
-24.85
-24.53
-23.41
-21.60
-18.93
-15.06
-9.68
-2.76
5.32
13.72
21.18
26.52
29.09
29.04
27.23
24.93
23.48
23.96
26.94
32.12
38.66
45.41
51.10
54.50
54.55
50.70
43.00
32.12
18.53
3.09
-12.78
-27.36
-39.17
-47.50
-52.33
-54.11
-53.48
-52.41
-52.34
-53.57
-55.32
-56.64
-57.11
-56.81
-56.07
-55.25
-57.08
-63.64
-75.15
-89.72
-104.54
-117.29
-126.60
-132.24
-134.97
-139.05
-147.85
-161.90
-178.64
-194.70
-208.18
-219.23
-229.49
-222.52
-189.33
-132.80
-66.52
-3.65
49.48
91.86
124.60
149.30
167.80
179.18
183.35
181.46
176.38
170.97
166.74
163.95
162.43
161.95
159.81
154.71
146.14
135.57
124.88
115.33
107.31
100.88
95.88
90.66
83.91
74.01
60.97
45.66
29.33
13.35
-1.10
-13.73
-26.69
-35.72
-40.46
-40.89
-36.95
-28.60
-15.86
0.91
20.78
42.00
62.87
80.79
94.15
101.97
103.76
99.57
90.15
77.01
62.22
48.00
35.24
24.19
14.31
4.64
-5.64
-16.70
-27.88
-37.93
-45.53
-50.41
-53.08
-54.74
-56.91
-60.71
-66.27
-72.63
-78.26
-81.84
-83.24
-83.25
-83.11
-83.78
-85.46
-87.58
-89.25
-89.76
-88.87
-86.86
-84.00
-80.31
-75.51
-69.15
-60.94
-50.96
-39.82
-28.52
-18.23
-9.96
-4.29
-1.32
-0.90
-2.86
-7.35
-14.83
-25.88
-40.96
-60.21
-83.39
-109.84
-138.45
-167.72
-195.98
-221.62
-243.37
-260.60
-273.26
-281.50
-285.22
-284.03
-277.33
-264.66
-245.95
-221.58
-192.65
-160.85
-128.02
-95.43
-63.51
-31.93
0.19
33.88
69.89
107.82
145.98
181.63
211.85
233.26
242.32
236.39
215.89
185.55
152.97
126.06
109.92
105.66
109.41
114.23
113.42
104.73
91.89
81.57
79.56
88.00
105.99
129.68
153.82
173.40
186.15
192.90
194.81
191.75
175.99
144.71
102.93
59.62
20.60
-16.24
-52.68
-89.52
-124.52
-154.29
-173.46
-177.66
-158.89
-119.08
-70.35
-26.84
3.13
19.30
25.86
28.17
29.63
30.88
31.67
33.53
40.39
56.24
82.78
117.78
156.17
190.60
207.22
198.56
166.19
120.29
74.26
39.03
18.81
11.45
10.86
9.98
5.73
-1.85
-10.47
-19.24
-28.80
-41.31
-58.78
-81.78
-109.96
-139.47
-165.69
-185.23
-197.91
-204.96
-209.12
-213.91
-215.98
-215.25
-210.19
-199.58
-183.32
-163.44
-140.23
-113.23
-81.77
-46.50
-10.34
25.32
59.24
90.17
115.60
136.55
155.23
173.71
192.10
199.34
188.40
160.13
131.76
107.52
89.78
77.14
70.80
71.31
77.81
90.51
109.17
131.94
147.21
145.96
124.93
89.53
50.58
19.10
3.38
5.16
19.12
34.39
42.76
41.17
31.48
17.54
2.41
-12.16
-26.33
-41.16
-58.30
-77.29
-95.74
-111.41
-123.12
-130.65
-133.24
-129.79
-119.80
-101.88
-79.90
-57.96
-38.76
-22.86
-10.18
-0.44
6.24
9.53
8.91
5.00
0.63
-0.48
5.52
19.88
40.93
64.52
84.97
96.99
97.73
88.94
71.99
55.29
46.00
45.60
49.59
51.02
45.30
32.68
17.99
7.03
3.76
7.11
12.70
16.04
14.68
9.47
3.25
-0.89
-1.76
0.60
4.01
5.87
4.76
0.60
-4.89
-9.18
-10.22
-7.25
-0.70
7.53
15.27
21.07
23.54
22.05
16.46
7.43
-3.25
-12.35
-16.58
-14.09
-0.61
22.34
49.38
73.57
89.16
93.64
87.77
74.11
55.32
33.42
9.46
-14.56
-35.42
-49.32
-53.75
-48.26
-34.51
-15.26
6.69
28.93
50.48
71.24
91.17
109.24
123.58
131.76
131.51
121.45
101.42
73.17
40.04
6.04
-25.71
-52.76
-73.43
-86.89
-93.44
-94.58
-92.46
-89.34
-87.00
-87.84
-92.35
-98.87
-104.76
-108.28
-109.24
-108.33
-106.36
-103.58
-102.65
-103.96
-105.01
-102.09
-93.29
-79.25
-62.15
-44.80
-29.89
-24.64
-32.67
-52.23
-77.86
-104.63
-129.46
-150.70
-167.81
-181.48
-200.02
-228.36
-264.97
-303.41
-337.69
-364.67
-383.80
-396.61
-365.02
-279.25
-164.27
-58.27
18.62
66.57
94.23
110.55
121.95
132.19
133.50
125.01
110.49
96.60
87.99
85.93
89.79
98.21
109.80
118.47
122.05
121.72
121.29
123.03
126.52
129.85
131.04
128.98
120.64
105.94
87.61
69.81
55.11
43.96
35.96
31.04
29.81
31.50
35.59
41.43
48.33
55.08
60.47
64.07
66.25
67.67
68.16
67.45
65.41
62.48
59.38
56.78
55.15
54.49
54.37
54.17
53.43
51.92
49.83
47.60
45.69
44.38
43.68
43.32
42.80
41.61
39.47
36.38
32.59
28.45
24.23
19.94
15.46
10.66
5.49
0.09
-5.32
-10.50
-15.31
-19.66
-23.57
-27.05
-30.18
-33.15
-36.26
-39.93
-44.46
-49.98
-56.25
-62.68
-68.44
-72.59
-74.45
-73.55
-69.90
-63.81
-55.82
-46.60
-36.71
-26.69
-16.88
-7.59
1.04
8.93
16.06
22.49
28.30
33.58
38.37
42.67
46.41
49.50
51.80
53.18
53.63
53.23
52.13
50.54
48.61
46.45
44.14
41.67
39.09
36.39
33.55
30.49
27.13
23.45
19.50
15.41
11.42
7.70
4.32
1.25
-1.67
-4.60
-7.70
-11.06
-14.66
-18.42
-22.23
-25.97
-29.65
-33.34
-37.13
-41.04
-45.04
-49.16
-53.50
-58.17
-63.12
-68.04
-72.29
-74.97
-75.16
-72.20
-66.05
-57.21
-46.53
-34.90
-23.03
-11.39
-0.15
10.88
21.91
32.97
43.81
53.93
62.83
70.01
75.20
78.25
79.62
79.70
78.55
76.05
72.35
68.05
63.84
60.01
56.21
52.47
48.51
43.65
37.25
29.39
20.99
13.18
6.66
1.50
-1.25
-1.09
1.14
3.51
4.33
3.10
0.33
-2.92
-5.24
-3.24
5.79
22.14
43.70
67.44
90.96
112.58
131.39
135.11
117.37
83.26
46.21
17.08
-0.87
-9.50
-12.66
-14.05
-16.02
-17.21
-14.99
-7.68
5.07
20.75
36.60
49.76
57.95
60.22
58.84
56.83
55.84
55.33
53.45
48.68
40.20
28.59
15.56
3.83
-4.96
-11.29
-17.29
-25.12
-35.53
-47.67
-59.63
-69.41
-75.15
-76.17
-73.17
-67.90
-62.24
-57.47
-54.40
-53.46
-55.03
-59.32
-66.38
-75.84
-86.83
-97.87
-107.22
-113.56
-116.40
-116.26
-114.29
-111.80
-109.66
-108.16
-106.96
-105.39
-102.69
-98.27
-91.86
-83.53
-73.56
-62.41
-50.44
-37.95
-25.04
-11.78
1.71
15.00
27.41
38.18
46.67
52.68
56.50
58.66
59.71
59.90
59.13
57.13
53.78
49.33
44.50
40.19
37.24
36.07
36.50
37.85
39.26
40.04
40.04
39.63
39.57
40.50
42.58
45.31
47.73
48.76
47.76
44.74
40.39
35.61
31.21
27.69
25.28
24.09
24.19
25.44
27.12
27.92
26.26
20.93
11.87
0.32
-11.67
-22.31
-30.94
-38.14
-45.13
-52.54
-59.79
-65.14
-66.68
-63.42
-55.71
-45.02
-33.05
-21.02
-9.44
1.52
11.67
20.56
27.73
33.01
36.63
39.00
40.45
40.93
40.22
38.32
35.74
33.47
32.74
34.52
39.30
46.90
56.38
66.02
73.46
76.16
72.20
61.21
44.82
26.32
9.58
-2.42
-8.54
-9.56
-7.35
-3.84
-0.25
2.95
5.46
6.65
5.47
0.92
-7.35
-18.60
-31.17
-43.22
-53.49
-61.86
-69.25
-77.08
-86.50
-97.81
-110.22
-122.06
-131.32
-136.23
-135.78
-130.05
-120.11
-107.69
-94.55
-81.93
-70.29
-59.38
-48.72
-38.12
-27.91
-18.87
-11.78
-7.01
-4.23
-2.60
-1.10
0.98
3.81
7.00
9.94
12.11
13.42
14.29
15.40
17.30
20.01
22.94
25.13
25.64
24.11
20.78
16.39
11.73
7.32
3.32
-0.43
-4.24
-8.46
-13.38
-19.22
-25.97
-33.39
-41.09
-48.70
-56.08
-63.39
-71.05
-79.41
-88.55
-98.25
-108.05
-117.34
-125.46
-131.57
-134.65
-133.71
-128.17
-118.16
-104.66
-89.16
-73.13
-57.63
-43.05
-29.39
-16.44
-4.11
7.62
18.65
29.00
38.65
47.53
55.44
62.11
67.31
70.95
73.16
74.10
74.00
73.07
71.64
70.16
69.09
68.70
68.89
69.17
68.93
67.84
65.96
63.69
61.44
59.19
56.41
52.42
46.72
39.42
31.20
23.11
16.12
10.96
7.99
7.37
8.99
12.41
16.63
19.97
20.22
15.09
2.90
-16.88
-43.30
-74.02
-105.82
-135.41
-160.12
-178.32
-189.32
-193.00
-189.41
-178.66
-161.21
-138.25
-111.87
-84.79
-59.81
-39.03
-23.50
-13.18
-7.24
-4.42
-3.37
-2.89
-2.05
-0.29
2.66
6.85
12.30
18.92
26.54
34.74
42.75
49.66
54.67
57.42
58.17
57.64
56.75
56.27
56.56
57.53
58.84
60.04
60.84
61.16
61.14
60.90
60.41
59.27
56.87
52.68
46.53
38.84
30.49
22.59
16.01
11.11
7.62
4.83
1.93
-1.73
-6.27
-11.24
-15.71
-18.50
-18.47
-14.86
-7.51
3.05
15.78
29.44
42.96
55.67
67.28
77.84
87.45
96.14
103.89
110.71
116.83
122.68
128.71
135.21
142.10
148.89
154.90
159.53
162.47
163.70
163.28
161.14
156.96
150.37
141.20
129.83
117.25
104.81
93.81
85.07
78.75
74.42
71.37
68.85
66.28
63.24
59.42
54.58
48.50
41.07
32.25
22.08
10.66
-1.88
-15.40
-29.74
-44.72
-60.15
-75.77
-91.26
-106.12
-119.60
-130.73
-138.46
-141.91
-140.73
-135.25
-126.48
-115.73
-104.29
-93.00
-82.16
-71.65
-61.14
-50.40
-39.36
-28.19
-17.18
-6.77
2.54
10.23
15.83
19.11
20.18
19.44
17.55
15.25
13.09
11.41
10.26
9.47
8.68
7.48
5.53
2.66
-0.94
-4.76
-8.06
-10.22
-10.96
-10.52
-9.55
-8.94
-9.39
-11.26
-14.47
-18.62
-23.14
-27.55
-31.54
-35.11
-38.56
-42.42
-47.21
-53.27
-60.44
-68.23
-75.91
-83.02
-89.60
-96.22
-103.66
-112.51
-122.72
-133.53
-143.74
-152.02
-157.29
-158.83
-156.29
-149.60
-138.94
-124.76
-107.84
-89.18
-69.84
-50.73
-32.44
-15.32
0.45
14.74
27.39
38.24
47.23
54.47
60.13
64.54
68.04
70.95
73.52
75.81
77.75
79.02
79.29
78.29
75.98
72.60
68.51
64.13
59.71
55.43
51.36
47.58
44.12
40.92
37.74
34.20
30.03
25.19
20.06
15.16
10.93
7.38
4.04
0.19
-4.76
-10.95
-18.08
-25.49
-32.59
-38.96
-44.54
-49.52
-54.31
-59.39
-65.27
-72.25
-80.16
-88.24
-95.05
-98.88
-98.18
-92.10
-80.85
-65.63
-48.26
-30.55
-13.87
1.25
14.98
27.91
40.61
53.37
66.10
78.38
89.81
100.10
109.26
117.44
124.85
131.54
137.37
142.01
145.04
146.23
145.68
143.90
141.64
139.72
138.63
138.40
138.70
138.93
138.56
137.25
134.93
131.72
127.87
123.66
119.30
114.91
110.28
104.81
97.47
87.03
72.44
53.34
30.33
5.01
-20.40
-43.71
-63.38
-78.93
-91.06
-101.23
-111.08
-121.81
-133.68
-145.84
-156.61
-163.88
-165.96
-162.04
-152.47
-138.52
-121.92
-104.26
-86.63
-69.60
-53.35
-37.93
-23.37
-9.74
3.00
14.90
25.99
36.12
44.95
51.93
56.50
58.27
57.09
53.19
47.13
39.81
32.32
25.72
20.81
17.89
16.77
16.99
17.98
19.41
21.06
22.74
24.01
24.17
22.52
18.64
12.67
5.26
-2.65
-10.31
-17.38
-24.01
-30.78
-38.36
-47.42
-58.38
-71.24
-85.44
-99.77
-112.50
-121.90
-126.92
-127.74
-125.97
-124.20
-125.12
-130.44
-140.25
-152.92
-165.62
-175.26
-179.35
-176.67
-167.40
-152.95
-135.50
-117.36
-100.41
-85.63
-72.94
-61.41
-49.78
-37.01
-22.77
-7.70
6.89
19.44
28.79
34.63
37.75
39.91
43.37
50.30
62.05
78.74
99.24
121.53
143.19
161.98
176.23
184.90
187.61
184.51
176.21
163.70
148.24
131.15
113.60
96.47
80.24
65.12
51.15
38.29
26.55
15.88
6.27
-2.37
-10.21
-17.51
-24.51
-31.46
-38.50
-45.68
-53.04
-60.72
-68.90
-77.69
-86.94
-95.97
-103.69
-108.76
-110.00
-106.81
-99.29
-88.23
-74.81
-60.21
-45.33
-30.72
-16.63
-3.22
9.32
20.75
30.93
39.92
47.99
55.46
62.47
68.89
74.34
78.49
81.28
83.00
84.15
85.16
86.20
87.19
87.91
88.24
88.17
87.74
86.94
85.66
83.70
80.90
77.12
72.28
66.34
59.41
51.77
43.87
36.16
28.92
22.08
15.28
8.10
0.35
-7.83
-16.02
-23.86
-31.24
-38.39
-45.74
-53.71
-62.51
-72.07
-82.02
-91.71
-100.30
-106.79
-110.20
-109.81
-105.30
-96.94
-85.42
-71.63
-56.38
-40.25
-23.63
-6.89
9.50
24.87
38.60
50.30
59.97
67.95
74.75
80.72
85.90
90.10
93.03
94.53
94.61
93.45
91.28
88.35
84.93
81.32
77.83
74.64
71.65
68.50
64.71
59.94
54.23
48.01
41.89
36.36
31.56
27.21
22.59
16.98
9.85
1.08
-9.01
-19.71
-30.07
-38.96
-45.17
-47.78
-46.54
-42.31
-37.11
-33.71
-34.73
-41.70
-54.45
-71.20
-89.21
-105.76
-118.80
-127.21
-130.60
-129.04
-122.85
-112.72
-99.66
-84.97
-69.85
-55.17
-41.31
-28.22
-15.75
-3.80
7.45
17.67
26.45
33.55
38.99
43.07
46.27
49.09
51.91
54.84
57.78
60.50
62.78
64.61
66.10
67.50
68.92
70.26
71.24
71.49
70.75
68.99
66.50
63.74
61.21
59.19
57.68
56.35
54.64
52.05
48.29
43.51
38.23
33.21
29.15
26.48
25.15
24.68
24.35
23.39
21.40
18.58
15.86
14.81
17.23
24.49
36.85
53.03
70.36
85.50
95.55
99.00
96.17
88.91
79.79
71.18
64.57
60.39
58.35
57.80
58.16
58.99
59.89
60.44
60.19
58.80
56.25
52.97
49.63
46.72
44.16
40.96
35.46
25.93
11.37
-7.85
-30.02
-52.53
-72.76
-88.81
-99.91
-106.33
-108.84
-108.29
-105.36
-100.63
-94.83
-89.06
-84.74
-83.19
-85.15
-90.52
-98.30
-107.00
-115.19
-121.96
-127.19
-131.57
-136.14
-141.83
-148.92
-156.72
-163.64
-167.67
-167.08
-161.13
-150.19
-135.56
-118.82
-101.23
-83.49
-65.92
-48.83
-32.78
-18.45
-6.26
3.86
12.52
20.43
28.12
35.63
42.55
48.37
52.67
55.39
56.75
57.18
57.07
56.76
56.35
55.72
54.65
52.88
50.33
47.10
43.48
39.73
36.05
32.44
28.77
24.89
20.65
15.97
10.81
5.28
-0.52
-6.43
-12.40
-18.41
-24.52
-30.75
-36.94
-42.82
-48.08
-52.60
-56.52
-60.26
-64.41
-69.49
-75.76
-83.14
-91.15
-98.87
-105.22
-109.05
-109.55
-106.41
-99.87
-90.53
-79.12
-66.22
-52.30
-37.73
-23.02
-8.85
3.98
14.68
22.46
26.70
27.19
24.58
20.55
17.66
18.53
24.68
35.80
49.64
62.96
72.87
77.94
78.53
76.19
72.71
69.22
66.10
63.18
60.28
57.44
54.80
52.37
49.82
46.59
42.11
36.09
28.72
20.52
12.18
4.27
-2.92
-9.40
-15.46
-21.44
-27.60
-34.15
-41.12
-48.48
-56.08
-63.85
-71.81
-80.09
-88.79
-97.71
-106.19
-113.04
-116.88
-116.60
-111.81
-102.95
-91.14
-77.73
-63.91
-50.42
-37.57
-25.37
-13.75
-2.66
7.85
17.58
26.23
33.57
39.51
44.24
48.16
51.71
55.21
58.73
62.20
65.52
68.70
71.79
74.71
77.19
78.80
79.11
77.98
75.63
72.60
69.46
66.63
64.21
62.03
59.68
56.77
52.99
48.30
42.86
36.96
30.91
24.89
18.87
12.62
5.87
-1.57
-9.65
-18.06
-26.26
-33.68
-39.90
-44.89
-49.06
-53.26
-58.51
-65.65
-74.94
-85.87
-97.19
-107.19
-114.20
-117.00
-115.13
-108.89
-99.17
-87.13
-73.89
-60.29
-46.88
-33.96
-21.70
-10.27
0.14
9.44
17.56
24.58
30.61
35.75
40.13
43.83
46.93
49.44
51.19
51.84
50.99
48.49
44.70
40.54
37.25
35.89
36.84
39.66
43.27
46.42
48.17
48.07
46.13
42.60
37.77
31.99
25.67
19.27
13.23
7.73
2.59
-2.71
-8.70
-15.66
-23.32
-30.97
-37.70
-42.78
-45.98
-47.66
-48.57
-49.69
-51.86
-55.53
-60.61
-66.36
-71.52
-74.60
-74.31
-69.99
-61.80
-50.61
-37.70
-24.27
-11.25
0.85
11.81
21.63
30.40
38.32
45.61
52.43
58.77
64.47
69.27
73.02
75.76
77.70
79.08
80.04
80.59
80.67
80.31
79.64
78.82
77.92
76.79
75.17
72.76
69.50
65.49
61.02
56.33
51.48
46.41
40.96
35.07
28.81
22.32
15.76
9.21
2.61
-4.12
-11.04
-18.17
-25.42
-32.70
-39.91
-47.00
-54.00
-61.07
-68.45
-76.45
-85.28
-94.85
-104.57
-113.38
-119.89
-122.72
-120.98
-114.51
-103.98
-90.60
-75.74
-60.57
-45.79
-31.72
-18.37
-5.71
6.31
17.70
28.44
38.49
47.73
55.92
62.80
68.08
71.67
73.67
74.47
74.55
74.38
74.28
74.35
74.51
74.56
74.31
73.65
72.58
71.20
69.55
67.60
65.18
62.11
58.22
53.54
48.25
42.67
37.08
31.70
26.50
21.31
15.86
9.92
3.40
-3.64
-11.05
-18.63
-26.21
-33.66
-40.88
-47.86
-54.67
-61.55
-68.92
-77.17
-86.40
-96.20
-105.54
-112.96
-117.00
-116.61
-111.49
-102.17
-89.72
-75.39
-60.33
-45.36
-30.93
-17.32
-4.64
7.00
17.56
26.98
35.28
42.49
48.63
53.69
57.64
60.50
62.29
63.17
63.33
63.08
62.69
62.39
62.20
61.95
61.41
60.32
58.56
56.16
53.20
49.71
45.66
40.96
35.63
29.80
23.72
17.66
11.73
5.95
0.24
-5.45
-11.09
-16.66
-22.23
-27.95
-34.03
-40.56
-47.57
-54.99
-62.84
-71.19
-80.08
-89.20
-97.71
-104.29
-107.47
-106.18
-100.08
-89.76
-76.40
-61.37
-45.87
-30.69
-16.31
-3.01
9.07
19.85
29.44
38.07
46.01
53.36
60.01
65.57
69.64
71.90
72.35
71.28
69.30
67.19
65.79
65.74
67.32
70.39
74.37
78.47
82.00
84.57
86.28
87.62
89.23
91.58
94.64
97.76
99.76
99.26
95.20
87.23
75.84
62.27
48.08
34.63
22.75
12.72
4.34
-2.81
-9.29
-15.75
-22.96
-31.78
-42.96
-56.84
-73.05
-90.37
-106.84
-120.25
-128.72
-131.22
-127.91
-119.90
-108.85
-96.35
-83.60
-71.27
-59.65
-48.88
-39.10
-30.37
-22.68
-15.86
-9.71
-4.10
0.98
5.41
9.10
11.98
14.06
15.34
15.78
15.44
14.53
13.47
12.73
12.60
13.06
13.71
14.05
13.68
12.52
10.76
8.70
6.53
4.35
2.16
0.00
-2.09
-4.20
-6.59
-9.70
-13.88
-19.21
-25.34
-31.61
-37.41
-42.38
-46.63
-50.57
-54.71
-59.51
-65.21
-71.87
-79.37
-87.22
-94.57
-100.24
-102.91
-101.48
-95.47
-85.13
-71.45
-55.78
-39.54
-23.82
-9.34
3.64
15.18
25.56
35.13
44.14
52.69
60.70
67.94
74.19
79.33
83.45
86.77
89.61
92.23
94.73
97.11
99.29
101.17
102.68
103.70
104.14
103.86
102.77
100.93
98.50
95.68
92.62
89.36
85.76
81.56
76.47
70.16
62.43
53.20
42.61
31.07
19.03
6.82
-5.57
-18.58
-32.89
-49.07
-67.24
-86.88
-106.85
-125.55
-141.27
-152.37
-157.61
-156.38
-148.90
-136.30
-120.33
-103.03
-86.16
-70.81
-57.29
-45.32
-34.20
-23.28
-12.05
-0.51
11.18
22.81
34.16
44.89
54.60
62.82
69.26
73.95
76.97
78.60
79.41
80.17
81.55
84.00
87.42
91.34
95.02
97.27
97.34
95.52
92.96
91.01
90.75
92.15
94.56
97.03
97.26
93.61
86.26
76.99
67.85
60.84
56.36
54.48
55.04
54.67
50.08
40.38
26.81
10.79
-5.89
-23.60
-42.11
-60.38
-81.81
-109.28
-141.50
-173.46
-200.02
-216.26
-222.36
-219.79
-211.06
-205.85
-213.86
-238.49
-276.99
-324.73
-375.77
-429.33
-484.63
-502.51
-459.37
-365.20
-253.31
-151.60
-85.84
-42.90
-13.22
8.72
25.71
38.78
44.95
46.02
46.92
51.19
61.23
73.95
87.13
100.04
107.91
106.05
96.14
83.61
73.37
69.06
69.41
73.08
79.08
83.60
83.22
80.88
82.52
93.36
115.82
147.52
185.14
225.20
263.10
279.50
262.15
213.16
148.20
84.16
31.13
-5.91
-25.84
-31.81
-30.55
-25.26
-20.81
-20.00
-23.99
-31.52
-38.52
-40.63
-35.31
-22.43
-0.94
24.92
51.56
74.79
91.69
102.22
107.82
110.00
109.46
107.07
102.43
94.91
83.24
67.00
48.22
29.57
13.08
-0.53
-10.86
-17.81
-20.67
-18.80
-17.59
-20.33
-27.91
-39.20
-53.09
-68.65
-84.81
-99.82
-112.35
-121.90
-127.66
-129.56
-127.92
-123.05
-115.92
-107.76
-100.24
-95.66
-96.60
-104.30
-118.74
-138.42
-160.53
-181.48
-197.70
-206.39
-205.65
-194.85
-174.47
-146.27
-112.86
-77.17
-41.86
-8.86
20.58
45.94
67.13
84.67
99.23
111.37
121.32
129.00
134.36
137.46
138.54
138.00
136.33
133.92
131.03
127.69
123.87
119.56
114.73
109.28
103.02
95.68
87.29
77.97
67.81
56.87
45.37
33.64
22.20
11.59
2.28
-5.24
-10.84
-14.92
-18.33
-22.01
-26.66
-32.54
-39.40
-46.58
-52.80
-57.16
-59.75
-61.61
-64.19
-68.68
-75.65
-84.76
-94.80
-102.40
-104.44
-99.33
-87.39
-69.96
-48.78
-25.73
-2.72
18.57
39.99
62.87
86.43
107.99
125.11
137.04
144.64
149.53
153.53
162.98
181.85
209.07
239.10
266.07
286.65
300.34
308.53
313.45
323.59
344.59
375.95
411.79
445.74
473.97
495.00
508.60
475.81
379.53
235.31
81.97
-48.43
-145.30
-213.15
-260.87
-295.30
-319.88
-329.53
-321.19
-298.24
-269.62
-243.99
-225.93
-216.55
-214.12
-216.60
-217.22
-210.82
-196.33
-176.38
-154.12
-131.49
-109.57
-89.34
-71.91
-55.01
-36.61
-16.49
3.81
23.25
41.51
58.51
73.74
86.12
96.25
105.10
113.32
121.00
128.05
134.30
139.74
144.66
149.73
156.32
165.14
175.27
184.17
188.69
186.51
177.01
161.39
141.52
119.44
96.76
74.21
51.76
29.06
5.84
-17.86
-41.77
-65.77
-89.25
-111.01
-129.49
-143.48
-152.57
-157.25
-158.47
-157.23
-155.16
-153.16
-151.26
-149.27
-147.62
-147.39
-149.60
-154.50
-161.40
-171.31
-183.67
-195.48
-202.66
-202.47
-194.42
-179.73
-160.59
-139.50
-124.06
-118.87
-122.70
-130.32
-137.04
-140.82
-141.41
-139.35
-135.51
-139.17
-155.77
-182.58
-211.65
-236.72
-255.98
-270.33
-281.48
-291.28
-312.47
-352.93
-410.05
-473.91
-535.59
-590.27
-634.99
-666.93
-615.69
-455.81
-225.29
6.00
191.41
319.85
398.76
440.05
454.65
451.43
427.30
383.40
330.34
281.59
247.29
229.37
224.25
226.96
233.07
231.70
217.26
193.17
168.33
149.88
139.85
136.88
139.77
146.14
148.39
141.52
126.06
106.54
87.30
70.35
56.21
45.34
37.93
31.53
24.45
17.20
12.06
11.28
15.71
24.68
36.68
49.33
59.21
64.34
65.45
66.37
72.21
87.11
108.69
131.61
149.33
157.60
155.27
142.64
121.33
93.93
63.78
34.56
10.12
-6.94
-16.00
-18.54
-17.87
-16.58
-16.05
-17.12
-20.06
-24.87
-31.43
-39.24
-47.44
-55.94
-63.86
-70.26
-74.81
-77.73
-79.37
-79.98
-79.60
-73.05
-61.25
-46.37
-30.60
-15.50
-1.96
9.68
19.53
27.89
34.80
39.35
41.33
40.90
38.49
34.73
30.28
25.62
21.23
16.96
11.75
5.04
-3.47
-13.80
-25.72
-38.79
-51.66
-61.94
-67.22
-66.07
-58.21
-45.02
-29.25
-13.95
-1.82
6.66
14.88
24.94
37.31
50.62
62.11
68.69
68.40
60.27
45.91
28.96
12.91
0.00
-8.80
-13.24
-13.90
-12.29
-12.10
-16.02
-24.25
-34.87
-44.61
-49.87
-47.32
-35.27
-7.43
32.24
71.81
100.53
115.80
119.89
114.05
99.50
76.90
49.94
22.39
-1.30
-17.20
-23.91
-23.41
-19.65
-16.31
-15.82
-18.88
-26.09
-36.78
-49.21
-61.68
-73.30
-83.46
-90.97
-94.32
-92.01
-83.94
-70.65
-53.11
-32.97
-12.61
5.64
20.41
31.32
38.74
42.85
43.75
41.43
35.79
26.76
14.65
0.38
-14.91
-30.12
-44.67
-58.19
-70.26
-80.31
-87.67
-91.61
-91.60
-87.74
-80.90
-72.80
-65.60
-61.06
-59.79
-60.86
-62.17
-61.32
-56.79
-48.48
-37.61
-25.88
-14.56
-4.05
6.02
16.31
27.26
38.88
50.83
62.57
73.44
82.75
89.67
93.55
94.18
92.04
88.15
83.73
79.59
75.72
71.28
65.05
55.97
43.71
28.86
12.83
-2.50
-15.40
-24.79
-30.59
-33.67
-35.63
-38.24
-42.81
-49.66
-58.12
-66.88
-74.62
-80.41
-83.81
-84.92
-84.02
-81.19
-76.16
-68.52
-58.15
-45.62
-32.23
-19.54
-9.39
-3.50
-3.11
-8.65
-19.82
-35.50
-53.94
-72.63
-87.97
-96.89
-97.85
-90.96
-77.55
-59.96
-40.74
-22.03
-4.92
12.25
31.04
51.78
74.16
98.03
123.25
149.51
175.45
198.78
219.17
235.18
244.29
245.03
238.46
226.96
213.45
199.49
185.57
174.63
167.32
161.06
152.18
138.47
119.11
95.40
69.42
24.30
-39.71
-106.46
-159.38
-194.34
-214.02
-227.70
-239.52
-250.27
-258.98
-261.20
-254.43
-240.02
-221.13
-200.12
-178.73
-157.69
-138.18
-121.44
-105.74
-89.95
-74.29
-59.27
-44.50
-29.69
-14.58
0.11
13.54
26.78
40.30
53.07
63.23
69.33
70.64
67.90
62.78
57.49
54.78
55.90
60.29
66.65
74.20
82.84
92.68
102.92
111.54
116.14
114.57
106.03
91.71
74.72
58.94
48.02
44.31
48.54
59.85
76.06
94.09
110.66
123.19
130.68
134.12
136.04
139.33
145.89
155.51
165.69
172.45
171.73
160.86
139.40
109.00
72.64
33.64
-4.93
-40.38
-70.40
-93.15
-107.76
-114.76
-116.24
-115.30
-114.90
-117.02
-122.22
-129.99
-139.41
-149.70
-160.14
-169.78
-177.09
-180.10
-177.08
-167.32
-151.73
-132.69
-113.19
-95.78
-81.66
-70.40
-60.34
-49.37
-35.75
-18.82
0.74
21.11
39.83
54.48
63.30
65.56
61.55
52.35
39.55
24.97
10.73
-1.10
-8.68
-10.93
-7.81
-0.37
9.60
20.20
29.88
37.66
43.12
46.12
46.75
45.17
41.59
36.19
29.01
20.00
9.17
-3.24
-16.68
-30.37
-43.58
-55.70
-66.42
-75.61
-83.23
-89.23
-93.54
-96.23
-97.48
-97.69
-97.35
-97.03
-97.19
-97.99
-99.16
-99.86
-98.78
-94.46
-85.72
-72.03
-53.67
-31.75
-7.81
16.49
39.80
61.35
80.93
98.76
115.18
130.36
144.22
156.43
166.50
173.99
178.49
179.76
177.62
172.15
163.73
153.19
141.68
130.30
119.68
109.57
99.06
87.14
73.56
59.25
46.08
35.97
29.84
27.13
26.07
24.67
21.76
17.41
12.58
8.18
4.18
-0.44
-7.02
-16.26
-27.75
-40.04
-51.31
-60.25
-66.40
-70.16
-72.16
-72.75
-71.86
-69.23
-64.90
-59.46
-53.86
-49.01
-45.45
-42.94
-40.43
-36.52
-30.09
-20.70
-8.50
6.07
22.62
40.43
58.91
77.68
96.43
114.59
131.30
145.65
156.81
164.25
166.84
164.14
157.44
149.51
143.11
139.64
138.71
138.42
136.39
129.37
115.45
95.32
71.69
47.23
23.32
0.25
-22.33
-44.67
-68.96
-97.41
-130.47
-166.58
-203.51
-239.20
-271.87
-300.18
-312.98
-302.36
-272.06
-234.69
-200.62
-173.98
-155.08
-142.78
-136.84
-133.85
-132.34
-130.99
-127.46
-119.17
-105.13
-86.29
-63.89
-40.54
-17.67
3.00
20.56
35.20
47.37
56.76
62.40
63.73
61.36
57.22
52.45
47.42
42.19
36.96
31.96
27.75
25.33
25.78
29.94
37.16
45.72
53.63
59.49
62.67
63.52
63.08
62.51
62.64
63.32
63.71
62.97
60.78
57.37
53.37
49.41
45.77
42.37
38.90
35.05
30.76
26.24
21.79
17.73
14.24
11.34
9.03
7.17
5.48
3.51
0.78
-3.06
-8.04
-13.80
-19.74
-25.14
-29.55
-32.91
-35.53
-37.97
-40.77
-44.27
-48.57
-53.61
-59.31
-65.59
-72.19
-78.49
-83.40
-85.59
-84.00
-78.26
-68.95
-57.36
-44.98
-33.03
-22.13
-12.33
-3.42
4.94
12.94
20.59
27.75
34.18
39.62
43.89
46.95
48.94
50.12
50.74
50.99
50.96
50.72
50.47
50.43
50.82
51.68
52.84
54.09
55.25
56.26
57.00
57.23
56.51
54.39
50.66
45.41
39.04
32.08
25.06
18.57
13.17
9.24
6.86
5.73
5.26
5.01
4.71
4.21
3.06
0.26
-5.58
-15.52
-29.48
-46.02
-62.80
-77.67
-89.51
-98.34
-104.66
-108.55
-109.28
-105.76
-97.45
-85.05
-70.46
-56.01
-43.43
-33.24
-24.86
-17.05
-8.72
0.69
11.07
21.83
32.18
41.30
48.56
53.55
56.27
57.13
56.90
56.49
56.70
57.90
60.08
62.90
65.92
68.81
71.29
73.18
74.29
74.48
73.80
72.60
71.42
70.69
70.48
70.49
70.25
69.53
68.48
67.50
67.03
67.28
68.14
69.31
70.25
70.15
67.78
61.42
49.27
29.94
3.17
-29.85
-66.49
-103.17
-135.97
-161.25
-176.30
-179.90
-172.89
-158.10
-139.77
-122.30
-108.93
-100.77
-96.78
-94.46
-91.06
-84.58
-74.33
-60.82
-45.38
-29.67
-15.26
-3.53
4.60
8.77
9.30
7.18
3.87
0.96
-0.21
1.19
5.43
12.16
20.62
29.69
38.14
44.84
49.15
51.06
51.18
50.52
50.02
50.21
51.00
51.75
51.48
49.19
44.17
36.20
25.59
13.08
-0.30
-13.45
-25.39
-35.53
-43.64
-49.98
-55.01
-59.32
-63.49
-68.01
-73.28
-79.47
-86.26
-92.74
-97.50
-98.90
-95.64
-87.27
-74.43
-58.59
-41.63
-25.28
-10.75
1.24
10.49
17.25
22.16
26.21
30.39
35.38
41.40
48.16
55.28
62.61
70.37
78.92
88.42
98.53
108.40
116.91
123.10
126.33
126.50
123.87
119.19
113.52
108.03
103.51
100.04
96.72
91.88
83.65
70.57
52.14
29.06
2.99
-23.92
-49.53
-72.06
-90.41
-104.17
-113.53
-119.18
-122.07
-123.29
-123.76
-123.93
-123.66
-122.24
-118.95
-113.50
-106.55
-99.57
-94.35
-92.17
-93.07
-95.73
-98.16
-98.64
-96.24
-90.82
-82.77
-72.67
-61.25
-49.46
-38.24
-28.66
-21.73
-17.78
-16.18
-15.64
-14.90
-13.46
-11.55
-9.22
-6.67
-4.51
-3.57
-4.43
-7.36
-12.12
-17.86
-23.33
-26.12
-24.71
-19.89
-14.18
-10.45
-10.68
-15.39
-23.58
-33.09
-39.46
-38.19
-26.69
-4.28
28.15
68.36
112.93
156.66
187.67
198.80
193.41
179.66
163.24
145.90
127.48
107.87
89.43
71.84
56.58
44.34
33.93
23.25
11.13
-2.23
-15.95
-26.93
-33.19
-32.33
-23.16
-6.52
15.17
38.83
61.09
78.72
89.28
91.38
86.14
75.75
62.15
46.41
28.99
10.10
-9.97
-30.50
-50.63
-68.71
-83.23
-93.25
-98.50
-99.09
-95.30
-87.59
-76.52
-62.98
-47.65
-31.06
-13.38
5.81
27.56
52.96
82.36
114.41
145.83
172.09
188.87
193.58
186.45
170.39
149.72
128.22
107.62
87.15
64.57
37.87
6.83
-26.59
-59.11
-87.82
-111.44
-130.70
-147.31
-162.59
-176.45
-187.46
-193.94
-195.13
-191.75
-185.47
-177.82
-169.22
-158.75
-144.90
-126.74
-104.85
-81.31
-58.93
-40.09
-25.85
-15.84
-8.87
-3.67
0.46
3.61
5.52
5.92
4.87
2.84
0.79
0.03
1.98
7.63
16.95
28.63
40.34
49.52
54.36
54.61
51.47
47.00
43.13
41.01
40.64
41.33
42.08
42.10
41.04
39.03
36.51
34.07
32.11
30.73
29.65
28.37
26.42
23.58
19.99
16.08
12.52
10.03
9.19
10.15
12.32
14.28
14.09
10.04
1.46
-10.74
-24.31
-36.50
-45.10
-49.19
-49.13
-46.02
-40.86
-34.16
-26.03
-16.73
-6.96
2.13
9.43
14.49
17.84
20.79
24.97
31.55
40.76
51.82
63.08
72.62
78.91
81.18
79.60
75.17
69.43
64.04
60.49
59.71
62.01
67.05
73.92
81.37
88.04
92.77
94.79
93.89
90.41
85.15
79.21
73.80
70.07
68.74
69.90
72.71
75.65
77.01
75.58
71.03
63.91
55.17
45.54
35.11
23.49
10.28
-4.38
-19.52
-33.60
-45.25
-53.93
-60.43
-66.50
-74.17
-84.80
-98.47
-113.91
-128.95
-141.27
-149.18
-152.02
-150.17
-144.61
-136.44
-126.52
-115.37
-103.29
-90.51
-77.32
-64.00
-50.80
-37.71
-24.52
-10.96
3.07
17.18
30.39
41.20
48.04
49.69
45.70
36.63
23.78
8.72
-7.20
-23.20
-39.04
-54.69
-69.97
-84.36
-97.16
-107.75
-116.00
-122.36
-127.64
-132.64
-137.77
-142.87
-147.37
-150.66
-152.50
-153.24
-153.67
-154.33
-155.07
-154.68
-151.20
-142.66
-128.01
-107.74
-83.88
-59.15
-35.83
-15.11
2.93
18.68
32.53
44.55
54.84
63.64
71.73
80.22
90.04
101.41
113.67
125.80
136.89
146.59
154.54
160.77
165.80
170.46
175.26
180.02
184.04
186.27
185.88
181.51
172.80
161.21
149.45
139.73
132.62
127.20
121.71
114.88
104.55
89.92
72.58
55.57
41.20
29.91
20.81
12.40
4.06
-7.01
-23.32
-45.52
-72.65
-103.53
-137.27
-172.54
-207.70
-227.35
-221.17
-193.04
-157.87
-128.05
-107.55
-94.54
-85.14
-79.53
-74.51
-71.25
-72.04
-77.59
-86.60
-97.61
-110.21
-121.30
-129.45
-132.82
-132.14
-128.68
-122.91
-114.45
-103.06
-89.20
-73.40
-56.46
-38.24
-19.68
-1.29
17.56
38.27
61.54
86.65
111.90
134.98
154.64
169.94
180.90
188.39
193.51
196.93
198.77
199.04
197.66
194.89
190.72
185.20
178.72
172.29
167.29
165.09
166.47
171.05
177.37
183.28
186.51
185.35
178.97
167.35
151.05
131.00
108.16
83.50
57.87
31.74
5.24
-21.82
-49.58
-77.80
-105.78
-132.47
-156.94
-178.76
-198.32
-216.65
-234.95
-253.94
-273.45
-292.24
-308.38
-319.80
-324.96
-323.18
-314.83
-301.12
-283.81
-264.66
-245.03
-225.60
-206.32
-186.56
-165.51
-142.60
-117.81
-91.88
-66.15
-42.15
-21.16
-3.72
10.57
22.84
34.63
47.30
61.59
77.50
94.29
110.97
126.63
140.79
153.30
164.21
173.49
181.00
186.57
190.21
192.20
193.10
193.38
193.26
192.52
190.65
187.11
181.73
174.81
167.07
159.34
152.29
146.22
140.93
135.78
129.81
121.97
111.42
97.81
81.51
63.70
46.14
30.80
19.21
11.96
8.42
6.91
5.38
2.18
-3.31
-10.39
-17.39
-22.35
-23.88
-21.72
-16.78
-10.78
-5.64
-2.79
-2.93
-5.97
-11.28
-17.97
-25.14
-31.98
-37.77
-41.94
-44.07
-44.07
-42.16
-38.85
-34.81
-30.57
-26.35
-21.91
-16.70
-9.99
-1.15
10.05
23.18
36.98
49.48
58.32
61.45
57.84
48.05
34.15
19.30
6.77
-1.13
-3.67
-1.83
2.25
6.11
7.82
6.42
1.88
-5.23
-14.21
-24.46
-35.72
-47.95
-61.09
-74.72
-87.82
-98.66
-105.05
-104.94
-97.24
-82.51
-63.05
-42.42
-24.37
-11.68
-5.39
-4.76
-7.84
-12.45
-16.99
-20.76
-23.93
-27.02
-30.37
-33.77
-36.24
-36.34
-32.61
-24.17
-11.09
5.46
23.36
40.00
52.78
59.61
59.40
52.23
39.45
23.27
6.20
-9.46
-22.15
-31.13
-36.29
-37.94
-36.58
-32.93
-27.97
-23.00
-19.30
-17.78
-18.65
-21.37
-24.99
-28.65
-31.94
-35.01
-38.33
-42.35
-47.22
-52.73
-58.52
-64.35
-70.32
-76.85
-84.47
-93.40
-103.23
-112.84
-120.62
-124.92
-124.54
-119.16
-109.33
-96.32
-81.73
-66.99
-53.14
-40.59
-29.32
-19.05
-9.50
-0.52
7.85
15.47
22.31
28.45
34.11
39.53
44.89
50.15
55.14
59.58
63.26
66.15
68.38
70.19
71.77
73.13
74.09
74.40
73.88
72.56
70.55
67.96
64.79
60.88
56.08
50.29
43.59
36.12
28.06
19.65
11.19
3.25
-3.42
-8.23
-11.17
-12.89
-14.49
-17.00
-20.93
-26.26
-32.57
-39.26
-45.73
-51.22
-54.54
-53.86
-47.00
-32.10
-8.58
22.40
57.87
93.37
123.73
144.48
153.25
150.37
138.75
122.34
105.72
93.32
88.39
92.37
104.52
122.32
141.32
156.47
162.18
155.77
138.66
114.97
89.14
63.86
40.06
16.90
-6.16
-30.45
-55.06
-77.12
-94.51
-107.75
-119.69
-132.92
-148.82
-165.88
-183.21
-198.26
-207.66
-209.73
-205.66
-198.89
-192.48
-189.30
-173.21
-138.46
-92.83
-49.86
-17.58
3.93
13.73
18.16
20.67
22.56
20.79
12.59
1.10
-11.10
-21.93
-30.07
-33.96
-33.47
-28.89
-22.89
-17.29
-12.13
-7.05
-2.19
1.84
4.90
6.25
5.53
1.88
-4.34
-11.36
-17.45
-21.62
-23.29
-21.97
-18.15
-13.03
-8.40
-5.59
-4.92
-5.93
-7.47
-7.22
-2.48
8.53
23.87
38.24
46.60
47.74
46.57
46.03
47.73
52.22
59.24
65.27
68.80
69.69
68.64
66.41
63.02
58.56
53.03
46.26
38.01
28.74
19.21
10.14
1.83
-6.29
-14.90
-24.80
-36.79
-51.37
-67.88
-84.70
-99.70
-111.03
-117.90
-120.42
-119.58
-116.83
-113.63
-110.60
-107.66
-104.38
-100.40
-95.79
-90.79
-85.63
-80.35
-74.97
-69.47
-64.09
-59.28
-55.27
-51.54
-46.41
-37.25
-21.43
2.56
34.25
71.07
109.11
144.50
174.57
198.43
216.69
230.56
240.92
247.82
250.62
248.68
242.00
231.36
217.92
202.61
185.61
166.25
143.53
116.70
85.88
52.06
16.91
-17.71
-50.22
-79.41
-104.40
-124.56
-139.50
-149.21
-154.34
-156.21
-156.58
-157.19
-159.13
-162.49
-166.24
-168.63
-167.81
-162.65
-153.07
-140.05
-125.04
-109.36
-93.76
-78.22
-62.37
-45.79
-28.49
-10.84
6.67
23.70
40.36
57.02
73.95
91.00
107.40
122.05
133.96
142.68
148.42
152.02
154.42
156.40
158.27
159.91
160.89
160.72
158.95
155.21
149.23
140.84
130.04
116.91
101.60
84.35
65.63
46.28
27.52
10.73
-3.02
-13.51
-21.56
-28.61
-36.15
-44.89
-54.49
-63.75
-71.38
-76.72
-80.09
-82.57
-85.40
-89.38
-94.55
-100.25
-105.40
-108.88
-109.68
-106.99
-100.31
-89.39
-74.49
-56.33
-36.09
-15.25
4.78
22.89
38.47
51.34
61.56
69.17
74.17
76.64
76.95
75.94
74.77
74.37
74.94
75.78
75.48
72.66
66.62
57.72
47.18
36.50
26.74
18.09
10.03
1.81
-7.04
-16.20
-24.81
-31.80
-36.47
-38.82
-39.52
-39.53
-39.60
-40.04
-40.61
-40.96
-40.83
-40.36
-39.95
-40.03
-40.87
-42.45
-44.50
-46.65
-48.60
-50.19
-51.51
-52.86
-54.68
-57.44
-61.38
-66.23
-71.09
-74.54
-75.05
-71.50
-63.69
-52.42
-39.25
-25.92
-13.68
-3.03
6.33
15.10
24.02
33.40
43.04
52.34
60.65
67.54
72.91
77.01
80.24
82.98
85.39
87.54
89.39
90.97
92.41
93.91
95.66
97.78
100.18
102.56
104.39
104.98
103.72
100.21
94.23
85.74
74.82
61.80
47.54
33.42
20.93
11.09
3.75
-2.51
-9.79
-19.88
-33.28
-49.06
-65.35
-80.35
-93.02
-103.24
-111.33
-117.53
-121.73
-123.72
-123.66
-122.30
-120.92
-120.76
-122.50
-125.77
-129.27
-131.19
-129.96
-124.81
-116.03
-104.63
-91.74
-78.10
-63.76
-48.42
-31.86
-14.37
3.16
19.47
33.34
43.89
50.82
54.31
54.94
53.52
50.92
47.88
44.87
42.07
39.53
37.29
35.56
34.63
34.72
35.75
37.37
39.19
40.95
42.58
44.06
45.32
46.14
46.37
46.06
45.49
45.07
44.98
45.04
44.82
43.87
42.03
39.51
36.62
33.51
30.00
25.73
20.37
13.97
7.00
0.05
-6.35
-12.02
-17.05
-21.78
-26.56
-31.75
-37.65
-44.48
-52.12
-59.95
-66.79
-71.09
-71.50
-67.39
-59.15
-48.12
-36.13
-24.84
-15.22
-7.44
-1.07
4.50
9.69
14.68
19.37
23.66
27.43
30.66
33.24
35.06
35.97
35.92
35.07
33.73
32.29
31.08
30.25
29.81
29.68
29.68
29.59
29.16
28.21
26.65
24.57
22.18
19.68
17.17
14.63
11.98
9.22
6.41
3.67
1.05
-1.59
-4.52
-7.96
-11.96
-16.36
-20.77
-24.88
-28.43
-31.36
-33.74
-35.75
-37.51
-39.25
-41.18
-43.60
-46.77
-50.78
-55.34
-59.75
-62.86
-63.42
-60.48
-53.77
-43.86
-32.02
-19.78
-8.43
1.36
9.63
16.86
23.61
30.17
36.42
42.00
46.46
49.61
51.46
52.34
52.63
52.61
52.36
51.82
50.86
49.50
47.97
46.58
45.64
45.23
45.16
45.06
44.51
43.25
41.20
38.53
35.43
32.16
28.90
25.77
22.86
20.09
17.26
14.09
10.36
6.07
1.50
-2.93
-6.87
-10.16
-13.00
-15.74
-18.73
-22.15
-25.95
-29.94
-33.96
-37.90
-41.70
-45.33
-48.80
-52.23
-55.94
-60.33
-65.64
-71.65
-77.48
-81.79
-83.14
-80.55
-73.90
-64.03
-52.38
-40.44
-29.36
-19.69
-11.50
-4.57
1.31
6.28
10.42
13.80
16.55
18.83
20.84
22.69
24.45
26.03
27.27
28.03
28.21
27.91
27.33
26.79
26.54
26.71
27.17
27.59
27.59
26.89
25.39
23.12
20.21
16.84
13.19
9.43
5.76
2.36
-0.68
-3.40
-5.97
-8.71
-11.86
-15.59
-19.85
-24.49
-29.30
-34.11
-38.86
-43.59
-48.40
-53.46
-58.99
-65.15
-71.86
-78.68
-84.75
-88.98
-90.30
-88.11
-82.39
-73.76
-63.20
-51.74
-40.26
-29.37
-19.40
-10.43
-2.31
5.27
12.62
19.86
26.84
33.13
38.23
41.90
44.20
45.53
46.36
47.00
47.48
47.69
47.57
47.25
46.95
46.82
46.76
46.39
45.24
43.06
39.99
36.58
33.47
31.05
29.24
27.54
25.36
22.28
18.31
13.81
9.26
5.01
1.16
-2.50
-6.25
-10.33
-14.83
-19.64
-24.57
-29.48
-34.29
-39.01
-43.78
-48.83
-54.45
-60.97
-68.56
-77.11
-86.04
-94.24
-100.26
-102.69
-100.60
-93.88
-83.33
-70.38
-56.70
-43.68
-32.08
-21.92
-12.71
-3.82
5.15
14.23
23.14
31.49
39.08
45.79
51.60
56.38
59.94
62.16
63.15
63.39
63.53
64.12
65.29
66.68
67.72
67.89
66.97
65.12
62.62
59.75
56.69
53.45
50.07
46.56
42.97
39.21
35.13
30.49
25.15
19.16
12.79
6.37
0.13
-5.93
-11.97
-18.22
-24.78
-31.47
-37.98
-43.99
-49.39
-54.39
-59.46
-65.08
-71.57
-78.92
-86.62
-93.79
-99.25
-101.79
-100.42
-94.76
-85.14
-72.58
-58.50
-44.22
-30.63
-18.09
-6.58
4.05
13.79
22.50
30.08
36.58
42.27
47.44
52.17
56.24
59.22
60.85
61.18
60.67
59.91
59.33
59.00
58.75
58.37
57.79
57.12
56.43
55.55
54.15
51.79
48.31
43.92
39.17
34.61
30.51
26.82
23.16
19.15
14.57
9.34
3.60
-2.48
-8.67
-14.82
-20.78
-26.57
-32.27
-38.14
-44.47
-51.52
-59.50
-68.36
-77.80
-87.10
-95.15
-100.55
-102.02
-98.75
-90.76
-78.94
-64.73
-49.66
-34.94
-21.22
-8.62
2.98
13.78
23.82
33.00
41.17
48.19
54.02
58.68
62.26
64.90
66.69
67.77
68.28
68.38
68.18
67.77
67.15
66.26
65.08
63.62
62.00
60.31
58.61
56.85
54.93
52.75
50.24
47.30
43.81
39.68
34.87
29.58
24.19
19.14
14.69
10.78
6.99
2.81
-2.00
-7.43
-13.09
-18.59
-23.71
-28.55
-33.39
-38.53
-44.20
-50.54
-57.67
-65.71
-74.58
-83.82
-92.37
-98.72
-101.35
-99.21
-92.15
-80.96
-67.11
-52.23
-37.65
-24.16
-12.07
-1.34
8.21
16.80
24.59
31.75
38.32
44.22
49.28
53.27
56.03
57.53
57.88
57.37
56.35
55.18
54.16
53.49
53.20
53.19
53.24
53.05
52.34
50.97
48.93
46.30
43.24
39.83
36.08
31.91
27.23
22.16
16.97
12.11
7.98
4.72
2.08
-0.46
-3.54
-7.60
-12.73
-18.65
-24.82
-30.63
-35.60
-39.46
-42.32
-44.59
-47.01
-50.35
-55.16
-61.41
-68.37
-74.71
-78.81
-79.26
-75.31
-67.10
-55.57
-42.10
-28.09
-14.59
-2.18
8.99
18.99
27.92
35.84
42.74
48.56
53.29
56.98
59.63
61.24
61.74
61.03
59.15
56.32
53.05
50.00
47.82
46.80
46.74
46.90
46.37
44.41
40.64
35.15
28.27
20.48
12.18
3.94
-3.55
-9.52
-13.29
-14.69
-14.15
-12.61
-11.17
-10.64
-11.34
-13.22
-16.05
-19.65
-24.01
-29.14
-34.97
-41.35
-48.12
-55.24
-62.89
-71.33
-80.64
-90.52
-100.17
-108.45
-114.15
-116.34
-114.61
-109.08
-100.30
-89.02
-76.10
-62.30
-48.20
-34.25
-20.67
-7.62
4.82
16.55
27.33
36.87
44.84
50.99
55.22
57.65
58.65
58.71
58.34
57.91
57.61
57.46
57.31
56.99
56.42
55.62
54.71
53.79
52.98
52.35
51.86
51.33
50.51
49.11
46.84
43.66
39.69
35.35
31.17
27.62
24.92
22.90
21.05
18.69
15.25
10.44
4.46
-2.21
-8.94
-15.23
-20.90
-26.04
-30.97
-36.06
-41.63
-47.94
-55.08
-62.90
-70.84
-77.91
-82.93
-84.81
-82.97
-77.59
-69.45
-59.72
-49.50
-39.57
-30.33
-21.88
-14.18
-7.14
-0.67
5.31
10.78
15.67
19.75
22.78
24.67
25.50
25.67
25.69
26.03
26.96
28.47
30.28
32.06
33.50
34.46
34.91
34.86
34.32
33.29
31.75
29.74
27.31
24.52
21.34
17.67
13.43
8.62
3.45
-1.72
-6.54
-10.77
-14.45
-17.82
-21.13
-24.56
-28.12
-31.78
-35.55
-39.55
-43.93
-48.81
-54.15
-59.63
-64.72
-68.71
-70.85
-70.53
-67.39
-61.45
-53.17
-43.33
-32.75
-22.14
-11.82
-1.90
7.64
16.72
25.08
32.30
38.01
42.02
44.43
45.59
46.02
46.16
46.31
46.48
46.50
46.19
45.48
44.55
43.66
43.09
42.90
42.92
42.81
42.26
41.16
39.56
37.70
35.77
33.91
32.03
29.94
27.37
24.11
20.15
15.68
11.14
6.94
3.33
0.23
-2.73
-6.05
-10.12
-14.96
-20.35
-25.86
-31.10
-35.89
-40.23
-44.36
-48.58
-53.24
-58.60
-64.69
-71.24
-77.63
-82.94
-86.10
-86.22
-82.73
-75.62
-65.37
-52.92
-39.43
-26.05
-13.73
-3.00
6.07
13.74
20.46
26.61
32.30
37.42
41.67
44.79
46.69
47.48
47.48
47.05
46.48
46.00
45.66
45.50
45.48
45.56
45.66
45.62
45.25
44.27
42.53
40.05
37.08
34.04
31.35
29.28
27.85
26.90
26.13
25.26
24.16
22.80
21.29
19.75
18.23
16.67
14.96
12.97
10.71
8.26
5.68
2.89
-0.45
-4.88
-10.82
-18.25
-26.49
-34.30
-40.26
-43.26
-42.88
-39.42
-33.71
-26.75
-19.51
-12.80
-7.24
-3.23
-0.95
-0.24
-0.71
-1.88
-3.39
-5.05
-6.88
-8.94
-11.19
-13.51
-15.73
-17.76
-19.56
-21.18
-22.65
-24.00
-25.20
-26.20
-26.98
-27.44
-27.49
-27.04
-26.09
-24.72
-23.13
-21.56
-20.20
-19.22
-18.67
-18.51
-18.68
-19.05
-19.55
-20.15
-20.89
-21.90
-23.34
-25.37
-28.09
-31.44
-35.23
-39.12
-42.80
-46.03
-48.82
-51.50
-54.58
-58.53
-63.46
-69.01
-74.36
-78.36
-79.88
-78.02
-72.32
-62.88
-50.34
-35.81
-20.66
-6.13
6.89
18.07
27.63
36.11
44.01
51.61
58.80
65.21
70.41
74.06
75.99
76.22
74.97
72.57
69.50
66.24
63.17
60.36
57.52
54.05
49.33
42.93
34.83
25.39
15.18
4.72
-5.56
-15.42
-24.63
-32.93
-40.05
-45.77
-50.07
-53.06
-54.89
-55.63
-55.29
-53.81
-51.23
-47.71
-43.48
-38.74
-33.52
-27.76
-21.36
-14.47
-7.59
-1.61
2.34
3.36
1.19
-3.45
-8.88
-12.94
-13.72
-10.21
-2.72
7.36
18.19
28.15
36.40
42.88
47.93
51.97
55.14
57.42
58.83
59.68
60.47
61.70
63.51
65.58
67.24
67.76
66.78
64.43
61.33
58.28
55.89
54.43
53.72
53.32
52.76
51.75
50.29
48.63
47.07
45.85
44.95
44.06
42.72
40.49
36.98
31.94
25.16
16.58
6.38
-4.85
-16.14
-26.41
-34.91
-41.62
-47.34
-53.28
-60.56
-69.70
-80.52
-92.44
-104.81
-117.10
-128.72
-138.86
-146.28
-149.57
-147.71
-140.52
-128.85
-114.33
-98.81
-83.78
-70.04
-57.66
-46.24
-35.20
-24.07
-12.67
-1.06
10.45
21.52
31.79
41.01
49.02
55.83
61.64
66.86
72.04
77.58
83.64
89.96
96.02
101.21
105.16
107.76
109.17
109.56
108.98
107.28
104.24
99.69
93.63
86.29
78.01
69.15
60.05
50.99
42.22
33.92
26.27
19.30
12.93
7.01
1.32
-4.22
-9.63
-14.78
-19.61
-24.16
-28.69
-33.60
-39.30
-45.99
-53.55
-61.46
-68.85
-74.61
-77.65
-77.19
-72.98
-65.32
-55.01
-43.07
-30.52
-18.22
-6.77
3.39
12.01
18.93
24.15
27.87
30.40
32.08
33.15
33.69
33.66
33.03
31.95
30.77
29.89
29.57
29.80
30.27
30.54
30.27
29.37
27.94
26.17
24.18
22.01
19.71
17.46
15.51
14.08
13.11
12.31
11.19
9.40
6.84
3.81
0.74
-1.94
-4.04
-5.67
-7.17
-9.00
-11.55
-15.07
-19.64
-25.21
-31.73
-39.22
-47.81
-57.66
-68.86
-81.25
-94.34
-107.28
-118.95
-128.17
-133.98
-135.85
-133.75
-128.23
-120.18
-110.73
-100.91
-91.37
-82.24
-73.25
-63.94
-53.99
-43.49
-32.86
-22.55
-12.65
-2.75
7.95
20.28
34.90
52.09
71.92
94.33
119.13
145.83
173.38
200.21
224.46
244.41
258.92
267.55
270.60
268.89
263.60
255.93
246.98
237.42
227.32
216.20
203.31
187.99
170.02
149.66
127.46
104.04
79.91
55.49
31.23
7.78
-14.17
-34.11
-51.96
-68.22
-83.74
-99.45
-115.82
-132.61
-148.74
-162.55
-172.19
-176.14
-173.67
-165.03
-151.35
-134.35
-115.80
-97.09
-79.08
-62.08
-46.16
-31.37
-17.81
-5.57
5.26
14.61
22.31
28.00
31.23
31.72
29.53
25.28
19.94
14.56
9.95
6.46
3.96
2.06
0.27
-1.87
-4.68
-8.36
-12.93
-18.21
-23.88
-29.63
-35.28
-40.86
-46.56
-52.49
-58.58
-64.54
-70.32
-75.82
-80.82
-85.10
-88.66
-91.64
-94.15
-96.24
-97.97
-99.70
-101.72
-104.03
-106.63
-109.81
-114.13
-120.10
-127.73
-136.16
-144.43
-150.66
-152.40
-147.71
-136.16
-118.94
-98.17
-76.14
-54.79
-37.50
-25.92
-19.05
-14.61
-11.01
-7.65
-4.57
-1.95
0.13
-2.64
-12.11
-25.73
-38.93
-48.90
-55.15
-58.34
-59.16
-57.96
-61.89
-74.48
-92.65
-110.18
-123.62
-132.93
-139.71
-145.54
-151.56
-167.71
-198.95
-241.06
-284.98
-324.63
-358.40
-387.38
-413.33
-380.47
-271.95
-121.83
19.19
126.26
199.46
247.05
275.98
290.72
294.43
281.11
250.03
209.20
171.13
142.64
126.05
119.94
121.99
130.12
135.37
132.73
123.57
114.52
109.82
109.59
111.57
113.93
116.66
113.73
103.33
87.73
74.33
68.05
68.91
73.22
77.10
78.45
74.68
66.23
55.47
50.62
58.33
80.51
114.43
156.09
202.19
249.54
296.63
319.04
302.18
251.04
186.02
125.05
75.64
37.81
8.29
-11.22
-27.32
-39.97
-47.84
-51.36
-53.03
-55.00
-57.59
-64.00
-74.19
-88.82
-104.52
-118.03
-128.50
-137.60
-147.76
-161.02
-178.96
-201.80
-229.27
-256.53
-277.32
-286.97
-284.09
-270.29
-249.13
-225.08
-201.63
-181.40
-163.82
-146.61
-128.43
-109.65
-91.35
-74.00
-57.25
-40.06
-22.24
-4.12
14.80
33.32
48.92
59.82
66.71
72.28
79.70
90.81
105.83
127.64
156.40
188.87
220.72
249.29
273.82
294.27
310.55
322.59
336.91
356.70
379.11
398.31
410.18
413.97
411.24
404.73
397.38
399.63
415.66
440.08
462.92
476.75
479.17
471.14
454.93
381.56
240.76
66.27
-94.12
-215.18
-296.29
-346.98
-377.43
-395.56
-406.51
-404.87
-388.32
-362.52
-334.93
-310.57
-290.75
-274.82
-261.89
-251.23
-235.93
-212.71
-184.37
-156.40
-132.34
-113.48
-98.99
-87.28
-76.54
-61.10
-37.88
-8.12
24.78
58.06
90.35
120.60
146.96
166.62
178.38
180.64
171.61
150.97
120.87
85.39
49.06
15.19
-14.83
-40.87
-64.39
-87.62
-112.16
-137.93
-163.28
-185.81
-203.45
-214.98
-220.04
-218.84
-212.11
-201.16
-188.07
-175.34
-164.95
-157.49
-151.79
-145.44
-136.00
-122.08
-103.89
-82.74
-60.33
-38.09
-16.91
2.95
21.82
40.35
59.29
78.82
98.23
115.85
129.74
138.62
142.43
142.26
139.51
135.11
129.27
121.93
113.44
104.85
97.54
92.48
89.73
88.26
86.58
83.49
78.63
72.51
66.07
60.15
54.93
49.92
44.23
36.98
27.71
16.62
4.44
-7.90
-19.58
-30.15
-39.55
-47.93
-55.56
-62.66
-69.50
-76.23
-82.75
-88.58
-92.79
-94.22
-91.74
-84.69
-73.13
-57.89
-40.48
-22.60
-5.78
9.00
21.41
31.70
40.44
48.11
54.95
60.82
65.33
68.05
68.76
67.62
65.12
61.93
58.75
56.11
54.34
53.57
53.66
54.35
55.19
55.67
55.26
53.66
50.82
47.06
42.95
39.16
36.19
34.15
32.65
30.89
27.97
23.36
17.09
9.90
2.78
-3.44
-8.56
-13.06
-17.94
-24.24
-32.57
-42.81
-54.10
-65.05
-74.06
-79.76
-81.34
-78.77
-72.74
-64.37
-54.80
-44.85
-34.88
-25.00
-15.35
-6.25
1.79
8.35
13.25
16.69
19.04
20.66
21.56
21.54
20.38
18.11
15.12
11.94
9.05
6.61
4.52
2.57
0.68
-1.05
-2.39
-3.18
-3.44
-3.37
-3.25
-3.28
-3.53
-3.94
-4.51
-5.35
-6.69
-8.81
-11.88
-15.86
-20.56
-25.64
-30.74
-35.60
-40.04
-43.87
-46.89
-48.80
-49.20
-47.62
-43.52
-36.41
-26.05
-12.71
2.73
18.74
33.49
45.27
52.92
56.03
54.95
50.61
44.22
36.98
29.85
23.43
17.77
12.53
7.09
0.91
-6.28
-14.29
-22.55
-30.34
-37.05
-42.45
-46.66
-50.00
-52.66
-54.55
-55.28
-54.55
-52.45
-49.60
-46.81
-44.49
-42.36
-39.46
-34.89
-28.48
-21.14
-14.52
-10.22
-9.00
-10.65
-14.44
-19.79
-26.60
-35.08
-45.10
-55.64
-64.76
-70.27
-70.62
-65.65
-56.65
-45.84
-35.54
-27.47
-22.35
-20.00
-19.79
-21.08
-23.45
-26.63
-30.32
-33.97
-36.76
-37.83
-36.31
-31.37
-22.00
-7.20
13.51
39.43
68.26
96.55
120.74
138.60
149.94
156.32
159.98
162.45
164.02
163.96
161.56
156.87
151.07
145.98
143.21
143.44
146.15
149.87
152.81
153.47
151.13
146.01
138.91
130.55
121.22
110.72
98.91
86.32
74.44
65.26
60.32
59.76
61.94
63.97
62.73
56.10
43.67
26.81
8.11
-9.51
-23.74
-33.49
-38.94
-41.26
-41.96
-42.27
-42.81
-43.61
-44.34
-44.64
-44.19
-42.70
-39.95
-35.91
-30.95
-25.96
-22.13
-20.50
-21.47
-24.78
-29.78
-36.01
-43.63
-53.34
-65.86
-81.33
-98.96
-117.19
-134.31
-148.96
-160.50
-168.91
-174.48
-177.54
-178.39
-177.46
-175.38
-172.93
-170.75
-168.94
-166.92
-163.56
-157.58
-148.17
-135.16
-119.15
-101.30
-83.04
-65.78
-50.85
-39.31
-31.79
-28.24
-27.75
-28.65
-29.05
-27.49
-23.47
-17.50
-10.86
-5.00
-1.06
0.43
-0.26
-2.22
-3.93
-3.74
-0.41
6.40
15.85
26.31
36.22
44.92
53.04
62.08
73.39
87.23
102.49
117.19
129.41
138.19
143.60
146.45
147.52
147.09
144.80
140.04
132.32
121.46
107.73
91.66
74.09
56.15
39.22
24.74
13.83
6.93
3.64
2.93
3.59
4.70
5.78
6.78
7.83
9.02
10.37
11.90
13.63
15.59
17.67
19.53
20.76
20.97
19.96
17.76
14.41
9.91
4.24
-2.50
-9.83
-16.89
-22.60
-26.19
-27.45
-26.99
-25.94
-25.51
-26.58
-29.41
-33.77
-39.16
-45.06
-51.11
-57.13
-63.01
-68.69
-74.05
-79.00
-83.47
-87.46
-91.08
-94.52
-98.06
-102.03
-106.85
-112.83
-120.05
-127.95
-135.27
-140.13
-140.49
-134.79
-122.63
-104.95
-83.73
-61.46
-40.28
-21.59
-5.96
6.72
16.86
24.89
31.23
36.18
39.93
42.63
44.33
45.11
45.10
44.50
43.54
42.37
41.04
39.49
37.68
35.63
33.46
31.25
28.92
26.23
22.88
18.71
13.76
8.35
2.79
-2.73
-8.36
-14.51
-21.65
-30.06
-39.60
-49.75
-59.77
-69.03
-77.28
-84.77
-92.12
-100.02
-108.97
-119.15
-130.51
-142.94
-156.35
-170.44
-184.44
-196.87
-205.58
-208.22
-203.00
-189.29
-167.93
-140.98
-110.99
-80.37
-50.81
-23.20
2.08
24.87
44.98
62.10
75.93
86.37
93.55
97.84
99.81
100.05
99.15
97.64
95.87
94.08
92.32
90.55
88.66
86.52
83.89
80.41
75.65
69.32
61.54
52.97
44.73
37.98
33.50
31.36
30.88
31.00
30.60
28.90
25.56
20.59
14.30
7.18
-0.15
-7.02
-12.90
-17.65
-21.63
-25.71
-30.94
-38.15
-47.36
-57.56
-66.61
-71.77
-70.46
-61.19
-44.16
-21.36
4.09
29.02
51.03
69.03
82.93
93.10
99.88
103.41
103.75
101.20
96.48
90.53
84.17
77.78
71.22
64.09
56.15
47.56
38.98
31.45
25.92
22.83
21.75
21.51
20.86
18.83
15.06
9.73
3.50
-2.90
-9.00
-14.70
-20.08
-24.66
-27.65
-28.46
-27.07
-23.91
-19.67
-15.07
-10.56
-6.25
-1.24
5.44
13.81
22.72
30.59
36.06
38.57
38.26
35.81
32.95
31.33
31.67
33.80
37.68
43.79
52.83
65.08
74.33
74.11
62.27
42.24
18.95
-3.87
-24.05
-40.39
-52.35
-60.14
-63.57
-62.26
-57.21
-50.55
-44.68
-41.73
-42.90
-47.92
-54.88
-59.96
-59.01
-49.32
-32.68
-12.60
5.93
18.23
21.55
15.99
4.26
-10.14
-25.05
-40.29
-56.57
-74.43
-93.11
-110.58
-124.36
-132.41
-134.09
-130.39
-123.29
-114.66
-105.82
-97.44
-89.72
-82.77
-76.70
-71.73
-68.03
-65.41
-62.90
-58.78
-50.86
-37.10
-16.31
11.33
44.24
79.95
115.77
149.44
179.38
204.68
224.96
240.14
250.30
255.64
256.47
253.21
246.43
236.74
224.83
211.40
197.15
182.63
168.20
154.03
140.22
126.87
114.22
102.57
92.20
83.11
74.97
67.18
59.01
49.95
39.92
29.29
18.76
9.06
0.65
-6.39
-12.44
-18.15
-24.19
-31.05
-38.85
-47.33
-55.94
-64.10
-71.31
-77.43
-82.69
-87.71
-93.31
-100.32
-109.25
-119.97
-131.53
-142.17
-149.61
-151.55
-146.27
-133.18
-112.97
-87.56
-59.62
-31.92
-6.74
14.59
31.69
44.97
55.15
63.01
69.16
73.98
77.68
80.35
81.98
82.50
81.84
80.01
77.27
74.03
70.75
67.80
65.26
63.06
61.02
59.00
56.89
54.63
52.04
48.87
44.84
39.82
33.83
27.07
19.86
12.54
5.45
-1.15
-7.13
-12.52
-17.53
-22.50
-27.75
-33.44
-39.51
-45.69
-51.65
-57.18
-62.30
-67.34
-72.87
-79.53
-87.63
-96.94
-106.32
-113.99
-117.80
-115.99
-107.79
-93.68
-75.26
-54.70
-34.11
-15.01
1.76
15.96
27.75
37.41
45.27
51.63
56.69
60.59
63.31
64.78
64.87
63.60
61.16
58.02
54.77
52.04
50.28
49.62
49.80
50.31
50.58
50.18
48.98
47.07
44.66
41.87
38.68
34.98
30.65
25.70
20.28
14.63
9.01
3.60
-1.53
-6.37
-11.06
-15.75
-20.67
-25.98
-31.74
-37.82
-43.92
-49.73
-55.04
-59.90
-64.72
-70.08
-76.50
-84.08
-92.30
-99.93
-105.34
-106.87
-103.41
-94.76
-81.69
-65.69
-48.58
-32.00
-17.06
-4.31
6.22
14.80
21.75
27.30
31.58
34.63
36.53
37.40
37.38
36.63
35.33
33.73
32.16
31.05
30.71
31.26
32.55
34.17
35.64
36.51
36.49
35.44
33.36
30.39
26.79
22.94
19.19
15.79
12.71
9.73
6.55
2.98
-0.96
-5.11
-9.19
-12.96
-16.28
-19.12
-21.58
-23.92
-26.54
-29.83
-34.14
-39.55
-45.92
-52.81
-59.63
-65.69
-70.29
-72.76
-72.50
-69.08
-62.36
-52.60
-40.48
-27.00
-13.34
-0.49
10.83
20.36
28.24
34.79
40.26
44.69
47.94
49.80
50.27
49.57
48.13
46.37
44.58
42.90
41.35
40.07
39.24
39.05
39.54
40.49
41.46
41.95
41.50
39.85
36.92
32.88
28.01
22.71
17.39
12.39
7.85
3.70
-0.39
-4.78
-9.83
-15.60
-21.84
-28.04
-33.66
-38.33
-42.06
-45.27
-48.66
-52.93
-58.58
-65.64
-73.68
-81.68
-88.27
-91.89
-91.19
-85.40
-74.66
-60.04
-43.35
-26.64
-11.70
0.39
9.37
15.67
20.20
23.92
27.51
31.22
34.83
37.85
39.80
40.53
40.20
39.28
38.22
37.26
36.48
35.79
35.10
34.45
33.86
33.32
32.70
31.74
30.23
28.04
25.20
21.83
18.16
14.35
10.60
7.04
3.76
0.75
-2.17
-5.26
-8.81
-13.07
-18.17
-24.11
-30.66
-37.45
-44.02
-49.94
-54.97
-59.25
-63.23
-67.64
-73.04
-79.57
-86.67
-93.15
-97.38
-97.83
-93.57
-84.52
-71.47
-55.79
-38.99
-22.40
-6.95
6.74
18.33
27.64
34.75
40.05
44.13
47.58
50.77
53.64
55.87
57.11
57.29
56.73
55.85
55.03
54.39
53.84
53.33
52.90
52.78
53.16
54.01
55.02
55.68
55.45
54.03
51.39
47.77
43.57
39.25
35.24
31.74
28.65
25.57
21.85
16.85
10.20
1.85
-7.94
-18.77
-30.30
-42.50
-55.66
-70.42
-87.61
-107.89
-131.34
-157.13
-183.35
-207.28
-226.02
-237.11
-239.21
-232.30
-217.60
-197.15
-173.39
-148.58
-124.34
-101.37
-79.44
-57.77
-35.68
-13.04
9.52
31.01
50.60
68.10
83.84
98.32
111.65
123.35
132.67
139.10
142.85
144.99
146.96
149.94
154.47
160.48
167.68
175.84
184.86
194.31
203.20
209.92
212.74
210.53
203.24
191.95
178.31
163.75
149.10
134.50
119.89
105.43
91.63
79.03
67.74
57.25
46.56
34.67
21.10
5.95
-10.13
-26.42
-42.33
-57.44
-71.14
-82.36
-89.44
-90.47
-83.98
-69.69
-49.03
-24.95
-1.31
18.17
30.88
35.83
33.66
26.05
15.10
2.82
-9.08
-19.18
-26.23
-29.34
-28.16
-23.11
-15.29
-6.17
2.88
11.10
18.55
25.84
33.64
42.07
50.59
58.14
63.80
67.32
69.27
70.66
72.43
74.86
77.67
80.44
83.15
86.33
90.75
96.72
103.64
110.19
114.92
117.02
116.62
114.58
111.90
109.15
106.28
102.61
97.18
89.09
77.62
62.39
43.34
20.70
-5.12
-33.52
-63.65
-94.24
-123.59
-149.72
-170.87
-186.17
-196.00
-201.94
-206.08
-210.13
-214.76
-219.50
-223.06
-224.06
-221.52
-215.13
-205.12
-192.07
-176.69
-159.66
-141.62
-123.13
-104.78
-87.22
-71.18
-57.28
-45.96
-37.26
-30.80
-26.07
-22.69
-20.67
-20.32
-22.05
-26.04
-32.06
-39.59
-47.87
-56.04
-63.22
-68.73
-72.18
-73.79
-74.36
-75.15
-77.36
-81.64
-87.65
-94.11
-99.27
-101.68
-100.80
-97.34
-92.95
-89.51
-88.45
-90.19
-94.11
-98.92
-103.25
-106.02
-106.64
-104.83
-100.47
-93.52
-84.08
-72.52
-59.67
-46.63
-34.59
-24.54
-17.01
-11.96
-8.81
-6.74
-5.00
-3.20
-1.34
0.49
2.23
4.14
6.58
9.92
14.35
19.96
26.95
35.73
46.77
60.33
76.12
93.18
110.08
125.45
138.65
150.03
160.83
172.44
185.59
199.82
213.50
224.50
231.13
232.99
231.14
227.50
223.78
220.48
216.54
209.83
198.14
180.26
156.53
128.83
99.92
72.70
49.48
31.53
19.04
11.15
6.23
2.18
-3.11
-11.35
-23.36
-38.81
-56.33
-73.84
-89.23
-100.86
-107.95
-110.51
-109.17
-104.75
-98.10
-89.91
-80.75
-70.91
-60.41
-48.99
-36.17
-21.64
-5.56
11.26
27.46
41.46
52.00
58.48
60.98
59.99
56.07
49.60
40.77
29.73
16.88
3.12
-10.19
-21.34
-28.65
-30.96
-27.90
-20.09
-8.99
3.46
15.33
25.11
32.01
35.97
37.42
37.00
35.32
32.76
29.54
25.78
21.67
17.42
13.21
8.94
4.25
-1.54
-9.23
-19.46
-32.51
-48.03
-65.14
-82.44
-98.29
-110.97
-119.13
-121.91
-119.12
-111.30
-99.54
-85.42
-70.65
-56.89
-45.47
-37.19
-32.35
-30.81
-32.27
-36.45
-43.14
-52.01
-62.34
-72.91
-82.12
-88.49
-91.13
-90.09
-86.14
-80.34
-73.54
-66.23
-58.65
-51.11
-44.19
-38.69
-35.45
-35.00
-37.51
-42.82
-50.60
-60.35
-71.45
-83.02
-94.05
-103.57
-111.01
-116.37
-120.23
-123.50
-127.11
-131.64
-137.14
-143.20
-149.02
-153.77
-156.81
-157.90
-157.26
-155.56
-153.79
-153.04
-154.15
-157.34
-161.97
-166.50
-168.65
-166.02
-156.69
-139.81
-115.87
-86.44
-53.75
-20.00
13.13
44.84
75.13
104.69
134.45
165.28
197.68
231.69
266.63
301.26
333.81
362.23
384.65
399.75
407.15
407.54
402.57
394.40
385.10
376.08
367.75
359.59
350.60
339.83
326.85
311.90
295.68
278.96
262.19
245.29
227.90
209.71
190.76
171.52
152.52
134.05
115.90
97.39
77.67
56.22
33.02
8.64
-16.05
-40.15
-63.05
-84.53
-104.84
-124.60
-144.68
-166.04
-189.41
-214.92
-241.93
-268.96
-294.01
-315.03
-330.43
-339.39
-341.90
-338.48
-329.79
-316.34
-298.40
-276.14
-249.98
-220.81
-190.10
-159.64
-131.20
-106.05
-84.64
-66.64
-51.15
-37.15
-23.91
-11.11
1.24
13.08
24.53
35.84
47.22
58.45
68.91
77.66
83.84
87.04
87.43
85.54
82.02
77.39
71.94
65.85
59.29
52.45
45.37
37.86
29.45
19.54
7.75
-5.82
-20.47
-35.17
-48.87
-60.96
-71.42
-80.72
-89.62
-98.83
-108.90
-120.11
-132.48
-145.61
-158.54
-169.67
-176.95
-178.32
-172.24
-158.27
-137.25
-111.15
-82.57
-54.08
-27.63
-4.30
15.71
32.70
47.11
59.18
68.97
76.44
81.77
85.38
87.80
89.36
90.00
89.28
86.80
82.71
77.97
74.16
72.93
75.14
80.43
87.12
92.90
95.63
94.07
88.18
78.80
67.11
54.11
40.55
26.95
13.96
2.36
-7.04
-13.64
-17.34
-18.50
-17.71
-15.59
-12.46
-8.35
-3.09
3.53
11.54
20.77
30.71
40.52
49.13
55.40
58.52
58.31
55.46
51.38
47.69
45.55
45.13
45.50
45.11
42.56
37.23
29.52
20.46
11.05
1.66
-8.07
-18.79
-30.75
-43.23
-54.57
-62.66
-65.84
-63.37
-56.62
-48.01
-40.51
-36.58
-37.12
-40.96
-45.07
-45.58
-38.91
-23.91
-1.66
24.22
48.52
65.70
71.41
63.77
44.36
18.67
-6.94
-25.41
-32.25
-27.30
-15.35
-4.57
-3.15
-15.46
-38.12
-65.11
-85.21
-87.91
-67.28
-24.52
32.13
89.93
135.65
163.11
165.47
146.56
115.41
83.37
60.36
52.51
61.53
85.42
125.21
169.34
211.42
244.66
263.79
265.63
250.36
222.30
189.12
166.33
152.88
151.42
160.41
177.00
196.68
214.26
225.36
184.26
147.47
109.51
74.73
47.34
32.04
29.39
34.99
41.68
43.43
44.64
38.68
28.53
17.14
9.07
5.97
6.04
6.17
4.70
7.36
9.58
11.87
-5.29
-48.29
-107.36
-164.78
-208.49
-235.95
-247.07
-250.03
-249.10
-247.24
-242.88
-234.19
-221.23
-205.24
-186.63
-162.98
-134.99
-103.77
-72.67
-43.67
-18.27
2.05
17.05
28.54
39.90
53.02
67.64
81.98
91.22
93.85
89.80
80.43
68.33
52.25
35.81
22.86
14.45
9.66
7.55
8.10
11.10
16.62
23.75
31.68
38.65
42.78
43.02
39.61
32.82
22.66
9.21
-7.28
-25.68
-45.16
-65.01
-84.35
-101.83
-116.35
-127.32
-134.50
-137.94
-137.51
-133.78
-127.82
-120.80
-113.28
-105.30
-96.59
-86.97
-76.80
-66.81
-58.05
-51.04
-45.16
-38.79
-30.34
-19.33
-6.86
4.82
13.49
18.01
18.80
17.61
16.50
16.97
19.41
23.24
27.50
31.50
35.24
39.28
44.25
50.27
56.70
62.42
66.52
68.88
70.32
72.20
75.68
81.10
87.91
94.94
100.96
104.92
106.05
103.82
97.84
88.06
74.84
58.85
40.94
21.88
2.31
-17.08
-35.43
-51.80
-65.49
-76.40
-85.16
-92.84
-100.45
-108.49
-116.74
-124.57
-131.18
-135.79
-137.63
-135.83
-129.53
-118.21
-102.02
-82.00
-59.81
-37.24
-15.70
4.00
21.64
37.32
51.12
63.01
72.80
80.26
85.31
88.01
88.62
87.47
84.91
81.24
76.67
71.44
65.76
59.89
54.07
48.47
43.33
38.84
35.25
32.74
31.35
30.85
30.91
31.03
30.81
29.99
28.35
25.73
22.01
17.21
11.56
5.54
-0.26
-5.33
-9.37
-12.37
-14.60
-16.47
-18.55
-21.43
-25.55
-30.94
-37.00
-42.46
-45.66
-45.47
-41.30
-33.38
-22.81
-11.44
-1.28
6.16
10.27
11.36
10.10
7.42
4.36
1.62
-0.62
-2.52
-4.29
-6.01
-7.70
-10.33
-14.62
-20.73
-28.23
-36.55
-44.95
-52.48
-58.23
-61.70
-65.31
-70.99
-78.97
-88.27
-97.89
-107.04
-114.78
-120.23
-122.95
-127.93
-138.56
-154.25
-171.81
-188.40
-202.24
-212.09
-216.96
-216.48
-218.43
-227.55
-242.42
-258.33
-272.47
-285.03
-297.20
-309.40
-320.42
-336.85
-359.61
-381.82
-394.88
-396.49
-391.46
-387.34
-389.66
-340.25
-218.73
-53.58
106.23
231.49
316.56
366.96
391.90
401.29
403.76
395.52
374.28
343.92
312.08
284.42
263.46
250.25
244.97
246.82
246.39
237.16
219.07
196.38
172.93
150.98
132.22
117.98
108.66
98.83
84.28
64.77
43.00
21.66
2.38
-13.95
-27.24
-38.21
-50.48
-66.01
-84.23
-102.64
-118.65
-130.52
-137.69
-140.76
-141.28
-141.91
-144.42
-148.91
-153.88
-157.20
-156.85
-151.43
-140.45
-124.33
-104.14
-81.38
-57.66
-34.43
-12.81
6.49
23.07
36.88
48.14
57.27
64.89
71.58
77.66
83.05
87.18
89.27
88.68
85.35
79.97
73.77
68.12
64.02
61.82
61.19
61.48
62.03
62.49
62.81
63.16
63.71
64.56
65.70
67.09
68.66
70.29
71.82
72.94
73.37
72.85
71.29
68.72
65.26
61.07
56.22
50.82
44.99
38.94
32.91
27.00
21.14
15.05
8.30
0.45
-8.77
-19.31
-30.60
-41.51
-50.48
-55.85
-56.33
-51.43
-41.68
-28.42
-13.38
1.89
16.34
29.47
41.17
51.46
60.39
68.03
74.54
80.19
85.20
89.63
93.26
95.72
96.65
95.95
93.89
91.02
87.99
85.34
83.34
81.92
80.84
79.72
78.25
76.21
73.54
70.21
66.30
61.88
57.06
51.98
46.80
41.71
36.80
32.06
27.37
22.50
17.26
11.61
5.72
-0.13
-5.63
-10.64
-15.21
-19.62
-24.20
-29.23
-34.87
-41.21
-48.27
-55.89
-63.65
-70.68
-75.69
-77.29
-74.38
-66.65
-54.73
-40.07
-24.48
-9.52
3.83
15.32
25.25
34.06
42.13
49.54
56.17
61.80
66.23
69.35
71.23
72.02
71.95
71.30
70.35
69.33
68.38
67.49
66.60
65.60
64.43
63.09
61.59
59.93
58.05
55.85
53.22
50.10
46.48
42.32
37.60
32.34
26.60
20.52
14.30
8.10
1.99
-4.04
-10.04
-16.01
-21.86
-27.41
-32.52
-37.17
-41.48
-45.70
-50.13
-55.10
-60.80
-67.30
-74.38
-81.40
-87.35
-90.98
-91.16
-87.23
-79.24
-67.89
-54.40
-40.11
-26.20
-13.49
-2.41
6.93
14.67
21.04
26.33
30.82
34.68
37.96
40.66
42.69
43.98
44.52
44.31
43.42
41.96
40.12
38.19
36.47
35.20
34.41
33.92
33.33
32.24
30.46
28.04
25.29
22.52
19.90
17.42
14.88
12.10
9.00
5.65
2.15
-1.42
-5.08
-8.86
-12.84
-17.01
-21.31
-25.65
-29.94
-34.17
-38.39
-42.71
-47.25
-52.13
-57.45
-63.26
-69.52
-76.07
-82.47
-88.00
-91.74
-92.74
-90.40
-84.61
-75.92
-65.32
-53.96
-42.86
-32.60
-23.47
-15.50
-8.62
-2.81
1.99
5.90
9.12
11.82
14.12
15.96
17.18
17.66
17.35
16.40
15.05
13.53
12.01
10.58
9.23
7.94
6.67
5.31
3.76
1.90
-0.32
-2.87
-5.57
-8.16
-10.37
-11.99
-13.02
-13.54
-13.79
-14.04
-14.51
-15.33
-16.51
-17.96
-19.52
-21.11
-22.61
-24.10
-25.70
-27.67
-30.33
-33.92
-38.46
-43.53
-48.26
-51.49
-52.09
-49.31
-43.12
-34.18
-23.58
-12.53
-1.95
7.60
15.95
23.08
29.04
33.88
37.67
40.52
42.62
44.16
45.27
45.97
46.15
45.72
44.67
43.14
41.45
39.94
38.82
38.11
37.59
36.95
35.90
34.33
32.29
29.93
27.31
24.37
20.91
16.74
11.77
6.10
0.06
-5.99
-11.63
-16.57
-20.66
-23.93
-26.55
-28.79
-30.87
-32.99
-35.22
-37.56
-39.95
-42.36
-44.83
-47.50
-50.63
-54.38
-58.75
-63.41
-67.67
-70.59
-71.20
-68.80
-63.19
-54.77
-44.38
-33.06
-21.77
-11.23
-1.89
6.03
12.47
17.54
21.48
24.63
27.29
29.58
31.38
32.46
32.63
31.88
30.46
28.71
26.96
25.39
24.03
22.88
21.90
21.14
20.59
20.18
19.72
18.99
17.77
15.98
13.66
10.98
8.09
5.09
2.03
-1.18
-4.61
-8.34
-12.36
-16.55
-20.84
-25.14
-29.45
-33.73
-37.91
-41.83
-45.35
-48.39
-51.08
-53.78
-57.03
-61.37
-67.05
-73.77
-80.59
-86.04
-88.56
-86.91
-80.66
-70.26
-56.92
-42.15
-27.29
-13.23
-0.40
11.11
21.32
30.26
37.99
44.69
50.61
56.03
61.12
65.86
70.02
73.30
75.56
76.81
77.26
77.16
76.73
76.12
75.38
74.53
73.52
72.12
69.96
66.62
61.75
55.27
47.45
38.84
30.10
21.70
13.85
6.51
-0.45
-7.17
-13.62
-19.75
-25.50
-30.90
-36.08
-41.18
-46.44
-52.08
-58.42
-65.67
-73.87
-82.59
-90.87
-97.29
-100.27
-98.65
-91.98
-80.79
-66.34
-50.19
-33.85
-18.38
-4.36
8.04
18.87
28.29
36.46
43.52
49.57
54.61
58.56
61.28
62.60
62.49
61.00
58.38
54.99
51.29
47.73
44.68
42.39
40.88
40.03
39.59
39.31
38.96
38.38
37.48
36.19
34.47
32.33
29.79
26.96
23.89
20.50
16.56
11.69
5.45
-2.50
-12.24
-23.60
-36.16
-49.42
-62.90
-76.29
-89.37
-102.09
-114.42
-126.24
-137.12
-146.21
-152.23
-153.70
-149.39
-138.81
-122.47
-101.81
-78.77
-55.19
-32.36
-10.84
9.38
28.52
46.75
64.00
79.98
94.29
106.49
116.10
122.65
125.63
124.63
119.58
110.87
99.35
86.23
72.78
60.08
48.78
39.11
30.98
24.20
18.66
14.35
11.37
9.68
9.03
8.97
8.97
8.73
8.38
8.46
9.64
12.33
16.33
20.78
24.49
26.38
25.88
22.90
17.72
10.56
1.51
-9.54
-22.69
-37.85
-54.82
-73.22
-92.60
-112.22
-130.93
-146.97
-158.30
-163.05
-160.19
-149.93
-133.71
-113.75
-92.35
-71.29
-51.58
-33.57
-17.24
-2.48
10.78
22.58
33.01
42.15
50.05
56.65
61.84
65.49
67.67
68.64
68.84
68.75
68.77
69.16
69.94
70.96
71.89
72.30
71.77
70.07
67.27
63.75
59.97
56.35
52.94
49.42
45.24
39.84
32.87
24.29
14.33
3.44
-7.81
-18.87
-29.28
-38.76
-47.36
-55.44
-63.58
-72.36
-81.98
-92.05
-101.46
-108.52
-111.41
-108.67
-99.68
-84.90
-65.76
-44.14
-21.96
-0.64
19.07
36.93
52.92
67.09
79.36
89.62
97.78
103.89
108.14
110.75
111.94
111.86
110.59
108.25
104.96
100.90
96.32
91.45
86.48
81.47
76.36
71.00
65.18
58.76
51.69
43.99
35.80
27.30
18.73
10.32
2.27
-5.27
-12.24
-18.64
-24.52
-29.97
-35.10
-40.05
-44.94
-49.87
-54.82
-59.62
-64.07
-68.02
-71.49
-74.78
-78.37
-82.75
-88.20
-94.59
-101.26
-107.08
-110.58
-110.35
-105.40
-95.51
-81.32
-64.20
-45.84
-27.77
-10.97
4.26
18.06
30.77
42.61
53.53
63.30
71.61
78.25
83.14
86.32
87.86
87.91
86.69
84.50
81.64
78.37
74.79
70.84
66.44
61.52
56.20
50.63
44.97
39.18
33.01
26.15
18.40
9.90
1.13
-7.22
-14.59
-20.69
-25.68
-30.06
-34.53
-39.79
-46.45
-54.81
-64.64
-74.97
-84.13
-90.06
-91.05
-86.54
-77.51
-66.25
-55.56
-47.75
-43.87
-43.73
-46.33
-50.58
-55.70
-61.21
-66.56
-70.83
-72.82
-71.38
-65.97
-57.00
-45.77
-34.04
-23.40
-14.68
-7.72
-1.62
4.78
12.32
21.16
30.76
40.21
48.63
55.48
60.58
64.03
66.03
66.74
66.35
65.12
63.45
61.75
60.35
59.36
58.65
57.93
56.86
55.15
52.69
49.50
45.78
41.85
38.00
34.41
31.06
27.72
24.08
19.89
15.14
10.06
5.02
0.43
-3.41
-6.35
-8.36
-9.52
-10.02
-10.24
-10.80
-12.51
-16.16
-22.25
-30.71
-40.81
-51.17
-60.19
-66.32
-68.49
-66.21
-59.64
-49.51
-36.93
-23.21
-9.67
2.61
13.02
21.37
27.94
33.22
37.69
41.76
45.62
49.28
52.58
55.27
57.00
57.45
56.42
53.96
50.43
46.41
42.46
38.99
36.12
33.64
31.19
28.42
25.16
21.48
17.62
13.93
10.64
7.81
5.26
2.65
-0.37
-3.99
-8.20
-12.77
-17.40
-21.81
-25.94
-29.91
-33.97
-38.42
-43.42
-48.89
-54.62
-60.28
-65.56
-70.27
-74.38
-77.94
-81.20
-84.43
-88.04
-92.33
-97.40
-102.86
-107.67
-110.41
-109.58
-104.24
-94.39
-81.02
-65.75
-50.31
-35.92
-23.15
-12.02
-2.28
6.32
13.96
20.80
27.01
32.74
38.07
42.89
46.91
49.79
51.33
51.66
51.14
50.31
49.64
49.43
49.64
50.00
50.11
49.62
48.37
46.47
44.19
41.83
39.55
37.28
34.73
31.60
27.76
23.35
18.73
14.32
10.36
6.84
3.46
-0.22
-4.55
-9.52
-14.83
-20.05
-24.87
-29.17
-33.08
-36.96
-41.31
-46.61
-52.99
-60.15
-67.33
-73.39
-77.02
-77.04
-72.79
-64.52
-53.19
-40.03
-26.25
-12.86
-0.56
10.33
19.83
28.15
34.89
39.81
43.24
45.87
48.27
50.62
52.82
54.70
56.05
55.31
51.34
44.41
35.85
27.08
18.95
11.96
6.52
3.12
0.00
-4.09
-8.83
-12.95
-15.97
-18.80
-23.04
-30.00
-40.12
-55.81
-77.95
-104.60
-132.09
-157.47
-179.69
-199.05
-216.22
-213.62
-182.39
-129.54
-72.39
-23.82
13.08
40.98
63.64
83.60
101.45
113.51
116.68
111.86
102.78
93.82
88.16
87.46
92.18
102.10
114.53
127.45
140.91
155.26
169.84
182.78
192.17
197.15
198.11
194.82
187.37
176.60
163.79
150.20
136.73
123.72
110.83
96.89
79.77
58.13
32.66
5.87
-19.15
-40.27
-57.17
-71.15
-84.18
-98.01
-113.11
-128.55
-142.78
-154.49
-163.12
-168.87
-172.17
-173.31
-172.08
-167.94
-160.41
-149.48
-135.91
-121.04
-106.33
-92.84
-80.87
-70.11
-60.16
-50.96
-42.96
-36.87
-33.16
-31.74
-32.11
-33.84
-37.03
-42.26
-50.03
-60.02
-70.67
-79.56
-84.32
-83.56
-77.34
-66.76
-53.26
-37.89
-21.11
-3.10
15.70
34.44
51.85
66.58
77.43
83.43
83.85
78.30
67.30
52.71
37.76
26.44
22.29
27.23
40.96
61.19
84.44
106.98
125.54
137.44
140.71
134.13
117.80
93.44
64.49
35.47
10.67
-7.07
-17.30
-21.81
-23.56
-25.34
-28.64
-33.27
-37.89
-40.88
-41.07
-38.07
-32.15
-24.07
-14.99
-6.64
-1.24
-1.08
-7.75
-21.14
-39.10
-57.83
-72.99
-80.94
-79.79
-69.53
-51.79
-29.05
-3.96
21.14
44.54
65.34
83.35
98.88
112.38
124.07
133.89
141.58
146.84
149.60
150.01
148.43
145.36
141.58
138.22
136.62
137.89
142.20
148.32
153.66
154.97
149.41
135.47
113.34
84.64
51.75
17.06
-17.37
-49.91
-79.25
-104.40
-124.85
-140.71
-152.74
-162.07
-169.56
-175.18
-177.73
-175.19
-165.65
-148.48
-125.22
-99.70
-77.15
-62.61
-59.37
-67.91
-85.92
-109.17
-132.89
-153.07
-167.12
-173.94
-173.46
-166.27
-153.33
-135.88
-115.51
-93.81
-71.90
-49.92
-26.90
-1.39
27.57
59.46
92.05
121.92
145.66
160.99
167.40
165.87
158.31
146.72
132.75
117.58
101.98
86.41
71.02
55.67
39.98
23.54
6.14
-12.08
-30.54
-48.30
-64.06
-76.40
-84.04
-86.14
-82.69
-74.60
-63.62
-51.84
-41.07
-32.37
-25.99
-21.64
-19.17
-18.93
-21.88
-29.11
-41.14
-57.50
-76.77
-97.00
-116.45
-134.01
-149.19
-161.73
-171.10
-176.30
-176.03
-169.19
-155.46
-135.59
-111.34
-85.10
-59.38
-36.30
-17.26
-2.81
7.28
13.64
16.94
17.62
15.83
11.65
5.43
-2.03
-9.58
-16.00
-20.45
-22.64
-22.93
-22.00
-20.52
-18.90
-17.28
-15.53
-13.33
-10.33
-6.19
-0.94
4.64
8.71
8.49
0.82
-16.85
-45.53
-83.86
-128.05
-172.54
-211.18
-238.66
-251.74
-249.81
-234.73
-209.82
-178.68
-144.08
-107.65
-70.33
-33.19
2.09
33.47
59.43
79.95
96.76
112.70
130.39
151.15
174.65
199.45
224.20
248.58
273.43
300.00
328.85
358.92
387.38
410.31
423.83
425.21
413.75
391.00
360.12
325.01
289.18
255.01
223.58
195.11
169.61
147.19
127.94
111.28
95.58
78.43
57.49
31.84
2.66
-27.01
-53.50
-73.95
-87.46
-95.15
-99.40
-102.74
-106.92
-112.70
-119.94
-128.07
-136.28
-143.69
-149.33
-152.30
-152.17
-149.17
-144.31
-138.94
-134.01
-129.57
-124.58
-117.49
-107.02
-93.02
-76.66
-60.06
-45.49
-34.49
-27.45
-23.59
-21.45
-19.44
-16.41
-11.84
-5.80
1.27
8.91
16.72
24.32
31.25
36.87
40.57
42.01
41.43
39.63
37.68
36.51
36.52
37.48
38.76
39.67
39.79
39.20
38.28
37.57
37.47
38.02
38.89
39.43
38.75
36.03
30.69
22.51
11.73
-1.09
-15.06
-29.21
-42.61
-54.63
-65.14
-74.46
-83.24
-91.94
-100.45
-107.86
-112.67
-113.29
-108.72
-98.95
-85.00
-68.53
-51.31
-34.76
-19.66
-6.26
5.52
15.88
24.97
32.84
39.50
44.95
49.28
52.64
55.13
56.76
57.44
57.02
55.54
53.23
50.55
47.98
45.83
44.12
42.57
40.76
38.29
34.89
30.50
25.22
19.30
13.03
6.65
0.29
-6.07
-12.56
-19.34
-26.45
-33.75
-41.01
-47.94
-54.37
-60.24
-65.56
-70.32
-74.54
-78.25
-81.57
-84.67
-87.68
-90.47
-92.45
-92.62
-89.73
-82.64
-70.73
-54.25
-34.26
-12.51
9.03
28.55
44.76
57.01
65.32
70.31
73.04
74.89
77.24
81.23
87.41
95.57
104.75
113.67
121.07
126.13
128.60
128.72
126.90
123.58
119.08
113.71
107.79
101.69
95.72
89.96
84.26
78.32
71.86
64.81
57.40
49.99
42.87
36.11
29.53
22.82
15.78
8.33
0.50
-7.66
-16.28
-25.57
-35.80
-47.01
-58.97
-71.09
-82.69
-93.05
-101.64
-108.00
-111.71
-112.24
-109.01
-101.61
-90.00
-74.76
-57.04
-38.34
-20.14
-3.50
11.12
23.88
35.36
46.14
56.60
66.77
76.41
85.21
92.90
99.30
104.34
107.92
109.89
110.12
108.60
105.54
101.23
95.99
89.98
83.15
75.27
66.08
55.46
43.58
30.94
18.26
6.32
-4.27
-13.14
-20.30
-26.01
-30.73
-34.91
-39.01
-43.39
-48.23
-53.55
-59.15
-64.72
-69.94
-74.65
-78.89
-82.94
-87.16
-91.89
-97.29
-103.16
-108.79
-113.03
-114.39
-111.54
-103.72
-91.13
-74.98
-57.11
-39.54
-23.83
-10.83
-0.62
7.28
13.65
19.22
24.53
29.75
34.80
39.38
43.22
46.14
48.18
49.43
49.99
49.87
49.03
47.56
45.66
43.69
41.95
40.59
39.51
38.44
37.11
35.33
33.04
30.24
26.96
23.25
19.18
14.91
10.61
6.39
2.20
-2.12
-6.76
-11.80
-17.14
-22.54
-27.77
-32.75
-37.56
-42.44
-47.60
-53.19
-59.30
-65.96
-73.22
-80.98
-88.78
-95.61
-100.05
-100.62
-96.33
-87.13
-74.06
-58.87
-43.48
-29.40
-17.37
-7.43
0.83
7.90
14.18
19.88
25.06
29.67
33.60
36.75
39.03
40.41
40.93
40.71
39.86
38.54
36.96
35.38
34.06
33.18
32.77
32.66
32.54
32.09
31.13
29.61
27.62
25.27
22.60
19.63
16.33
12.76
9.06
5.37
1.72
-2.02
-6.09
-10.78
-16.22
-22.35
