1542305037.00
64.000000
-0.00
-0.00
-0.00
-0.00
-0.00
-0.00
-0.00
-0.00
-0.00
-0.00
0.00
0.01
0.01
-0.00
-0.03
-0.05
-0.05
0.00
0.13
0.36
0.66
1.01
1.37
1.72
2.06
2.40
2.79
3.24
3.80
4.42
5.06
5.66
6.20
6.68
7.15
7.68
8.31
9.14
10.09
11.04
11.88
12.56
13.14
13.76
14.65
15.96
17.91
20.32
22.90
25.38
27.58
29.57
31.68
34.32
37.81
42.54
48.15
54.10
59.83
64.97
69.58
74.14
79.34
85.71
93.76
103.00
112.62
121.73
129.77
136.75
143.30
150.75
157.77
166.64
177.95
191.79
206.97
220.57
228.25
225.36
208.53
176.87
132.76
80.05
23.07
-34.94
-92.44
-149.16
-205.23
-260.37
-313.74
-363.87
-409.83
-450.91
-486.50
-515.74
-537.23
-549.22
-549.96
-538.37
-514.21
-478.67
-433.88
-382.45
-327.02
-269.84
-212.63
-156.66
-102.95
-52.38
-5.91
35.57
71.43
101.38
125.55
144.43
158.71
169.08
176.17
180.41
182.13
181.58
179.03
174.82
169.29
162.83
155.74
148.28
140.62
132.91
125.21
117.57
110.02
102.54
95.14
87.82
80.65
73.72
67.17
61.11
55.56
50.41
45.49
40.60
35.63
30.64
25.87
21.62
18.12
15.40
13.21
11.13
8.70
5.72
2.30
-1.08
-3.81
-5.44
-5.93
-5.73
-5.61
-6.35
-8.32
-11.31
-14.56
-17.13
-18.35
-18.15
-17.05
-15.95
-15.67
-16.73
-19.34
-23.46
-28.70
-33.92
-37.05
-35.46
-27.07
-11.67
8.35
28.52
44.04
51.78
51.49
45.60
37.65
30.47
25.20
21.44
18.28
15.33
13.03
12.14
12.98
15.06
17.23
18.26
17.49
15.05
11.84
8.89
6.94
6.12
5.93
5.57
4.43
2.45
0.28
-1.00
-0.33
2.83
8.10
14.36
20.05
23.81
24.94
23.61
20.62
17.01
13.65
10.95
8.93
7.43
6.25
5.36
4.86
4.88
5.51
6.72
8.35
10.18
11.92
13.21
13.65
12.95
10.98
7.85
4.03
-0.11
-4.19
-7.93
-11.30
-14.33
-17.08
-19.61
-21.88
-23.87
-25.45
-26.32
-26.03
-24.12
-20.29
-14.70
-8.05
-1.39
4.13
7.69
9.05
8.55
6.81
4.55
2.23
0.11
-1.75
-3.37
-4.69
-5.61
-6.06
-6.06
-5.70
-5.11
-4.40
-3.61
-2.74
-1.89
-1.20
-0.86
-1.06
-1.79
-2.83
-3.81
-4.36
-4.23
-3.40
-1.97
-0.22
1.44
2.61
3.05
2.85
2.50
2.82
4.75
9.03
15.82
24.56
34.18
43.49
51.63
58.30
63.76
67.88
70.80
72.49
72.64
70.64
65.84
57.88
46.88
33.55
18.99
4.48
-9.00
-20.97
-31.50
-40.95
-49.81
-58.39
-66.83
-75.06
-82.81
-89.76
-95.59
-99.94
-102.45
-102.85
-101.05
-97.29
-92.16
-86.40
-80.73
-75.51
-70.53
-65.06
-58.07
-48.73
-36.71
-22.37
-6.54
9.72
25.49
40.15
53.42
65.18
75.29
83.63
90.08
94.61
97.37
98.60
98.62
97.77
96.37
94.67
92.83
90.85
88.61
85.93
82.67
78.84
74.58
70.12
65.69
61.49
57.67
54.35
51.55
49.17
46.90
44.33
41.04
36.83
31.85
26.68
22.15
19.11
18.17
19.44
22.45
26.23
29.68
31.86
32.36
31.42
29.77
28.25
27.38
27.07
26.64
25.14
21.87
16.72
10.32
3.74
-1.87
-5.87
-8.28
-9.71
-11.08
-13.13
-16.23
-20.30
-24.99
-29.93
-34.78
-39.23
-43.02
-45.95
-47.98
-49.39
-50.78
-52.93
-56.43
-61.33
-66.90
-71.79
-74.43
-73.55
-68.64
-60.12
-49.18
-37.37
-26.12
-16.48
-9.00
-3.93
-1.35
-1.21
-3.28
-7.07
-11.92
-17.14
-22.34
-27.55
-33.22
-39.97
-48.36
-58.57
-70.21
-82.26
-93.25
-101.54
-105.80
-105.47
-100.87
-93.07
-83.44
-73.13
-62.82
-52.71
-42.90
-33.64
-25.54
-19.44
-16.10
-15.96
-18.90
-24.26
-30.86
-37.15
-41.53
-42.67
-39.82
-33.09
-23.37
-12.01
-0.42
10.27
19.35
26.49
31.47
34.14
34.39
32.34
28.42
23.40
18.26
13.90
10.88
9.28
8.71
8.51
8.04
6.99
5.51
4.14
3.66
4.67
7.43
11.74
16.98
22.35
27.10
30.65
32.62
32.78
31.12
27.88
23.68
19.58
16.96
17.13
20.95
28.48
38.92
50.89
62.96
74.01
83.44
90.89
95.96
97.89
95.76
88.88
77.24
61.77
44.16
26.29
9.68
-4.83
-17.16
-27.59
-36.49
-44.08
-50.62
-56.48
-62.33
-68.85
-76.43
-84.81
-93.02
-99.62
-103.37
-103.78
-101.38
-97.56
-93.88
-91.31
-89.67
-87.64
-83.33
-75.09
-62.22
-45.27
-25.78
-5.71
13.13
29.45
42.59
52.28
58.57
61.72
62.37
61.41
59.96
59.05
59.40
61.40
65.04
70.11
76.28
83.04
89.74
95.67
100.23
103.28
105.21
106.80
108.71
110.98
112.74
112.36
108.07
98.58
83.58
63.73
40.37
15.21
-10.00
-33.50
-53.59
-68.87
-78.57
-82.91
-83.10
-81.11
-79.00
-78.41
-80.07
-83.79
-88.65
-93.43
-96.97
-98.56
-98.10
-96.05
-93.31
-90.82
-89.25
-88.72
-88.88
-89.09
-88.82
-87.84
-86.28
-84.43
-82.60
-80.91
-79.32
-77.64
-75.64
-73.20
-70.29
-67.16
-64.23
-62.09
-61.23
-61.76
-63.24
-64.54
-64.24
-60.95
-53.86
-42.95
-29.01
-13.37
2.49
17.29
30.18
40.72
48.76
54.38
57.68
58.84
58.09
55.83
52.56
48.92
45.49
42.69
40.69
39.40
38.61
38.08
37.67
37.27
36.76
35.94
34.61
32.64
30.00
26.87
23.42
19.74
15.75
11.34
6.61
2.05
-1.39
-2.57
-0.48
5.30
14.41
25.74
37.72
48.73
57.56
63.60
66.89
67.92
67.32
65.70
63.52
61.16
59.07
57.60
56.97
57.00
57.11
56.54
54.66
51.30
46.70
41.38
35.80
30.06
24.02
17.41
10.11
2.18
-6.24
-15.10
-24.57
-34.82
-45.72
-56.55
-65.92
-72.07
-73.52
-69.63
-60.99
-49.18
-36.23
-23.81
-12.81
-3.28
5.14
12.62
18.95
23.50
25.78
25.73
23.95
21.41
19.10
17.58
16.91
16.79
16.80
16.70
16.40
15.96
15.47
14.97
14.35
13.41
11.83
9.21
5.13
-0.77
-8.66
-18.44
-29.58
-41.00
-51.16
-58.22
-60.49
-56.93
-47.58
-33.64
-17.15
-0.29
15.23
28.57
39.73
49.01
56.67
62.58
66.42
67.93
67.13
64.36
59.95
54.02
46.31
36.54
24.74
11.62
-1.55
-13.45
-23.23
-30.91
-37.28
-43.33
-49.75
-56.65
-63.65
-70.36
-76.65
-82.73
-88.77
-94.53
-99.10
-101.15
-99.40
-93.23
-82.95
-69.78
-55.44
-41.69
-29.90
-20.80
-14.56
-10.84
-9.10
-8.73
-9.26
-10.34
-11.75
-13.27
-14.61
-15.45
-15.58
-14.95
-13.72
-12.13
-10.43
-8.75
-7.16
-5.75
-4.70
-4.26
-4.58
-5.68
-7.40
-9.49
-11.80
-14.41
-17.64
-21.86
-27.24
-33.37
-39.12
-42.80
-42.62
-37.37
-26.97
-12.70
3.27
18.55
31.32
40.78
47.08
50.89
52.89
53.38
52.38
49.80
45.86
41.28
37.19
34.86
35.28
38.67
44.46
51.41
58.11
63.53
67.35
69.93
71.88
73.60
75.02
75.68
74.95
72.43
68.11
62.38
55.95
49.74
44.74
41.96
42.23
46.03
53.33
63.61
76.00
89.42
102.71
114.68
124.03
129.57
130.40
126.31
117.84
106.20
92.85
79.06
65.73
53.34
42.20
32.59
24.76
18.79
14.43
11.10
8.13
4.94
1.32
-2.70
-6.94
-11.42
-16.49
-22.79
-31.18
-42.30
-56.28
-72.33
-88.76
-103.23
-113.40
-117.74
-116.12
-109.84
-101.11
-92.13
-84.19
-77.32
-70.57
-62.82
-53.67
-43.80
-34.69
-27.91
-24.33
-23.74
-25.07
-26.97
-28.48
-29.28
-29.66
-30.09
-30.87
-31.92
-32.90
-33.48
-33.56
-33.37
-33.44
-34.31
-36.36
-39.66
-44.04
-49.26
-55.16
-61.67
-68.52
-75.01
-79.83
-81.37
-78.25
-69.96
-57.06
-41.07
-23.79
-6.68
9.57
25.02
40.07
55.04
69.81
83.81
96.14
105.88
112.16
114.33
112.02
105.20
94.25
80.02
63.76
47.02
31.43
18.50
9.37
4.63
4.22
7.46
13.16
19.86
26.06
30.44
32.07
30.45
25.63
18.23
9.43
0.86
-5.71
-8.78
-7.55
-2.05
6.82
17.67
29.02
39.70
48.88
56.12
61.18
63.92
64.44
63.02
60.14
56.15
50.97
43.84
33.46
18.45
-2.20
-28.73
-60.55
-96.19
-133.36
-168.91
-199.01
-219.86
-228.72
-224.94
-210.42
-189.06
-165.35
-142.88
-123.45
-107.11
-92.94
-79.90
-67.36
-54.88
-42.00
-28.08
-12.48
4.98
23.80
42.91
61.08
77.27
90.78
101.03
107.31
108.66
104.15
93.38
76.90
56.25
33.55
10.93
-10.10
-28.81
-45.07
-58.94
-70.26
-78.63
-83.67
-85.40
-84.45
-82.03
-79.55
-78.20
-78.58
-80.74
-84.33
-88.91
-94.00
-99.04
-103.05
-104.67
-102.34
-94.87
-81.98
-64.60
-44.64
-24.39
-5.70
10.50
24.15
35.74
45.65
53.90
60.13
63.99
65.47
65.05
63.58
61.84
60.25
58.76
57.04
54.73
51.73
48.19
44.40
40.55
36.64
32.54
28.07
23.09
17.57
11.50
4.81
-2.62
-10.89
-19.86
-28.98
-37.24
-43.22
-45.53
-43.23
-36.22
-25.32
-12.02
1.97
15.26
27.05
37.07
45.30
51.75
56.24
58.62
58.92
57.50
55.05
52.38
50.14
48.58
47.60
46.84
45.91
44.52
42.58
40.17
37.45
34.60
31.74
28.93
26.13
23.17
19.83
15.80
10.82
4.87
-1.72
-8.11
-13.04
-15.14
-13.32
-7.20
2.74
15.24
28.74
41.77
53.38
63.23
71.35
77.94
83.05
86.53
88.12
87.68
85.27
81.24
76.10
70.38
64.47
58.51
52.38
45.78
38.47
30.33
21.52
12.37
3.20
-5.83
-14.86
-24.22
-34.32
-45.44
-57.57
-70.39
-83.24
-95.11
-104.77
-110.92
-112.47
-108.85
-100.26
-87.68
-72.60
-56.67
-41.27
-27.30
-15.24
-5.29
2.38
7.58
10.07
9.81
7.06
2.44
-3.10
-8.44
-12.46
-14.32
-13.62
-10.51
-5.67
-0.09
5.17
9.30
11.87
12.81
12.25
10.29
6.93
2.09
-4.24
-11.90
-20.47
-29.29
-37.53
-44.23
-48.43
-49.28
-46.30
-39.53
-29.53
-17.32
-4.09
9.06
21.32
32.16
41.24
48.37
53.42
56.46
57.80
58.05
57.92
58.09
58.92
60.37
62.00
63.25
63.71
63.31
62.49
61.91
62.25
63.77
66.03
67.85
67.57
63.51
54.54
40.46
22.28
2.04
-17.56
-33.79
-44.45
-48.33
-45.41
-36.71
-23.93
-9.01
6.27
20.56
33.04
43.32
51.30
56.90
60.06
60.71
58.94
55.14
50.05
44.50
39.14
34.20
29.50
24.58
19.15
13.25
7.28
1.78
-2.98
-7.15
-11.33
-16.25
-22.55
-30.59
-40.38
-51.62
-63.69
-75.67
-86.27
-94.01
-97.50
-95.82
-88.91
-77.65
-63.59
-48.48
-33.67
-19.85
-7.05
4.92
16.16
26.35
34.87
41.06
44.67
45.95
45.64
44.57
43.32
42.00
40.25
37.57
33.65
28.57
22.81
17.00
11.58
6.60
1.70
-3.70
-10.14
-17.89
-26.91
-36.98
-47.72
-58.50
-68.30
-75.74
-79.21
-77.41
-69.84
-57.13
-40.87
-23.09
-5.61
10.47
24.75
37.30
48.17
57.19
63.94
68.11
69.70
69.08
66.95
63.96
60.53
56.78
52.54
47.63
42.00
35.77
29.23
22.69
16.38
10.38
4.65
-0.99
-6.79
-13.07
-20.16
-28.33
-37.68
-47.92
-58.22
-67.29
-73.51
-75.44
-72.28
-64.12
-51.99
-37.47
-22.27
-7.70
5.49
17.06
27.00
35.28
41.74
46.17
48.46
48.76
47.49
45.19
42.32
39.09
35.47
31.33
26.60
21.42
16.13
11.14
6.77
3.12
0.07
-2.61
-5.22
-8.04
-11.36
-15.53
-20.88
-27.63
-35.72
-44.61
-53.32
-60.54
-64.93
-65.53
-62.01
-54.78
-44.82
-33.40
-21.70
-10.53
-0.32
8.84
17.00
24.20
30.33
35.26
38.82
40.93
41.65
41.16
39.72
37.60
35.07
32.28
29.35
26.30
23.07
19.50
15.36
10.46
4.76
-1.33
-7.00
-11.18
-13.08
-12.62
-10.69
-8.85
-8.56
-10.46
-14.05
-17.90
-20.32
-20.10
-16.79
-10.58
-1.99
8.57
20.75
34.17
48.10
61.50
73.10
81.72
86.51
87.20
84.12
78.19
70.71
63.06
56.31
51.03
47.19
44.33
41.86
39.31
36.39
33.02
29.19
24.95
20.36
15.52
10.50
5.36
0.01
-5.76
-12.24
-19.65
-27.95
-36.69
-44.94
-51.43
-54.95
-54.63
-50.34
-42.71
-32.95
-22.46
-12.47
-3.78
3.19
8.30
11.47
12.64
11.80
9.11
4.99
0.05
-5.13
-10.19
-15.19
-20.46
-26.24
-32.24
-37.42
-40.21
-39.18
-33.66
-24.27
-12.72
-1.13
8.61
15.33
18.41
17.56
12.68
4.06
-7.13
-18.80
-28.29
-33.36
-33.01
-27.92
-19.89
-10.91
-2.33
5.46
12.71
19.56
25.61
29.93
31.51
29.75
24.78
17.36
8.55
-0.71
-9.74
-18.15
-25.69
-32.01
-36.56
-38.68
-37.80
-33.77
-27.25
-19.63
-12.82
-8.70
-8.57
-12.88
-21.19
-32.52
-45.63
-59.26
-72.14
-82.86
-89.95
-92.13
-88.76
-80.24
-68.06
-54.46
-41.68
-31.26
-23.63
-18.21
-13.87
-9.71
-5.46
-1.49
1.54
3.15
3.38
2.68
1.74
1.14
1.34
2.60
4.95
8.13
11.47
13.97
14.67
13.04
9.35
4.69
0.55
-1.75
-1.58
0.85
4.51
7.85
9.26
7.56
2.48
-5.08
-13.26
-19.77
-22.81
-21.65
-16.84
-9.73
-1.82
5.86
12.96
19.49
25.54
30.90
35.08
37.59
38.10
36.68
33.67
29.60
25.01
20.33
15.84
11.68
7.84
4.24
0.78
-2.60
-5.94
-9.21
-12.38
-15.45
-18.43
-21.36
-24.30
-27.34
-30.55
-34.09
-38.23
-43.26
-49.37
-56.40
-63.63
-69.83
-73.51
-73.42
-69.02
-60.67
-49.54
-37.22
-25.19
-14.51
-5.58
1.75
7.94
13.48
18.65
23.49
27.72
31.02
33.10
33.84
33.34
31.83
29.60
26.99
24.31
21.83
19.75
18.06
16.60
14.99
12.85
9.89
6.06
1.51
-3.48
-8.59
-13.63
-18.60
-23.71
-29.28
-35.62
-42.78
-50.30
-57.22
-62.18
-63.88
-61.53
-55.19
-45.71
-34.45
-22.77
-11.72
-1.85
6.71
13.95
19.90
24.59
28.05
30.42
31.87
32.62
32.81
32.50
31.70
30.44
28.78
26.79
24.57
22.17
19.57
16.72
13.53
9.88
5.72
1.06
-3.99
-9.23
-14.44
-19.52
-24.49
-29.65
-35.49
-42.43
-50.56
-59.39
-67.72
-73.96
-76.59
-74.71
-68.36
-58.55
-46.80
-34.67
-23.29
-13.16
-4.25
3.74
11.16
18.13
24.55
30.15
34.66
37.93
40.11
41.60
42.98
44.81
47.38
50.67
54.26
57.55
59.89
60.81
60.08
57.68
53.72
48.40
41.97
34.75
27.20
19.84
12.98
6.62
0.37
-6.30
-13.59
-21.03
-27.37
-30.81
-29.65
-22.90
-10.70
5.58
23.76
41.38
56.35
67.29
73.67
75.72
74.26
70.49
65.87
61.91
59.79
60.01
62.14
64.95
66.90
66.80
64.35
60.17
55.42
51.04
47.19
43.03
37.11
28.04
15.31
-0.36
-17.19
-33.08
-46.43
-56.71
-64.59
-71.34
-78.11
-85.22
-91.97
-96.84
-98.26
-95.18
-87.45
-75.82
-61.56
-46.07
-30.48
-15.57
-1.90
9.99
19.37
25.44
27.53
25.56
20.10
12.34
3.67
-4.74
-12.30
-18.91
-24.78
-30.13
-35.09
-39.63
-43.69
-47.31
-50.65
-53.90
-57.22
-60.70
-64.42
-68.39
-72.71
-77.54
-83.08
-89.62
-97.44
-106.74
-117.38
-128.69
-139.28
-147.27
-150.64
-147.92
-138.71
-123.80
-104.96
-84.35
-63.91
-44.97
-28.18
-13.69
-1.42
8.68
16.56
22.12
25.34
26.42
25.83
24.28
22.57
21.34
20.96
21.45
22.54
23.81
24.86
25.39
25.15
23.93
21.51
17.71
12.49
6.04
-1.31
-9.26
-17.70
-26.72
-36.41
-46.48
-56.03
-63.54
-67.31
-66.01
-59.25
-47.73
-33.03
-17.02
-1.30
13.19
26.14
37.66
47.93
56.96
64.55
70.38
74.20
75.98
76.00
74.73
72.75
70.56
68.40
66.31
64.18
61.82
59.14
56.20
53.19
50.28
47.55
44.82
41.66
37.55
31.99
24.68
15.61
5.12
-6.05
-16.76
-25.53
-30.86
-31.47
-26.83
-17.31
-4.16
10.87
26.03
40.05
52.41
63.21
72.91
81.93
90.36
97.89
103.96
108.08
110.11
110.31
109.21
107.34
104.79
101.28
96.21
89.05
79.64
68.35
55.94
43.31
31.26
20.37
10.92
2.91
-3.93
-10.19
-16.73
-24.48
-34.20
-46.12
-59.70
-73.57
-85.80
-94.37
-97.82
-95.69
-88.62
-78.16
-66.22
-54.53
-44.27
-35.90
-29.26
-23.77
-18.67
-13.23
-7.03
-0.02
7.35
14.32
19.98
23.69
25.23
24.89
23.28
21.05
18.66
16.26
13.69
10.66
6.90
2.30
-3.13
-9.27
-15.94
-22.93
-29.94
-36.60
-42.49
-47.26
-50.69
-52.69
-53.15
-51.83
-48.29
-42.01
-32.77
-20.84
-7.17
6.84
19.74
30.40
38.29
43.50
46.57
48.17
48.91
49.24
49.43
49.62
49.83
50.02
50.16
50.21
50.20
50.16
50.05
49.78
49.17
48.05
46.33
44.07
41.48
38.82
36.29
33.93
31.61
29.08
26.13
22.70
18.84
14.75
10.63
6.77
3.60
1.81
2.25
5.72
12.64
22.85
35.53
49.50
63.45
76.37
87.65
97.13
104.94
111.35
116.60
120.80
123.88
125.63
125.84
124.44
121.69
118.10
114.22
110.44
106.69
102.65
97.90
92.26
85.90
79.14
72.25
65.16
57.56
49.21
40.27
31.33
23.16
16.20
10.23
4.47
-2.04
-9.67
-17.96
-25.61
-31.15
-33.63
-33.11
-30.66
-27.79
-25.73
-24.91
-24.81
-24.39
-22.74
-19.60
-15.50
-11.49
-8.56
-7.16
-7.02
-7.40
-7.54
-7.01
-5.91
-4.62
-3.55
-2.81
-2.24
-1.63
-1.07
-1.16
-2.91
-7.42
-15.36
-26.71
-40.70
-56.08
-71.56
-86.09
-99.04
-110.11
-119.17
-126.17
-131.17
-134.36
-135.99
-136.18
-134.67
-130.66
-123.05
-110.89
-93.91
-72.78
-49.08
-24.72
-1.51
19.19
36.49
49.81
58.74
63.18
63.56
60.95
56.89
53.10
51.08
52.05
57.11
67.29
83.28
104.87
130.36
156.42
178.65
192.70
195.48
185.99
165.36
136.27
102.01
65.69
29.74
-4.22
-35.25
-62.87
-86.92
-107.51
-124.97
-139.83
-152.62
-163.66
-172.82
-179.60
-183.32
-183.53
-180.42
-174.86
-168.05
-161.08
-154.38
-147.76
-140.61
-132.53
-123.73
-115.09
-107.80
-102.74
-100.09
-99.17
-98.71
-97.43
-94.43
-89.48
-83.00
-75.92
-69.47
-65.05
-64.07
-67.73
-76.60
-90.34
-107.50
-125.73
-142.33
-155.01
-162.55
-165.10
-164.03
-161.48
-159.68
-160.38
-164.34
-171.08
-179.02
-185.79
-188.84
-186.15
-176.73
-160.91
-140.17
-116.59
-92.29
-68.89
-47.25
-27.62
-9.88
6.17
20.57
33.23
44.02
52.88
59.91
65.31
69.29
72.04
73.70
74.48
74.69
74.81
75.34
76.64
78.78
81.39
83.85
85.40
85.47
83.83
80.63
76.33
71.38
66.11
60.46
54.09
46.46
37.05
25.63
12.41
-1.77
-15.46
-26.86
-34.16
-36.09
-32.26
-23.22
-10.27
5.05
21.36
37.66
53.39
68.23
81.88
94.01
104.28
112.44
118.48
122.68
125.52
127.59
129.37
131.10
132.74
134.06
134.80
134.88
134.38
133.55
132.65
131.82
130.95
129.70
127.60
124.21
119.42
113.53
107.27
101.49
96.75
92.92
89.09
83.84
75.72
63.79
47.84
28.43
6.83
-15.15
-35.37
-51.53
-61.76
-65.05
-61.71
-53.35
-42.38
-31.24
-21.52
-13.50
-6.23
1.78
11.73
23.86
37.25
50.20
60.94
68.38
72.32
73.32
72.13
69.16
64.47
57.99
50.03
41.39
33.17
26.21
20.62
15.75
10.44
3.67
-5.04
-15.45
-26.77
-37.96
-48.07
-56.62
-63.64
-69.73
-75.88
-83.02
-91.62
-101.25
-110.66
-118.11
-121.89
-120.95
-115.30
-106.04
-95.00
-84.00
-73.86
-63.77
-51.38
-33.60
-8.02
25.87
66.29
109.69
152.10
190.32
222.74
249.12
269.90
285.45
295.57
299.59
296.75
286.58
269.09
244.74
214.26
178.69
139.33
98.04
57.27
19.94
-11.06
-33.61
-47.10
-52.72
-53.21
-52.07
-52.52
-56.55
-64.50
-75.23
-86.80
-97.33
-105.84
-112.60
-119.04
-127.17
-138.64
-153.72
-170.64
-185.65
-194.13
-192.31
-178.92
-155.93
-128.11
-101.35
-80.77
-69.28
-67.22
-72.94
-83.94
-97.69
-112.12
-125.69
-137.23
-145.97
-151.68
-154.62
-155.51
-155.20
-154.38
-153.36
-151.98
-149.67
-145.74
-139.86
-132.38
-124.47
-117.82
-113.88
-113.13
-114.64
-116.28
-115.48
-110.25
-99.87
-85.07
-67.53
-49.12
-31.20
-14.33
1.55
16.79
31.58
45.86
59.25
71.19
81.11
88.51
93.04
94.58
93.30
89.66
84.39
78.30
72.22
66.76
62.28
58.81
56.11
53.80
51.50
49.01
46.31
43.56
40.94
38.44
35.82
32.56
28.01
21.52
12.87
2.44
-8.63
-18.61
-25.69
-28.61
-27.05
-21.79
-14.26
-5.90
2.37
10.34
18.34
26.72
35.55
44.41
52.59
59.41
64.46
67.68
69.33
69.72
69.11
67.57
65.06
61.46
56.73
51.03
44.70
38.20
31.94
26.12
20.69
15.36
9.88
4.00
-2.43
-9.49
-17.37
-26.27
-36.32
-47.26
-58.22
-67.74
-74.04
-75.61
-71.74
-62.88
-50.45
-36.32
-22.20
-9.07
2.82
13.73
23.97
33.55
42.08
48.97
53.76
56.28
56.73
55.54
53.18
50.09
46.59
42.94
39.33
35.90
32.62
29.28
25.61
21.33
16.33
10.64
4.44
-2.10
-8.91
-16.14
-24.11
-33.15
-43.39
-54.49
-65.54
-75.06
-81.40
-83.10
-79.44
-70.67
-57.90
-42.75
-26.82
-11.28
3.28
16.71
29.04
40.25
50.13
58.41
64.81
69.19
71.58
72.14
71.12
68.83
65.54
61.54
57.06
52.24
47.15
41.80
36.15
30.22
24.03
17.67
11.18
4.49
-2.56
-10.27
-18.95
-28.92
-40.25
-52.59
-65.01
-75.96
-83.62
-86.31
-83.14
-74.21
-60.74
-44.54
-27.44
-10.86
4.51
18.49
31.21
42.76
53.05
61.85
68.83
73.68
76.23
76.54
74.80
71.48
67.09
62.19
57.16
52.20
47.28
42.26
36.92
31.15
24.89
18.21
11.23
4.06
-3.25
-10.73
-18.58
-27.09
-36.66
-47.50
-59.43
-71.57
-82.37
-89.85
-92.20
-88.40
-78.58
-63.94
-46.38
-27.83
-9.83
6.75
21.56
34.59
45.96
55.77
64.05
70.74
75.63
78.45
79.02
77.36
73.79
68.89
63.37
57.87
52.76
48.13
43.76
39.30
34.37
28.65
22.01
14.54
6.49
-1.81
-10.06
-18.19
-26.45
-35.35
-45.44
-56.97
-69.57
-82.02
-92.46
-98.82
-99.45
-93.66
-81.96
-65.82
-47.19
-27.92
-9.32
7.88
23.44
37.33
49.48
59.71
67.80
73.57
76.95
78.09
77.23
74.71
70.93
66.31
61.27
56.28
51.66
47.59
43.98
40.47
36.58
31.84
25.97
18.97
11.07
2.70
-5.72
-13.88
-21.80
-29.84
-38.60
-48.69
-60.32
-72.94
-85.14
-94.88
-100.05
-99.18
-91.95
-79.25
-62.85
-44.78
-26.71
-9.67
5.94
20.10
32.85
44.10
53.61
61.13
66.50
69.72
70.97
70.51
68.63
65.61
61.72
57.26
52.59
48.09
44.04
40.57
37.51
34.46
30.89
26.35
20.66
13.98
6.74
-0.46
-7.19
-13.34
-19.17
-25.31
-32.48
-41.27
-51.86
-63.82
-76.02
-86.79
-94.19
-96.54
-92.92
-83.53
-69.54
-52.83
-35.30
-18.36
-2.68
11.65
24.86
37.02
47.89
57.00
63.81
68.07
69.92
69.81
68.40
66.26
63.75
60.98
57.89
54.44
50.74
47.01
43.48
40.26
37.15
33.72
29.41
23.80
16.79
8.67
0.04
-8.43
-16.19
-23.06
-29.22
-35.20
-41.65
-49.20
-58.18
-68.50
-79.51
-90.00
-98.40
-103.10
-102.87
-97.29
-86.87
-72.85
-56.84
-40.31
-24.27
-9.23
4.70
17.55
29.30
39.78
48.74
55.89
61.03
64.14
65.37
65.06
63.66
61.59
59.20
56.66
54.05
51.37
48.64
45.86
43.00
39.92
36.35
32.01
26.66
20.26
13.04
5.36
-2.29
-9.54
-16.19
-22.23
-27.93
-33.67
-39.90
-46.98
-55.12
-64.12
-73.37
-81.74
-87.82
-90.21
-87.97
-80.97
-69.96
-56.33
-41.69
-27.35
-14.05
-1.94
9.16
19.47
28.96
37.36
44.23
49.17
52.02
52.89
52.16
50.39
48.14
45.91
43.98
42.42
41.10
39.82
38.34
36.54
34.32
31.63
28.44
24.70
20.35
15.36
9.75
3.66
-2.77
-9.31
-15.71
-21.79
-27.45
-32.71
-37.75
-42.92
-48.63
-55.25
-62.88
-71.16
-79.17
-85.51
-88.65
-87.35
-81.19
-70.69
-57.20
-42.43
-27.91
-14.63
-2.96
7.20
16.11
23.96
30.77
36.45
40.87
43.95
45.74
46.42
46.24
45.51
44.51
43.46
42.41
41.33
40.13
38.72
37.02
34.99
32.58
29.75
26.48
22.77
18.67
14.23
9.48
4.45
-0.84
-6.35
-12.00
-17.68
-23.26
-28.65
-33.90
-39.18
-44.79
-51.04
-58.06
-65.63
-73.05
-79.13
-82.51
-82.01
-77.04
-67.86
-55.53
-41.55
-27.44
-14.33
-2.74
7.30
16.09
23.81
30.50
35.94
39.90
42.28
43.22
43.12
42.42
41.46
40.42
39.33
38.17
36.96
35.73
34.45
33.04
31.32
29.17
26.56
23.61
20.47
17.23
13.86
10.15
5.89
0.95
-4.58
-10.44
-16.22
-21.54
-26.16
-30.13
-33.73
-37.44
-41.81
-47.30
-54.07
-61.85
-69.84
-76.82
-81.36
-82.19
-78.61
-70.74
-59.52
-46.44
-33.08
-20.61
-9.61
-0.05
8.35
15.90
22.67
28.46
32.99
36.05
37.61
37.86
37.16
35.94
34.62
33.54
32.89
32.64
32.59
32.46
32.00
31.08
29.68
27.81
25.39
22.28
18.29
13.44
7.94
2.17
-3.46
-8.71
-13.57
-18.21
-22.88
-27.79
-33.18
-39.22
-46.11
-53.81
-61.93
-69.58
-75.43
-78.05
-76.43
-70.29
-60.29
-47.82
-34.45
-21.52
-9.81
0.49
9.55
17.60
24.72
30.77
35.53
38.87
40.88
41.85
42.15
42.06
41.68
41.01
39.97
38.58
36.92
35.14
33.30
31.41
29.38
27.03
24.19
20.71
16.49
11.52
5.87
-0.30
-6.73
-13.14
-19.29
-25.03
-30.36
-35.46
-40.71
-46.60
-53.58
-61.77
-70.77
-79.53
-86.56
-90.31
-89.62
-84.17
-74.51
-61.89
-47.84
-33.76
-20.57
-8.69
1.87
11.30
19.78
27.45
34.27
40.15
44.91
48.35
50.31
50.79
49.97
48.29
46.21
44.20
42.53
41.23
40.17
39.11
37.85
36.29
34.37
32.03
29.15
25.55
21.07
15.65
9.41
2.58
-4.53
-11.62
-18.55
-25.33
-32.11
-39.13
-46.66
-54.95
-64.08
-73.84
-83.54
-91.95
-97.51
-98.76
-94.86
-85.90
-73.00
-57.89
-42.35
-27.71
-14.53
-2.74
8.09
18.32
28.06
37.09
45.08
51.69
56.70
60.04
61.79
62.15
61.41
59.85
57.84
55.70
53.71
51.99
50.51
49.02
47.23
44.89
41.84
38.14
33.88
29.12
23.86
18.02
11.54
4.53
-2.72
-9.88
-16.70
-23.13
-29.30
-35.52
-42.15
-49.51
-57.75
-66.72
-75.77
-83.74
-89.13
-90.50
-86.95
-78.49
-66.04
-51.11
-35.32
-19.92
-5.60
7.44
19.31
30.18
40.17
49.25
57.30
64.07
69.31
72.81
74.55
74.72
73.71
71.96
69.77
67.35
64.81
62.26
59.85
57.68
55.74
53.84
51.67
48.95
45.50
41.29
36.25
30.14
22.60
13.21
1.90
-10.98
-24.53
-37.59
-49.07
-58.28
-64.97
-69.40
-72.07
-73.52
-74.03
-73.45
-71.27
-66.57
-58.36
-45.83
-28.64
-7.16
17.52
43.79
69.82
93.97
115.06
132.43
145.86
155.39
161.14
163.32
162.48
159.59
155.97
152.79
150.37
147.72
142.72
132.97
116.86
94.41
67.31
38.18
9.51
-17.30
-42.06
-65.51
-88.62
-111.98
-135.47
-158.24
-178.74
-195.06
-205.34
-208.36
-204.11
-193.90
-180.17
-165.70
-152.93
-143.45
-137.78
-135.57
-135.75
-136.71
-136.54
-133.35
-125.70
-113.10
-96.16
-76.42
-55.86
-36.24
-18.67
-3.46
9.67
21.28
31.88
41.66
50.45
57.83
63.35
66.75
68.19
68.15
67.34
66.37
65.58
64.99
64.40
63.57
62.33
60.61
58.34
55.37
51.48
46.45
40.24
33.03
25.29
17.55
10.26
3.61
-2.48
-8.35
-14.44
-21.16
-28.80
-37.44
-46.81
-56.30
-64.82
-71.04
-73.63
-71.73
-65.22
-54.85
-42.02
-28.29
-14.91
-2.57
8.60
18.81
28.25
36.96
44.69
51.09
55.83
58.78
60.09
60.15
59.48
58.57
57.73
56.98
56.14
54.97
53.31
51.19
48.76
46.14
43.34
40.16
36.36
31.74
26.28
20.17
13.67
7.07
0.53
-5.87
-12.15
-18.37
-24.69
-31.36
-38.74
-47.09
-56.31
-65.71
-73.97
-79.43
-80.65
-76.89
-68.49
-56.65
-43.03
-29.18
-16.11
-4.16
6.75
16.85
26.26
34.83
42.27
48.29
52.73
55.61
57.15
57.62
57.30
56.38
54.95
53.06
50.82
48.38
45.92
43.60
41.42
39.17
36.57
33.26
29.02
23.80
17.76
11.22
4.58
-1.86
-7.88
-13.45
-18.74
-24.01
-29.63
-35.94
-43.23
-51.49
-60.28
-68.64
-75.24
-78.61
-77.69
-72.18
-62.70
-50.58
-37.42
-24.55
-12.75
-2.19
7.34
16.07
24.10
31.27
37.31
41.97
45.15
46.96
47.61
47.39
46.53
45.22
43.54
41.64
39.69
37.92
36.49
35.37
34.23
32.53
29.71
25.42
19.71
13.06
6.17
-0.30
-5.98
-10.95
-15.68
-20.85
-27.12
-34.86
-43.99
-53.86
-63.34
-70.97
-75.32
-75.39
-70.88
-62.32
-50.88
-38.02
-25.06
-12.87
-1.85
8.06
17.01
25.14
32.39
38.55
43.34
46.61
48.37
48.78
48.12
46.68
44.70
42.36
39.78
37.05
34.26
31.55
28.94
26.42
23.82
20.84
17.16
12.54
7.00
0.80
-5.66
-12.01
-18.09
-23.97
-29.97
-36.42
-43.59
-51.56
-60.03
-68.32
-75.33
-79.74
-80.37
-76.64
-68.76
-57.79
-45.21
-32.40
-20.26
-9.10
1.11
10.55
19.17
26.83
33.30
38.44
42.28
44.92
46.48
47.07
46.77
45.69
44.02
41.96
39.71
37.45
35.30
33.29
31.35
29.28
26.78
23.54
19.39
14.33
8.60
2.55
-3.47
-9.18
-14.53
-19.66
-24.92
-30.79
-37.71
-45.84
-54.79
-63.52
-70.48
-74.10
-73.32
-68.01
-58.99
-47.72
-35.69
-23.98
-13.00
-2.70
7.16
16.63
25.46
33.25
39.58
44.22
47.24
48.92
49.60
49.60
49.07
48.05
46.53
44.51
42.12
39.57
37.11
34.89
32.90
30.95
28.71
25.89
22.27
17.83
12.78
7.45
2.20
-2.72
-7.29
-11.72
-16.35
-21.56
-27.59
-34.57
-42.34
-50.50
-58.24
-64.45
-67.92
-67.64
-63.28
-55.25
-44.72
-33.14
-21.82
-11.50
-2.29
6.08
14.01
21.59
28.63
34.71
39.46
42.74
44.72
45.71
45.99
45.66
44.59
42.58
39.55
35.71
31.51
27.50
24.11
21.47
19.42
17.56
15.53
13.01
9.87
6.14
1.93
-2.57
-7.19
-11.76
-16.21
-20.51
-24.76
-29.17
-34.06
-39.79
-46.56
-54.19
-61.90
-68.41
-72.21
-72.04
-67.43
-58.85
-47.56
-35.13
-22.89
-11.63
-1.56
7.44
15.51
22.66
28.78
33.71
37.39
39.88
41.28
41.74
41.37
40.30
38.68
36.65
34.39
32.08
29.88
27.95
26.38
25.07
23.78
22.07
19.47
15.70
10.73
4.96
-1.05
-6.71
-11.67
-15.96
-19.90
-24.05
-29.00
-35.22
-42.85
-51.53
-60.35
-67.92
-72.65
-73.29
-69.34
-61.30
-50.46
-38.46
-26.69
-15.88
-6.16
2.76
11.13
18.97
25.99
31.82
36.19
39.07
40.65
41.25
41.13
40.48
39.41
37.99
36.34
34.59
32.85
31.19
29.59
27.95
26.07
23.74
20.75
16.97
12.37
7.11
1.47
-4.16
-9.45
-14.26
-18.70
-23.11
-27.96
-33.71
-40.59
-48.50
-56.91
-64.87
-71.15
-74.50
-74.04
-69.49
-61.32
-50.54
-38.44
-26.19
-14.62
-4.14
5.18
13.41
20.69
27.11
32.67
37.34
40.99
43.49
44.85
45.24
44.96
44.37
43.65
42.80
41.63
39.96
37.75
35.18
32.51
29.94
27.44
24.75
21.59
17.75
13.26
8.38
3.39
-1.49
-6.24
-10.99
-15.96
-21.34
-27.29
-33.92
-41.30
-49.33
-57.60
-65.29
-71.22
-74.17
-73.24
-68.22
-59.71
-48.82
-36.87
-24.95
-13.73
-3.39
6.13
14.91
22.90
29.91
35.66
39.92
42.59
43.79
43.81
43.06
41.95
40.74
39.58
38.49
37.45
36.46
35.54
34.66
33.72
32.54
30.96
28.81
26.06
22.70
18.79
14.38
9.52
4.33
-1.05
-6.44
-11.75
-17.03
-22.51
-28.51
-35.30
-42.96
-51.23
-59.45
-66.60
-71.50
-73.06
-70.60
-64.11
-54.32
-42.49
-30.07
-18.28
-7.82
1.18
8.93
15.73
21.68
26.67
30.50
33.01
34.27
34.53
34.15
33.46
32.66
31.84
30.91
29.83
28.58
27.21
25.81
24.40
22.92
21.09
18.62
15.21
10.77
5.41
-0.53
-6.58
-12.31
-17.38
-21.72
-25.52
-29.19
-33.29
-38.37
-44.71
-52.11
-59.78
-66.42
-70.56
-71.01
-67.26
-59.63
-49.15
-37.22
-25.10
-13.63
-3.17
6.27
14.75
22.27
28.66
33.74
37.37
39.61
40.66
40.84
40.50
39.88
39.11
38.21
37.10
35.73
34.05
32.12
30.03
27.84
25.54
22.93
19.73
15.69
10.74
5.10
-0.83
-6.58
-11.87
-16.71
-21.43
-26.54
-32.55
-39.73
-47.97
-56.67
-64.76
-70.94
-73.97
-73.00
-67.91
-59.32
-48.33
-36.24
-24.14
-12.74
-2.29
7.17
15.68
23.19
29.60
34.76
38.64
41.30
42.93
43.74
43.89
43.46
42.53
41.19
39.60
37.97
36.49
35.25
34.18
33.05
31.56
29.38
26.21
21.92
16.53
10.30
3.64
-2.98
-9.16
-14.73
-19.78
-24.72
-30.12
-36.57
-44.43
-53.54
-63.15
-71.88
-78.13
-80.49
-78.22
-71.48
-61.24
-48.89
-35.82
-23.08
-11.23
-0.42
9.37
18.25
26.22
33.21
39.07
43.67
46.91
48.82
49.59
49.50
48.84
47.87
46.70
45.45
44.16
42.87
41.62
40.38
39.01
37.32
35.02
31.83
27.59
22.28
16.14
9.58
3.07
-3.02
-8.56
-13.68
-18.79
-24.42
-31.06
-39.03
-48.31
-58.36
-68.18
-76.29
-81.14
-81.51
-76.92
-67.83
-55.51
-41.59
-27.58
-14.47
-2.68
7.78
17.08
25.31
32.46
38.43
43.14
46.53
48.67
49.67
49.70
49.01
47.86
46.43
44.81
43.03
41.09
39.10
37.19
35.50
33.94
32.22
29.88
26.47
21.82
16.08
9.69
3.24
-2.80
-8.22
-13.10
-17.80
-22.81
-28.64
-35.65
-43.95
-53.24
-62.74
-71.22
-77.27
-79.53
-77.16
-70.10
-59.13
-45.71
-31.52
-18.00
-6.00
4.24
12.98
20.60
27.34
33.19
37.95
41.39
43.46
44.30
44.25
43.66
42.81
41.76
40.48
38.93
37.16
35.34
33.63
32.05
30.40
28.25
25.11
20.70
15.03
8.50
1.74
-4.64
-10.23
-15.00
-19.27
-23.67
-28.89
-35.52
-43.75
-53.20
-62.80
-71.00
-76.12
-76.86
-72.75
-64.26
-52.67
-39.54
-26.28
-13.81
-2.49
7.65
16.70
24.70
31.56
37.20
41.58
44.75
46.82
47.91
48.10
47.50
46.24
44.51
42.50
40.39
38.33
36.42
34.66
33.00
31.24
29.02
25.96
21.74
16.28
9.80
2.79
-4.15
-10.54
-16.23
-21.41
-26.54
-32.22
-38.97
-47.03
-56.20
-65.74
-74.34
-80.48
-82.68
-80.04
-72.53
-61.07
-47.20
-32.64
-18.70
-6.14
4.92
14.72
23.51
31.39
38.19
43.67
47.61
49.96
50.94
50.90
50.23
49.24
48.05
46.67
44.99
43.02
40.86
38.72
36.80
35.14
33.49
31.35
28.22
23.74
17.95
11.26
4.26
-2.44
-8.58
-14.22
-19.72
-25.58
-32.23
-39.95
-48.82
-58.61
-68.75
-78.24
-85.68
-89.59
-88.82
-82.99
-72.63
-59.10
-44.13
-29.30
-15.65
-3.59
7.03
16.58
25.37
33.45
40.66
46.67
51.14
53.94
55.15
55.08
54.16
52.82
51.33
49.80
48.22
46.56
44.82
43.04
41.22
39.29
37.01
34.08
30.18
25.17
19.14
12.44
5.55
-1.06
-7.14
-12.69
-17.96
-23.26
-28.93
-35.23
-42.35
-50.43
-59.38
-68.65
-77.14
-83.29
-85.48
-82.65
-74.71
-62.65
-48.18
-33.12
-18.86
-6.07
5.20
15.14
24.00
31.84
38.56
44.00
48.05
50.68
51.96
52.10
51.43
50.32
49.12
48.01
47.04
46.08
45.01
43.75
42.28
40.61
38.71
36.47
33.72
30.33
26.21
21.43
16.10
10.42
4.57
-1.33
-7.13
-12.80
-18.32
-23.83
-29.56
-35.87
-43.12
-51.44
-60.56
-69.65
-77.37
-82.12
-82.57
-78.08
-69.02
-56.63
-42.66
-28.76
-16.04
-4.87
4.93
13.76
21.87
29.19
35.36
40.01
42.92
44.20
44.20
43.40
42.24
41.03
39.89
38.85
37.88
36.95
36.03
35.08
34.03
32.70
30.85
28.13
24.29
19.22
13.09
6.34
-0.43
-6.69
-12.15
-16.85
-21.09
-25.37
-30.17
-35.90
-42.82
-50.92
-59.81
-68.59
-75.87
-80.07
-79.88
-74.76
-65.22
-52.63
-38.83
-25.48
-13.59
-3.39
5.49
13.53
21.01
27.86
33.71
38.17
41.04
42.42
42.67
42.26
41.63
40.99
40.36
39.59
38.53
37.08
35.31
33.35
31.32
29.17
26.74
23.75
19.94
15.20
9.64
3.50
-2.88
-9.21
-15.31
-21.10
-26.68
-32.27
-38.25
-45.06
-53.05
-62.28
-72.23
-81.79
-89.41
-93.50
-92.91
-87.30
-77.27
-64.10
-49.36
-34.47
-20.39
-7.59
3.84
14.02
23.11
31.14
38.07
43.80
48.25
51.36
53.20
53.89
53.58
52.45
50.73
48.63
46.41
44.26
42.29
40.48
38.70
36.76
34.45
31.57
27.95
23.46
18.02
11.68
4.60
-2.94
-10.58
-17.99
-24.99
-31.60
-38.04
-44.75
-52.27
-61.08
-71.37
-82.79
-94.34
-104.40
-111.16
-113.03
-109.26
-100.13
-86.91
-71.40
-55.42
-40.31
-26.75
-14.88
-4.49
4.66
12.72
19.76
25.73
30.60
34.31
36.86
38.33
38.88
38.77
38.29
37.79
37.54
37.77
38.53
39.57
40.25
39.74
37.32
32.76
26.60
20.03
14.45
10.87
9.60
10.19
11.76
13.42
14.57
14.98
14.71
13.95
12.88
11.61
9.99
7.67
4.16
-0.74
-6.72
-12.74
-17.29
-18.96
-16.97
-11.48
-3.48
5.66
14.71
22.90
29.93
35.89
40.98
45.44
49.45
53.12
56.58
59.92
63.23
66.52
69.65
72.32
74.04
74.35
73.02
70.21
66.51
62.78
59.76
57.83
56.74
55.63
53.22
48.29
40.15
28.88
15.47
1.46
-11.54
-22.36
-30.58
-36.53
-40.98
-44.90
-49.26
-54.95
-62.62
-72.32
-83.15
-93.28
-100.36
-102.38
-98.53
-89.52
-77.13
-63.35
-49.58
-36.31
-23.36
-10.37
2.91
16.56
30.61
44.97
59.12
72.04
82.36
88.95
91.61
91.22
89.43
87.83
87.39
88.27
90.17
92.68
95.39
97.50
97.65
93.97
84.69
69.08
47.98
23.86
-0.01
-20.79
-37.10
-49.39
-59.50
-69.65
-81.39
-95.05
-109.79
-124.21
-136.88
-146.58
-152.37
-153.37
-148.91
-138.83
-123.83
-105.58
-86.26
-67.87
-51.62
-37.74
-25.80
-15.27
-5.80
2.66
10.15
16.78
22.81
28.34
33.16
36.69
38.13
36.78
32.39
25.34
16.56
7.32
-1.22
-8.30
-13.77
-18.02
-21.66
-25.12
-28.55
-31.73
-34.29
-36.03
-37.03
-37.61
-38.19
-39.11
-40.70
-43.30
-47.35
-53.13
-60.52
-68.65
-75.89
-80.32
-80.31
-75.21
-65.58
-52.93
-39.08
-25.57
-13.35
-2.85
5.80
12.56
17.58
21.32
24.63
28.42
33.26
38.99
44.69
49.12
51.30
50.99
48.82
45.86
43.11
41.06
39.60
38.23
36.39
33.68
29.95
25.21
19.55
13.11
6.10
-1.23
-8.62
-15.90
-23.11
-30.55
-38.63
-47.62
-57.37
-67.08
-75.31
-80.38
-80.82
-75.91
-65.92
-52.08
-36.11
-19.77
-4.33
9.58
21.82
32.46
41.61
49.19
55.13
59.36
61.99
63.26
63.47
62.90
61.80
60.34
58.76
57.32
56.25
55.59
55.16
54.53
53.09
50.33
45.92
39.84
32.45
24.31
16.01
7.97
0.30
-7.28
-15.35
-24.47
-34.92
-46.38
-57.74
-67.36
-73.41
-74.52
-70.18
-60.90
-48.03
-33.24
-18.08
-3.64
9.53
21.27
31.60
40.54
48.08
54.18
58.83
62.00
63.73
64.12
63.30
61.49
58.98
56.13
53.29
50.80
48.80
47.26
45.83
43.95
41.04
36.72
30.95
24.12
16.86
9.83
3.37
-2.54
-8.32
-14.59
-21.98
-30.84
-41.01
-51.73
-61.59
-68.88
-71.95
-69.76
-62.23
-50.25
-35.44
-19.60
-4.18
9.96
22.58
33.80
43.83
52.75
60.47
66.87
71.89
75.61
78.24
80.02
81.10
81.44
80.86
79.15
76.18
72.09
67.18
61.87
56.48
51.06
45.39
39.07
31.80
23.48
14.34
4.83
-4.57
-13.54
-22.04
-30.30
-38.72
-47.71
-57.52
-68.06
-78.70
-88.31
-95.37
-98.39
-96.42
-89.33
-77.97
-63.79
-48.38
-33.03
-18.50
-5.15
6.84
17.23
25.72
32.12
36.48
39.16
40.72
41.68
42.41
43.06
43.64
44.15
44.61
45.10
45.67
46.26
46.70
46.75
46.23
45.04
43.24
40.89
38.01
34.58
30.59
26.14
21.53
17.16
13.35
10.21
7.53
4.83
1.50
-3.08
-9.30
-17.13
-25.82
-33.91
-39.42
-40.45
-35.87
-25.79
-11.60
4.67
21.05
36.24
49.74
61.62
72.29
82.35
92.54
103.39
114.77
125.35
132.61
133.51
125.91
109.64
86.91
61.60
37.84
18.58
4.96
-3.52
-8.17
-10.46
-11.59
-12.74
-15.13
-20.04
-28.38
-40.22
-54.52
-69.28
-82.13
-91.09
-95.17
-94.62
-90.71
-85.24
-79.94
-75.96
-73.71
-72.96
-73.17
-73.83
-74.71
-75.82
-77.19
-78.47
-78.87
-77.28
-72.74
-64.77
-53.60
-39.87
-24.38
-7.99
8.17
22.38
32.38
35.95
31.93
20.96
5.55
-10.71
-24.53
-33.95
-38.61
-39.30
-37.09
-32.72
-26.59
-19.02
-10.66
-2.49
4.49
9.73
13.38
16.17
19.01
22.48
26.43
29.90
31.42
29.67
24.08
15.18
4.59
-5.61
-13.57
-18.40
-20.34
-20.59
-20.74
-22.13
-25.41
-30.32
-35.71
-39.84
-40.77
-36.93
-27.70
-13.74
2.96
19.47
32.77
40.52
41.81
37.17
28.33
17.54
6.84
-2.34
-9.39
-14.20
-16.98
-17.96
-17.29
-15.21
-12.06
-8.33
-4.52
-0.96
2.32
5.50
8.83
12.44
16.25
19.94
23.08
25.12
25.60
24.14
20.57
14.87
7.27
-1.92
-12.40
-23.88
-36.06
-48.70
-61.66
-75.14
-89.78
-106.54
-126.07
-147.82
-169.40
-186.80
-195.52
-192.34
-176.78
-151.49
-121.32
-91.53
-66.06
-46.63
-33.05
-24.20
-18.92
-16.47
-16.25
-17.29
-18.18
-17.31
-13.54
-6.77
2.14
11.71
20.56
28.00
34.10
39.44
44.60
49.68
54.25
57.55
58.82
57.82
54.91
50.98
47.11
44.18
42.53
41.83
41.29
39.94
37.06
32.32
25.81
17.88
8.89
-0.92
-11.54
-22.98
-35.25
-48.24
-61.53
-74.40
-85.68
-93.83
-97.27
-94.84
-86.34
-72.82
-56.34
-39.33
-23.86
-10.93
-0.48
8.25
16.13
23.64
30.74
37.14
42.51
46.81
50.16
52.70
54.42
55.12
54.61
52.93
50.39
47.53
44.90
42.78
41.07
39.43
37.40
34.66
31.18
27.17
23.03
19.17
15.83
13.04
10.55
7.96
4.92
1.28
-2.86
-7.09
-11.00
-14.31
-17.03
-19.50
-22.33
-26.19
-31.68
-38.98
-47.64
-56.47
-63.70
-67.35
-65.91
-58.80
-46.58
-30.78
-13.40
3.67
19.01
31.92
42.34
50.71
57.68
63.78
69.16
73.43
75.88
75.86
73.17
68.30
62.24
56.17
50.94
46.95
44.13
42.18
40.68
39.07
36.63
32.49
25.84
16.40
4.59
-8.44
-21.16
-32.21
-40.81
-46.89
-51.02
-54.00
-56.59
-59.19
-61.91
-64.69
-67.62
-70.99
-75.31
-80.94
-87.67
-94.44
-99.42
-100.45
-95.85
-84.99
-68.58
-48.40
-26.69
-5.53
13.67
30.20
43.93
55.04
63.84
70.81
76.51
81.55
86.28
90.63
94.00
95.53
94.52
90.91
85.46
79.53
74.53
71.37
70.19
70.39
71.09
71.61
71.70
71.42
70.90
70.04
68.41
65.39
60.39
53.16
43.86
33.09
21.68
10.43
-0.12
-9.88
-19.11
-28.40
-38.25
-48.80
-59.47
-68.92
-75.33
-77.00
-72.98
-63.52
-50.06
-34.81
-20.15
-7.98
0.69
5.79
8.07
8.66
8.51
7.98
6.61
3.26
-3.34
-13.86
-27.82
-43.52
-58.45
-70.13
-76.89
-78.26
-74.88
-68.04
-59.12
-49.23
-39.14
-29.34
-20.28
-12.43
-6.29
-2.19
-0.24
-0.19
-1.57
-3.89
-6.84
-10.37
-14.61
-19.76
-25.95
-33.16
-41.28
-50.28
-60.25
-71.26
-83.07
-94.83
-104.93
-111.31
-112.07
-106.16
-93.89
-76.90
-57.66
-38.67
-21.86
-8.25
1.98
9.18
13.88
16.66
18.10
18.78
19.25
19.90
20.96
22.45
24.24
26.20
28.17
30.08
31.88
33.60
35.31
37.12
39.11
41.18
43.08
44.32
44.37
42.82
39.63
35.10
29.76
24.21
18.82
13.65
8.44
2.77
-3.88
-11.96
-21.71
-32.94
-44.87
-55.95
-64.09
-67.15
-63.64
-53.33
-37.35
-17.88
2.63
22.24
39.92
55.56
69.49
82.03
93.16
102.52
109.71
114.59
117.44
118.88
119.56
119.90
119.92
119.30
117.66
114.90
111.28
107.41
103.89
101.09
99.09
97.70
96.64
95.46
93.44
89.50
82.35
70.95
54.95
35.04
12.74
-10.14
-32.16
-52.68
-71.79
-89.62
-105.67
-118.40
-125.67
-125.60
-117.72
-103.47
-85.91
-68.71
-54.74
-45.24
-39.67
-36.44
-34.00
-31.56
-29.21
-27.47
-26.58
-26.15
-25.28
-23.05
-19.01
-13.49
-7.46
-2.07
1.85
4.10
5.25
6.36
8.49
12.25
17.47
23.30
28.52
32.03
33.22
32.03
28.89
24.53
19.97
16.31
14.51
14.84
16.41
17.09
14.09
5.09
-10.49
-30.92
-52.57
-71.24
-83.68
-88.61
-86.79
-80.24
-71.15
-61.06
-50.60
-39.75
-28.24
-15.93
-3.01
10.11
23.01
35.43
47.29
58.60
69.23
78.89
87.08
93.30
97.24
98.99
99.05
98.27
97.70
98.34
100.95
105.91
113.09
121.80
130.83
138.59
143.35
143.53
137.97
126.20
108.58
86.40
61.52
36.12
12.09
-9.30
-27.46
-42.30
-53.79
-61.73
-65.76
-65.69
-61.82
-55.17
-47.27
-39.70
-33.61
-29.33
-26.55
-24.57
-22.88
-21.42
-20.72
-21.51
-24.25
-28.67
-33.70
-37.75
-39.41
-38.04
-34.13
-29.06
-24.54
-21.87
-21.55
-23.23
-26.05
-29.20
-32.26
-35.20
-38.27
-41.58
-45.06
-48.44
-51.55
-54.49
-57.63
-61.45
-66.23
-71.80
-77.68
-83.29
-88.35
-93.09
-98.13
-104.04
-110.85
-117.72
-122.96
-124.55
-120.83
-111.09
-95.96
-77.14
-56.83
-37.03
-19.02
-3.19
10.69
23.07
34.18
43.97
52.27
58.98
64.22
68.23
71.26
73.38
74.46
74.37
73.05
70.67
67.62
64.30
61.09
58.18
55.50
52.81
49.76
45.91
40.95
34.77
27.53
19.70
11.84
4.55
-1.85
-7.33
-12.24
-17.11
-22.62
-29.43
-37.89
-47.87
-58.45
-67.95
-74.27
-75.50
-70.64
-60.14
-45.78
-30.12
-15.62
-3.94
4.36
9.55
12.23
12.95
12.07
9.89
6.87
3.62
0.79
-1.19
-2.19
-2.38
-2.03
-1.28
-0.12
1.62
3.99
6.91
10.11
13.23
15.90
17.92
19.13
19.46
18.83
17.15
14.44
10.79
6.42
1.57
-3.53
-8.79
-14.22
-19.94
-26.12
-33.03
-40.96
-50.12
-60.46
-71.34
-81.49
-89.11
-92.40
-90.18
-82.38
-70.09
-55.22
-39.81
-25.40
-12.81
-2.11
6.99
14.89
21.78
27.72
32.68
36.62
39.53
41.49
42.64
43.20
43.45
43.69
44.18
45.08
46.41
48.09
49.97
51.88
53.60
54.98
55.92
56.39
56.42
56.04
55.21
53.83
51.74
48.86
45.28
41.24
37.09
33.11
29.34
25.50
21.05
15.33
7.84
-1.43
-11.90
-22.26
-30.77
-35.58
-35.42
-29.91
-19.80
-6.67
7.61
21.56
34.47
46.43
57.96
69.54
81.26
92.74
103.16
111.43
116.24
116.29
110.69
99.34
83.34
64.98
47.28
33.21
24.86
22.93
26.71
34.55
44.51
54.99
65.06
74.46
83.31
91.78
99.72
106.70
112.06
115.11
115.05
110.72
100.47
82.34
54.80
17.68
-27.22
-76.47
-125.92
-171.95
-212.06
-244.67
-268.30
-281.17
-281.49
-268.58
-243.91
-211.32
-176.03
-142.91
-114.87
-92.41
-74.15
-58.24
-43.44
-29.57
-17.18
-6.87
1.19
7.41
12.43
16.86
21.03
24.90
28.30
30.96
32.75
33.63
33.81
33.54
33.09
32.47
31.44
29.51
26.32
21.82
16.43
10.91
5.99
2.03
-1.11
-3.91
-6.95
-10.68
-15.43
-21.51
-29.31
-39.22
-51.27
-64.72
-77.96
-88.63
-94.28
-93.06
-84.45
-69.49
-50.43
-30.08
-10.91
5.55
18.91
29.61
38.41
45.84
52.03
56.78
59.86
61.29
61.41
60.75
59.80
58.87
58.05
57.37
56.84
56.54
56.49
56.53
56.29
55.23
52.92
49.12
43.96
37.71
30.61
22.68
13.80
3.97
-6.52
-16.87
-26.12
-33.48
-38.73
-42.32
-45.22
-48.48
-52.91
-58.82
-65.89
-73.26
-79.53
-83.03
-82.16
-75.82
-63.80
-46.88
-26.66
-5.11
15.95
35.09
51.41
64.40
73.74
79.25
80.84
78.58
72.87
64.51
54.78
45.26
37.53
32.71
31.10
32.13
34.50
36.74
37.62
36.38
32.77
26.75
18.31
7.44
-5.74
-20.80
-36.87
-52.77
-67.29
-79.53
-89.11
-96.16
-101.16
-104.69
-107.31
-109.57
-112.12
-115.62
-120.51
-126.52
-132.45
-136.21
-135.43
-128.38
-114.65
-95.45
-73.08
-50.21
-29.00
-10.63
4.69
17.32
27.85
36.68
44.04
50.01
54.63
57.92
59.93
60.72
60.31
58.78
56.18
52.67
48.45
43.87
39.25
34.91
31.07
27.77
24.91
22.27
19.60
16.65
13.21
9.21
4.63
-0.46
-5.87
-11.44
-17.05
-22.78
-28.87
-35.75
-43.83
-53.28
-63.72
-74.06
-82.57
-87.29
-86.49
-79.21
-65.52
-46.49
-23.87
0.31
24.15
46.06
64.78
79.42
89.31
94.20
94.22
90.00
82.58
73.26
63.40
54.18
46.43
40.54
36.59
34.40
33.83
34.81
37.46
41.93
48.23
56.04
64.66
73.17
80.64
86.39
90.16
92.06
92.35
91.38
89.26
85.80
80.47
72.49
60.96
45.10
24.57
-0.17
-27.42
-54.15
-76.33
-89.88
-91.79
-81.25
-60.01
-31.97
-2.09
24.99
45.92
59.16
64.76
63.81
57.89
48.58
37.28
25.03
12.50
0.07
-11.97
-23.31
-33.51
-42.07
-48.63
-53.09
-55.65
-56.71
-56.72
-56.00
-54.72
-52.93
-50.68
-48.01
-44.95
-41.47
-37.53
-33.21
-28.80
-24.87
-22.11
-21.01
-21.67
-23.79
-26.87
-30.61
-34.98
-40.24
-46.50
-53.32
-59.52
-63.28
-62.76
-56.63
-44.52
-27.18
-6.24
16.23
38.17
57.91
74.36
86.98
95.64
100.47
101.72
99.78
95.17
88.51
80.53
71.90
63.24
55.06
47.77
41.63
36.73
32.84
29.46
25.85
21.29
15.27
7.71
-1.08
-10.53
-19.97
-28.80
-36.54
-42.89
-47.74
-51.24
-53.79
-56.05
-58.82
-62.85
-68.61
-76.12
-84.68
-92.95
-99.16
-101.48
-98.61
-90.18
-76.96
-60.65
-43.41
-27.20
-13.30
-2.08
6.83
14.14
20.45
25.98
30.56
33.86
35.69
36.21
35.91
35.35
34.95
34.78
34.61
34.15
33.24
31.98
30.66
29.58
28.81
28.18
27.29
25.70
23.11
19.43
14.81
9.55
3.95
-1.73
-7.37
-13.03
-18.89
-25.19
-32.29
-40.42
-49.70
-59.90
-70.29
-79.61
-86.24
-88.61
-85.64
-77.16
-64.02
-47.87
-30.67
-14.12
0.69
13.40
24.13
33.19
40.74
46.70
50.87
53.06
53.32
51.98
49.54
46.60
43.61
40.83
38.26
35.82
33.39
30.99
28.69
26.59
24.72
22.94
21.00
18.59
15.56
11.92
7.88
3.76
-0.15
-3.79
-7.32
-11.03
-15.31
-20.46
-26.63
-33.85
-42.00
-50.80
-59.68
-67.69
-73.53
-75.75
-73.20
-65.47
-53.11
-37.49
-20.34
-3.19
12.95
27.73
41.15
53.33
64.22
73.66
81.46
87.59
92.16
95.28
96.90
96.71
94.28
89.31
81.97
72.96
63.36
54.31
46.57
40.26
34.92
29.70
23.75
16.55
8.01
-1.55
-11.55
-21.29
-30.12
-37.53
-43.28
-47.47
-50.59
-53.52
-57.14
-62.07
-68.33
-75.07
-80.81
-83.78
-82.54
-76.41
-65.72
-51.62
-35.73
-19.62
-4.54
8.76
19.95
28.97
35.86
40.70
43.54
44.49
43.75
41.57
38.29
34.28
29.87
25.29
20.69
16.09
11.49
6.89
2.39
-1.89
-5.77
-9.15
-12.09
-14.83
-17.70
-20.99
-24.78
-28.85
-32.77
-36.06
-38.45
-40.08
-41.46
-43.37
-46.60
-51.58
-58.15
-65.44
-71.98
-76.04
-76.09
-71.31
-61.77
-48.45
-32.87
-16.69
-1.27
12.48
24.16
33.77
41.49
47.57
52.23
55.62
57.86
59.11
59.57
59.53
59.23
58.79
58.20
57.37
56.24
54.93
53.71
52.81
52.28
51.84
51.00
49.28
46.44
42.58
38.06
33.32
28.71
24.39
20.30
16.27
11.97
7.07
1.23
-5.63
-13.18
-20.58
-26.57
-29.91
-29.79
-26.21
-19.93
-12.23
-4.38
2.69
8.65
13.53
17.49
20.63
22.93
24.34
24.91
24.84
24.35
23.58
22.46
20.86
18.65
15.90
12.90
10.04
7.68
5.94
4.65
3.36
1.53
-1.33
-5.43
-10.65
-16.59
-22.75
-28.71
-34.29
-39.63
-45.14
-51.34
-58.66
-67.29
-76.92
-86.70
-95.25
-100.91
-102.16
-98.07
-88.63
-74.77
-58.12
-40.53
-23.59
-8.33
4.88
16.21
26.03
34.76
42.62
49.68
55.82
60.87
64.57
66.62
66.75
64.82
60.97
55.75
49.96
44.52
40.10
36.89
34.57
32.49
29.98
26.65
22.46
17.61
12.39
7.02
1.60
-3.94
-9.80
-16.29
-23.77
-32.42
-42.04
-51.75
-60.15
-65.57
-66.70
-63.03
-55.06
-44.09
-31.74
-19.41
-7.98
2.18
11.01
18.51
24.66
29.35
32.49
34.17
34.61
34.10
32.97
31.41
29.49
27.23
24.69
22.02
19.50
17.35
15.63
14.17
12.56
10.35
7.15
2.78
-2.77
-9.33
-16.64
-24.36
-32.21
-40.02
-47.85
-55.97
-64.73
-74.31
-84.42
-94.15
-102.00
-106.32
-105.73
-99.59
-88.26
-72.94
-55.38
-37.33
-20.23
-4.98
8.06
18.85
27.54
34.35
39.53
43.39
46.25
48.46
50.23
51.64
52.62
52.97
52.58
51.49
49.89
48.13
46.52
45.21
44.12
42.93
41.22
38.56
34.76
29.87
24.18
18.16
12.26
6.64
1.18
-4.59
-11.29
-19.47
-29.21
-40.03
-50.81
-59.98
-65.86
-67.15
-63.26
-54.56
-42.30
-28.26
-14.31
-1.93
8.09
15.63
20.98
24.62
26.90
28.05
28.25
27.69
26.73
25.71
24.93
24.44
24.10
23.67
23.01
22.14
21.28
20.68
20.41
20.28
19.85
18.55
16.01
12.17
7.32
2.05
-3.03
-7.56
-11.49
-15.14
-19.05
-23.83
-29.95
-37.52
-46.15
-54.87
-62.21
-66.55
-66.55
-61.70
-52.42
-40.00
-26.14
-12.44
0.04
10.80
19.84
27.29
33.29
37.87
41.02
42.82
43.43
43.13
42.22
40.95
39.48
37.89
36.24
34.61
33.15
31.97
31.12
30.42
29.48
27.78
24.91
20.67
15.26
9.17
3.01
-2.72
-7.81
-12.37
-16.81
-21.74
-27.75
-35.21
-43.99
-53.31
-61.79
-67.74
-69.69
-66.84
-59.39
-48.42
-35.55
-22.39
-10.08
0.85
10.36
18.65
25.85
31.93
36.74
40.11
42.06
42.74
42.45
41.50
40.15
38.56
36.81
34.95
33.11
31.41
30.00
28.91
27.96
26.79
24.91
21.94
17.70
12.39
6.51
0.62
-4.82
-9.67
-14.12
-18.61
-23.63
-29.66
-36.95
-45.42
-54.51
-63.13
-69.76
-72.82
-71.21
-64.74
-54.23
-41.27
-27.68
-14.87
-3.55
6.21
14.75
22.37
29.18
35.07
39.80
43.19
45.21
46.01
45.83
44.99
43.78
42.44
41.07
39.65
38.12
36.45
34.68
32.93
31.30
29.77
28.11
25.94
22.90
18.78
13.70
8.02
2.19
-3.45
-8.83
-14.05
-19.34
-24.86
-30.74
-37.09
-44.04
-51.60
-59.37
-66.46
-71.50
-73.07
-70.20
-62.83
-51.88
-38.93
-25.64
-13.25
-2.38
6.91
14.88
21.79
27.78
32.89
37.06
40.22
42.39
43.57
43.90
43.55
42.73
41.67
40.52
39.40
38.32
37.27
36.19
35.04
33.72
32.14
30.14
27.58
24.36
20.45
15.92
10.92
5.66
0.33
-4.87
-9.81
-14.42
-18.73
-22.90
-27.21
-32.04
-37.73
-44.42
-51.88
-59.38
-65.81
-69.85
-70.36
-66.75
-59.17
-48.55
-36.31
-23.94
-12.60
-2.84
5.33
12.24
18.22
23.38
27.65
30.84
32.87
33.89
34.19
34.10
33.82
33.36
32.63
31.53
30.11
28.56
27.13
26.03
25.27
24.67
23.86
22.45
20.14
16.84
12.65
7.89
2.91
-1.96
-6.49
-10.64
-14.48
-18.19
-22.04
-26.34
-31.40
-37.46
-44.49
-52.01
-59.02
-64.14
-65.99
-63.68
-57.12
-47.13
-35.14
-22.79
-11.31
-1.36
7.01
14.10
20.26
25.61
30.10
33.53
35.75
36.75
36.72
35.94
34.78
33.55
32.46
31.66
31.18
31.03
31.09
31.20
31.10
30.59
29.53
27.88
25.71
23.11
20.14
16.80
13.03
8.83
4.29
-0.41
-5.05
-9.41
-13.40
-17.08
-20.67
-24.49
-28.89
-34.07
-39.94
-45.97
-51.23
-54.50
-54.60
-50.79
-42.96
-31.77
-18.40
-4.22
9.56
22.18
33.35
43.24
52.27
60.79
68.92
76.30
82.17
85.66
86.05
83.19
77.56
70.17
62.21
54.78
48.63
44.15
41.37
40.05
39.68
39.48
38.49
35.84
31.03
24.10
15.77
7.18
-0.35
-5.79
-8.64
-9.06
-7.78
-5.82
-4.27
-3.93
-5.30
-8.55
-13.64
-20.49
-29.05
-39.30
-51.07
-63.84
-76.55
-87.65
-95.44
-98.57
-96.51
-89.82
-79.88
-68.48
-57.22
-47.06
-38.38
-31.07
-24.87
-19.59
-15.12
-11.42
-8.40
-5.95
-3.98
-2.52
-1.61
-1.30
-1.54
-2.19
-3.04
-3.89
-4.62
-5.23
-5.78
-6.40
-7.16
-8.10
-9.25
-10.59
-12.14
-13.97
-16.14
-18.74
-21.83
-25.38
-29.32
-33.51
-37.75
-41.88
-45.81
-49.62
-53.57
-58.01
-63.28
-69.47
-76.24
-82.72
-87.63
-89.56
-87.43
-80.84
-70.27
-56.98
-42.57
-28.57
-15.97
-5.16
4.01
11.86
18.67
24.49
29.20
32.64
34.79
35.80
35.98
35.69
35.20
34.66
34.18
33.78
33.49
33.25
32.92
32.31
31.25
29.68
27.64
25.29
22.65
19.61
15.97
11.50
6.20
0.28
-5.80
-11.64
-16.96
-21.84
-26.61
-31.79
-37.89
-45.31
-54.11
-63.89
-73.70
-82.07
-87.31
-87.97
-83.27
-73.45
-59.68
-43.77
-27.53
-12.35
1.06
12.64
22.73
31.69
39.71
46.78
52.71
57.31
60.53
62.53
63.58
64.01
64.05
63.82
63.34
62.59
61.58
60.31
58.83
57.14
55.18
52.84
49.96
46.35
41.85
36.41
30.08
23.10
15.77
8.36
1.05
-6.19
-13.53
-21.22
-29.50
-38.60
-48.66
-59.76
-71.63
-83.60
-94.46
-102.61
-106.45
-104.81
-97.45
-85.09
-69.34
-52.17
-35.42
-20.27
-7.18
4.09
14.09
23.31
31.95
39.82
46.56
51.83
55.52
57.81
59.04
59.55
59.59
59.27
58.64
57.75
56.65
55.35
53.77
51.72
49.03
45.62
41.56
36.98
32.03
26.77
21.17
15.22
9.02
2.79
-3.19
-8.72
-13.82
-18.76
-24.01
-30.15
-37.64
-46.71
-57.08
-67.85
-77.47
-84.04
-85.81
-81.76
-71.94
-57.59
-40.65
-23.20
-6.83
7.64
20.15
30.95
40.34
48.36
54.83
59.46
62.10
62.81
61.92
59.86
57.06
53.82
50.28
46.51
42.52
38.36
34.08
29.72
25.27
20.69
15.91
10.88
5.55
-0.09
-6.05
-12.25
-18.56
-24.84
-30.94
-36.90
-42.93
-49.46
-56.98
-65.94
-76.51
-88.39
-100.75
-112.17
-120.90
-125.15
-123.65
-116.06
-103.10
-86.44
-68.14
-50.02
-33.21
-18.03
-4.22
8.62
20.64
31.63
41.15
48.80
54.46
58.33
60.79
62.24
62.95
63.07
62.71
62.02
61.20
60.40
59.69
58.94
57.93
56.38
54.05
50.84
46.72
41.81
36.24
30.16
23.70
17.00
10.26
3.65
-2.62
-8.52
-14.22
-20.21
-27.13
-35.47
-45.13
-55.10
-63.48
-67.98
-66.56
-58.25
-43.49
-23.99
-2.19
19.52
39.45
56.86
71.84
84.89
96.56
107.17
116.71
124.89
131.28
135.49
137.28
136.70
134.14
130.23
125.69
121.07
116.60
112.14
107.32
101.73
95.14
87.53
79.12
70.21
61.04
51.75
42.38
32.87
23.23
13.65
4.40
-4.15
-11.82
-18.72
-25.31
-32.32
-40.48
-50.29
-61.81
-74.57
-87.52
-99.11
-107.53
-111.11
-108.78
-100.44
-87.07
-70.47
-52.73
-35.69
-20.54
-7.74
2.75
11.23
17.97
23.15
26.84
29.03
29.79
29.24
27.59
25.13
22.16
18.93
15.63
12.40
9.33
6.50
3.93
1.58
-0.76
-3.41
-6.74
-11.08
-16.59
-23.25
-30.81
-38.87
-47.07
-55.13
-62.94
-70.55
-78.08
-85.69
-93.59
-102.04
-111.28
-121.37
-131.90
-141.78
-149.32
-152.61
-150.16
-141.43
-127.01
-108.35
-87.27
-65.38
-43.86
-23.47
-4.73
11.91
26.11
37.65
46.54
53.02
57.43
60.10
61.30
61.29
60.38
58.90
57.21
55.53
53.85
51.99
49.73
46.98
43.89
40.74
37.74
34.88
31.83
28.14
23.47
17.75
11.30
4.53
-2.17
-8.66
-15.00
-21.39
-28.03
-35.12
-42.83
-51.32
-60.59
-70.26
-79.43
-86.70
-90.57
-89.84
-84.10
-73.80
-60.15
-44.63
-28.68
-13.29
1.00
14.02
25.79
36.31
45.48
53.10
58.89
62.71
64.64
65.20
65.12
65.14
65.62
66.36
66.59
65.41
62.21
56.98
50.33
43.14
36.15
29.69
23.63
17.73
11.81
5.98
0.48
-4.50
-9.02
-13.29
-17.56
-21.92
-26.27
-30.36
-34.07
-37.51
-41.11
-45.50
-51.30
-58.78
-67.66
-76.91
-84.94
-89.89
-90.25
-85.30
-75.41
-61.91
-46.65
-31.37
-17.29
-4.92
5.81
15.24
23.71
31.41
38.36
44.47
49.57
53.48
56.12
57.48
57.71
57.08
56.01
54.91
54.03
53.51
53.22
52.86
52.10
50.63
48.35
45.29
41.65
37.65
33.46
29.12
24.58
19.72
14.46
8.81
2.94
-2.95
-8.65
-14.07
-19.30
-24.65
-30.55
-37.40
-45.39
-54.31
-63.36
-71.31
-76.70
-78.24
-75.25
-67.83
-56.85
-43.67
-29.75
-16.30
-4.09
6.48
15.40
22.81
28.93
33.99
38.14
41.42
43.78
45.21
45.79
45.72
45.29
44.77
44.29
43.80
43.19
42.32
41.20
39.86
38.41
36.82
34.95
32.55
29.40
25.40
20.62
15.27
9.58
3.81
-1.91
-7.47
-12.84
-18.03
-23.15
-28.47
-34.35
-41.13
-48.95
-57.47
-65.77
-72.46
-75.99
-75.14
-69.51
-59.63
-46.87
-32.93
-19.33
-7.09
3.43
12.35
20.02
26.71
32.52
37.38
41.13
43.68
45.04
45.36
44.92
44.06
43.09
42.24
41.60
41.13
40.72
40.23
39.48
38.35
36.74
34.56
31.75
28.29
24.20
19.53
14.37
8.82
3.01
-2.91
-8.77
-14.41
-19.73
-24.70
-29.46
-34.33
-39.73
-46.10
-53.61
-62.02
-70.49
-77.69
-82.10
-82.40
-78.01
-69.22
-57.21
-43.61
-30.01
-17.51
-6.57
2.88
11.14
18.52
25.09
30.83
35.67
39.57
42.59
44.75
46.09
46.58
46.25
45.22
43.76
42.24
40.98
40.13
39.57
38.97
37.91
36.06
33.32
29.84
25.92
21.88
17.95
14.13
10.30
6.28
1.95
-2.75
-7.72
-12.78
-17.77
-22.58
-27.27
-32.05
-37.27
-43.33
-50.47
-58.59
-67.06
-74.70
-80.04
-81.69
-78.84
-71.52
-60.67
-47.79
-34.45
-21.84
-10.52
-0.54
8.40
16.54
23.99
30.64
36.30
40.76
43.90
45.68
46.21
45.71
44.51
43.06
41.73
40.77
40.21
39.93
39.72
39.42
38.95
38.25
37.23
35.71
33.54
30.60
26.96
22.83
18.48
14.15
10.00
6.20
2.93
0.35
-1.59
-3.36
-5.89
-10.36
-17.80
-28.58
-42.09
-56.72
-70.24
-80.32
-85.17
-83.92
-76.74
-64.71
-49.46
-32.79
-16.25
-0.96
12.45
23.79
33.12
40.69
46.79
51.77
55.98
59.70
63.08
66.14
68.78
70.86
72.28
73.02
73.20
73.03
72.74
72.60
72.82
73.51
74.64
75.93
76.95
77.08
75.74
72.55
67.39
60.40
51.91
42.28
31.81
20.69
9.04
-3.11
-15.89
-29.51
-44.18
-59.76
-75.48
-89.78
-100.65
-106.29
-105.85
-99.86
-90.15
-79.12
-68.86
-60.51
-54.11
-48.95
-44.14
-39.10
-33.70
-28.09
-22.51
-17.11
-11.93
-7.03
-2.56
1.19
3.96
5.63
6.43
6.85
7.49
8.80
10.83
13.22
15.33
16.54
16.54
15.38
13.41
11.04
8.50
5.85
2.96
-0.29
-3.91
-7.78
-11.67
-15.35
-18.67
-21.60
-24.33
-27.18
-30.67
-35.35
-41.64
-49.57
-58.53
-67.22
-73.94
-77.08
-75.70
-69.90
-60.76
-49.89
-38.80
-28.44
-19.08
-10.58
-2.72
4.44
10.61
15.44
18.77
20.69
21.54
21.72
21.63
21.54
21.63
22.02
22.81
24.01
25.58
27.40
29.19
30.55
30.98
29.91
26.88
21.70
14.50
5.79
-3.64
-12.95
-21.33
-28.26
-33.53
-37.31
-40.08
-42.58
-45.59
-49.80
-55.56
-62.67
-70.32
-77.20
-81.80
-82.87
-79.84
-72.97
-63.36
-52.64
-42.43
-34.01
-28.06
-24.60
-23.21
-23.22
-23.99
-24.97
-25.80
-26.19
-25.92
-24.79
-22.67
-19.57
-15.73
-11.48
-7.26
-3.36
0.09
3.15
5.98
8.76
11.49
13.98
15.83
16.55
15.82
13.59
10.18
6.19
2.25
-1.24
-4.33
-7.38
-10.99
-15.61
-21.48
-28.47
-36.13
-43.71
-50.21
-54.45
-55.32
-52.08
-44.64
-33.65
-20.38
-6.30
7.35
19.85
31.06
41.14
50.34
58.73
66.24
72.73
78.15
82.58
86.08
88.64
90.15
90.47
89.70
88.34
87.21
87.19
88.74
91.62
94.86
97.07
96.95
93.74
87.56
79.37
70.80
63.72
59.62
58.85
59.99
59.70
53.39
36.68
7.16
-34.40
-83.84
-134.58
-179.54
-212.96
-231.66
-235.28
-225.85
-206.76
-181.91
-154.91
-128.58
-104.74
-84.15
-66.75
-52.03
-39.31
-28.08
-18.00
-8.90
-0.72
6.53
12.70
17.61
21.07
23.12
24.10
24.67
25.57
27.29
29.81
32.57
34.65
35.20
33.73
30.33
25.48
19.90
14.23
8.82
3.76
-1.17
-6.43
-12.56
-20.11
-29.35
-40.11
-51.61
-62.48
-71.00
-75.50
-74.87
-68.84
-58.14
-44.23
-28.82
-13.43
1.01
14.17
26.10
36.98
46.82
55.40
62.40
67.58
70.92
72.67
73.26
73.09
72.41
71.30
69.73
67.74
65.51
63.33
61.48
59.96
58.45
56.37
53.10
48.28
41.99
34.72
27.15
19.86
13.10
6.73
0.25
-6.96
-15.42
-25.33
-36.39
-47.68
-57.79
-64.99
-67.80
-65.30
-57.52
-45.40
-30.48
-14.49
1.19
15.64
28.44
39.53
48.92
56.60
62.54
66.78
69.41
70.68
70.88
70.32
69.23
67.75
65.94
63.80
61.37
58.74
56.07
53.51
51.13
48.81
46.19
42.82
38.25
32.29
25.14
17.30
9.43
2.04
-4.68
-10.96
-17.30
-24.36
-32.64
-42.28
-52.82
-63.22
-71.95
-77.32
-77.97
-73.28
-63.59
-50.14
-34.63
-18.81
-4.02
9.03
20.21
29.70
37.79
44.62
50.13
54.21
56.74
57.85
57.88
57.31
56.49
55.55
54.34
52.59
50.15
47.17
44.04
41.24
38.96
36.99
34.76
31.58
26.99
21.00
14.02
6.72
-0.31
-6.76
-12.62
-18.17
-23.79
-29.92
-36.91
-44.86
-53.48
-61.96
-68.98
-73.00
-72.72
-67.59
-57.93
-44.91
-30.05
-14.74
0.02
13.83
26.56
38.21
48.64
57.56
64.73
70.04
73.67
76.02
77.61
78.76
79.57
79.91
79.59
78.61
77.22
75.81
74.68
73.85
73.01
71.65
69.25
65.39
59.78
52.14
42.16
29.60
14.38
-3.25
-22.79
-43.68
-65.37
-87.27
-108.57
-127.99
-143.85
-154.38
-158.32
-155.38
-146.36
-132.91
-116.87
-99.85
-82.82
-66.22
-50.25
-35.14
-21.26
-9.06
1.09
9.14
15.26
19.84
23.25
25.76
27.51
28.56
28.98
28.93
28.64
28.32
28.07
27.81
27.27
26.10
23.97
20.79
16.74
12.19
7.60
3.27
-0.75
-4.68
-8.93
-13.94
-20.04
-27.26
-35.29
-43.42
-50.57
-55.51
-57.13
-54.82
-48.70
-39.59
-28.76
-17.53
-6.91
2.57
10.83
18.02
24.32
29.82
34.44
38.08
40.62
42.07
42.51
42.12
41.09
39.61
37.82
35.79
33.60
31.35
29.24
27.45
26.05
24.92
23.69
21.87
19.02
14.97
9.90
4.32
-1.18
-6.21
-10.67
-14.86
-19.25
-24.34
-30.46
-37.67
-45.63
-53.57
-60.38
-64.83
-65.89
-63.02
-56.42
-46.96
-35.93
-24.68
-14.20
-4.97
3.02
10.07
16.50
22.40
27.61
31.82
34.73
36.30
36.73
36.42
35.78
35.06
34.31
33.46
32.45
31.25
29.91
28.47
26.93
25.23
23.25
20.89
18.06
14.68
10.71
6.20
1.31
-3.68
-8.47
-12.84
-16.78
-20.47
-24.26
-28.53
-33.61
-39.61
-46.37
-53.39
-59.82
-64.63
-66.80
-65.64
-60.99
-53.30
-43.47
-32.69
-21.98
-12.08
-3.27
4.49
11.36
17.51
22.89
27.39
30.86
33.22
34.51
34.88
34.52
33.64
32.43
31.09
29.80
28.73
27.91
27.30
26.74
26.04
25.02
23.54
21.52
18.92
15.81
12.31
8.60
4.78
0.91
-3.06
-7.20
-11.47
-15.74
-19.80
-23.54
-27.07
-30.76
-35.12
-40.56
-47.14
-54.34
-61.15
-66.27
-68.44
-66.89
-61.52
-52.89
-42.14
-30.60
-19.49
-9.63
-1.38
5.34
10.91
15.71
19.98
23.70
26.71
28.77
29.77
29.88
29.42
28.80
28.30
27.98
27.70
27.23
26.37
25.11
23.55
21.87
20.19
18.54
16.81
14.85
12.47
9.59
6.16
2.24
-2.09
-6.65
-11.26
-15.71
-19.90
-23.83
-27.63
-31.57
-35.99
-41.14
-47.11
-53.55
-59.73
-64.54
-66.80
-65.65
-60.87
-52.92
-42.86
-31.97
-21.35
-11.73
-3.36
3.86
10.18
15.79
20.79
25.14
28.68
31.27
32.85
33.48
33.34
32.68
31.77
30.81
29.92
29.16
28.52
27.88
27.11
26.00
24.41
22.28
19.71
16.90
14.07
11.32
8.59
5.71
2.47
-1.27
-5.48
-9.99
-14.49
-18.79
-22.85
-26.84
-31.16
-36.29
-42.60
-50.08
-58.18
-65.81
-71.56
-74.04
-72.39
-66.54
-57.22
-45.75
-33.59
-21.94
-11.46
-2.31
5.76
13.08
19.87
26.19
31.90
36.84
40.86
43.86
45.88
47.04
47.50
47.54
47.44
47.51
47.95
48.74
49.62
50.18
50.06
49.11
47.46
45.40
43.22
40.97
38.47
35.42
31.59
26.93
21.66
16.06
10.37
4.65
-1.22
-7.42
-14.13
-21.44
-29.40
-37.92
-46.69
-55.09
-62.12
-66.61
-67.52
-64.34
-57.36
-47.65
-36.69
-25.93
-16.44
-8.63
-2.42
2.55
6.66
10.14
13.00
15.12
16.30
16.49
15.74
14.33
12.64
11.09
9.94
9.31
9.04
8.91
8.72
8.29
7.60
6.63
5.34
3.67
1.54
-1.12
-4.29
-7.93
-11.92
-16.15
-20.52
-24.94
-29.32
-33.60
-37.82
-42.13
-46.85
-52.34
-58.86
-66.35
-74.24
-81.40
-86.41
-87.88
-84.97
-77.65
-66.72
-53.56
-39.62
-26.08
-13.63
-2.51
7.26
15.70
22.77
28.43
32.70
35.75
37.82
39.18
40.02
40.48
40.64
40.53
40.19
39.66
39.00
38.26
37.52
36.84
36.21
35.46
34.34
32.50
29.65
25.68
20.68
15.00
9.10
3.38
-1.94
-6.96
-12.04
-17.71
-24.46
-32.55
-41.83
-51.68
-61.05
-68.68
-73.39
-74.37
-71.35
-64.69
-55.29
-44.32
-32.94
-22.15
-12.58
-4.56
1.97
7.25
11.64
15.48
18.97
22.19
25.13
27.81
30.31
32.73
35.15
37.53
39.70
41.42
42.50
42.89
42.68
42.00
40.94
39.37
37.04
33.65
29.03
23.23
16.56
9.47
2.41
-4.35
-10.78
-17.05
-23.48
-30.45
-38.30
-47.19
-56.94
-66.82
-75.58
-81.61
-83.44
-80.24
-72.11
-60.06
-45.71
-30.75
-16.45
-3.51
7.96
18.11
27.18
35.30
42.43
48.47
53.25
56.64
58.62
59.32
59.05
58.18
57.02
55.77
54.43
52.94
51.24
49.39
47.50
45.67
43.80
41.57
38.52
34.28
28.75
22.23
15.22
8.30
1.85
-4.12
-9.83
-15.64
-21.94
-29.00
-36.97
-45.89
-55.60
-65.50
-74.57
-81.36
-84.34
-82.41
-75.29
-63.68
-49.08
-33.28
-17.88
-3.91
8.27
18.80
28.00
36.15
43.38
49.66
54.85
58.83
61.52
62.90
63.06
62.20
60.65
58.80
57.00
55.44
54.11
52.79
51.24
49.29
46.88
44.06
40.89
37.30
33.16
28.32
22.76
16.60
10.10
3.52
-2.90
-9.12
-15.16
-21.15
-27.23
-33.62
-40.55
-48.26
-56.79
-65.78
-74.28
-80.87
-84.00
-82.48
-75.99
-65.26
-51.76
-37.28
-23.28
-10.55
0.79
10.97
20.29
28.82
36.40
42.76
47.73
51.22
53.33
54.21
54.06
53.15
51.78
50.26
48.84
47.65
46.66
45.72
44.61
43.15
41.19
38.65
35.50
31.73
27.36
22.44
17.05
11.29
5.30
-0.75
-6.71
-12.48
-18.04
-23.51
-29.17
-35.36
-42.39
-50.35
-58.91
-67.23
-74.03
-77.89
-77.60
-72.65
-63.40
-51.04
-37.22
-23.47
-10.92
0.01
9.41
17.69
25.16
31.94
37.86
42.63
46.00
47.92
48.51
48.09
47.00
45.54
43.99
42.53
41.29
40.34
39.61
38.94
38.07
36.72
34.72
32.04
28.73
24.83
20.38
15.43
10.06
4.49
-1.03
-6.26
-11.11
-15.65
-20.10
-24.69
-29.67
-35.22
-41.53
-48.65
-56.36
-63.95
-70.20
-73.63
-73.03
-67.92
-58.85
-47.19
-34.65
-22.66
-11.96
-2.64
5.65
13.23
20.17
26.32
31.43
35.38
38.20
40.05
41.03
41.20
40.61
39.39
37.86
36.46
35.49
35.05
34.90
34.60
33.71
32.02
29.56
26.54
23.21
19.74
16.13
12.35
8.33
4.07
-0.38
-4.96
-9.55
-14.09
-18.56
-23.00
-27.54
-32.38
-37.74
-43.82
-50.58
-57.63
-64.18
-69.09
-71.17
-69.59
-64.22
-55.71
-45.27
-34.24
-23.69
-14.14
-5.63
2.08
9.20
15.80
21.77
26.98
31.28
34.54
36.69
37.71
37.70
36.90
35.68
34.43
33.51
33.03
32.95
33.06
32.99
32.39
30.99
28.69
25.62
22.11
18.59
15.39
12.57
9.92
7.07
3.66
-0.45
-5.14
-10.10
-15.01
-19.70
-24.18
-28.66
-33.45
-38.90
-45.21
-52.34
-59.83
-66.78
-71.98
-74.18
-72.55
-66.95
-58.05
-47.10
-35.53
-24.54
-14.79
-6.45
0.71
7.03
12.79
18.12
22.95
27.15
30.50
32.82
34.04
34.21
33.52
32.32
30.92
29.61
28.51
27.65
26.97
26.38
25.72
24.80
23.45
21.49
18.94
15.97
12.87
9.85
6.96
4.04
0.84
-2.75
-6.67
-10.69
-14.54
-18.12
-21.59
-25.28
-29.56
-34.74
-40.90
-47.92
-55.26
-62.02
-67.02
-69.03
-67.14
-61.14
-51.69
-40.12
-28.00
-16.68
-6.92
1.14
7.78
13.41
18.30
22.50
25.93
28.47
30.11
30.90
30.98
30.46
29.49
28.26
27.02
26.06
25.56
25.50
25.69
25.80
25.56
24.78
23.39
21.37
18.65
15.13
10.83
5.92
0.74
-4.31
-8.94
-13.08
-16.88
-20.64
-24.65
-29.21
-34.57
-40.87
-48.12
-55.96
-63.64
-69.98
-73.68
-73.63
-69.34
-61.13
-50.05
-37.57
-25.13
-13.82
-4.19
3.78
10.43
16.17
21.36
26.09
30.25
33.58
35.87
37.03
37.19
36.70
35.93
35.21
34.72
34.42
34.23
34.01
33.65
33.08
32.14
30.69
28.58
25.72
22.17
18.07
13.59
8.87
3.99
-1.04
-6.22
-11.53
-16.87
-22.20
-27.44
-32.72
-38.25
-44.37
-51.36
-59.24
-67.58
-75.40
-81.36
-84.05
-82.45
-76.32
-66.26
-53.59
-39.87
-26.45
-14.21
-3.46
5.86
14.02
21.23
27.56
33.01
37.46
40.85
43.15
44.39
44.70
44.25
43.33
42.26
41.33
40.73
40.48
40.41
40.20
39.51
38.12
35.94
33.08
29.70
25.96
21.99
17.76
13.25
8.36
3.07
-2.61
-8.54
-14.47
-20.10
-25.21
-29.82
-34.32
-39.38
-45.70
-53.62
-62.76
-71.90
-79.26
-82.98
-81.80
-75.47
-64.77
-51.25
-36.66
-22.43
-9.44
2.03
12.13
21.17
29.43
37.05
44.05
50.27
55.53
59.61
62.40
64.00
64.72
65.02
65.41
66.21
67.49
69.05
70.55
71.66
72.15
71.92
70.90
69.09
66.49
63.19
59.38
55.26
51.00
46.60
41.98
36.97
31.48
25.39
18.36
9.71
-1.68
-17.01
-37.11
-61.77
-89.38
-117.02
-141.12
-158.41
-166.85
-166.13
-157.60
-143.71
-127.13
-110.12
-94.08
-79.49
-66.27
-54.02
-42.35
-31.09
-20.25
-10.03
-0.67
7.66
14.82
20.84
25.77
29.72
32.87
35.45
37.71
39.88
42.03
44.03
45.55
46.28
45.93
44.43
41.89
38.52
34.49
29.95
24.99
19.76
14.36
8.93
3.50
-1.97
-7.59
-13.55
-20.10
-27.52
-36.03
-45.59
-55.69
-65.20
-72.50
-75.90
-74.14
-66.91
-55.03
-40.09
-24.01
-8.43
5.66
17.92
28.39
37.26
44.60
50.36
54.44
56.88
57.86
57.77
57.02
56.00
54.94
53.84
52.61
51.15
49.46
47.64
45.85
44.15
42.45
40.50
38.03
34.78
30.67
25.74
20.12
14.03
7.68
1.35
-4.73
-10.40
-15.71
-20.96
-26.63
-33.21
-41.01
-49.90
-59.19
-67.70
-73.94
-76.44
-74.24
-67.15
-55.86
-41.83
-26.76
-12.18
0.97
12.38
22.19
30.61
37.68
43.18
46.84
48.58
48.70
47.83
46.71
45.87
45.43
45.10
44.50
43.30
41.50
39.40
37.36
35.64
34.15
32.51
30.18
26.70
21.89
15.95
9.41
2.91
-3.08
-8.37
-13.19
-18.06
-23.62
-30.37
-38.50
-47.68
-56.99
-65.06
-70.28
-71.29
-67.39
-58.82
-46.67
-32.54
-18.05
-4.42
7.73
18.32
27.51
35.50
42.35
47.99
52.34
55.40
57.36
58.57
59.41
60.14
60.85
61.39
61.63
61.52
61.25
61.10
61.28
61.68
61.89
61.29
59.34
55.89
51.18
45.73
39.97
34.14
28.08
21.43
13.70
4.36
-7.17
-21.34
-38.27
-57.41
-77.29
-95.74
-110.41
-119.51
-122.45
-119.95
-113.65
-105.41
-96.61
-87.85
-79.00
-69.68
-59.54
-48.64
-37.39
-26.35
-16.03
-6.72
1.55
8.88
15.34
20.92
25.55
29.18
31.87
33.82
35.29
36.56
37.77
38.87
39.58
39.48
38.12
35.26
30.95
25.64
19.99
14.66
10.01
6.03
2.32
-1.70
-6.58
-12.75
-20.41
-29.46
-39.33
-48.94
-56.76
-61.17
-61.04
-56.21
-47.67
-37.27
-27.04
-18.51
-12.29
-8.01
-4.77
-1.59
2.22
6.83
11.97
17.19
21.96
25.94
28.99
31.20
32.80
34.05
35.15
36.17
37.06
37.72
38.04
37.98
37.54
36.69
35.41
33.55
30.95
27.46
23.03
17.82
12.17
6.52
1.28
-3.35
-7.45
-11.34
-15.50
-20.37
-26.31
-33.40
-41.40
-49.64
-57.08
-62.46
-64.57
-62.67
-56.79
-47.74
-36.89
-25.70
-15.25
-6.04
2.02
9.24
15.91
22.03
27.39
31.70
34.79
36.70
37.66
37.95
37.81
37.38
36.70
35.79
34.67
33.44
32.17
30.94
29.80
28.72
27.59
26.19
24.24
21.46
17.70
13.00
7.67
2.18
-3.00
-7.58
-11.54
-15.13
-18.76
-22.83
-27.70
-33.58
-40.48
-48.02
-55.37
-61.24
-64.23
-63.27
-58.10
-49.38
-38.57
-27.31
-16.90
-7.95
-0.40
6.19
12.23
17.89
23.02
27.34
30.59
32.69
33.73
33.94
33.61
33.02
32.33
31.62
30.84
29.96
28.94
27.81
26.61
25.34
23.90
22.13
19.86
16.99
13.53
9.60
5.38
1.02
-3.35
-7.71
-12.02
-16.32
-20.63
-25.05
-29.73
-34.90
-40.74
-47.22
-53.98
-60.18
-64.66
-66.26
-64.19
-58.41
-49.63
-39.09
-28.14
-17.88
-8.93
-1.40
4.93
10.39
15.32
19.94
24.31
28.36
31.85
34.49
36.06
36.53
36.07
35.01
33.74
32.60
31.76
31.22
30.85
30.37
29.51
28.11
26.13
23.72
21.08
18.43
15.76
12.94
9.69
5.84
1.39
-3.39
-8.17
-12.67
-16.77
-20.59
-24.40
-28.55
-33.35
-38.95
-45.26
-51.79
-57.61
-61.51
-62.36
-59.44
-52.80
-43.27
-32.18
-20.94
-10.56
-1.51
6.17
12.70
18.30
23.13
27.28
30.86
33.91
36.49
38.54
40.01
40.85
41.15
41.07
40.80
40.40
39.81
38.91
37.68
36.20
34.64
32.99
30.89
27.71
22.78
15.74
6.77
-3.39
-13.71
-23.22
-31.31
-37.74
-42.53
-45.87
-47.95
-49.15
-50.01
-51.30
-53.74
-57.69
-62.81
-68.04
-71.74
-72.25
-68.48
-60.37
-48.88
-35.69
-22.56
-10.80
-0.92
7.20
14.07
20.21
25.88
31.11
35.73
39.51
42.28
43.97
44.60
44.27
43.17
41.47
39.38
37.07
34.72
32.45
30.37
28.41
26.35
23.87
20.62
16.46
11.49
6.15
1.00
-3.40
-6.67
-8.75
-9.88
-10.49
-11.10
-12.18
-14.06
-16.97
-21.01
-26.15
-32.19
-38.64
-44.65
-49.10
-50.87
-49.29
-44.34
-36.77
-27.75
-18.53
-9.95
-2.41
4.11
9.74
14.55
18.48
21.45
23.41
24.52
24.99
25.10
25.10
25.07
25.02
24.83
24.38
23.57
22.43
21.11
19.84
18.79
17.95
17.05
15.66
13.41
10.10
5.89
1.22
-3.43
-7.69
-11.54
-15.19
-19.02
-23.38
-28.54
-34.57
-41.35
-48.51
-55.36
-60.87
-63.88
-63.44
-59.15
-51.37
-41.17
-30.01
-19.23
-9.70
-1.64
5.11
10.88
15.88
20.05
23.21
25.29
26.39
26.85
27.05
27.22
27.35
27.25
26.72
25.71
24.42
23.17
22.19
21.51
20.84
19.73
17.77
14.70
10.58
5.68
0.39
-4.89
-9.87
-14.43
-18.64
-22.76
-27.23
-32.44
-38.67
-45.84
-53.43
-60.42
-65.55
-67.60
-65.78
-60.03
-50.98
-39.81
-27.84
-16.19
-5.55
3.83
11.98
18.99
24.89
29.63
33.13
35.40
36.63
37.10
37.09
36.79
36.27
35.48
34.45
33.22
31.98
30.90
30.02
29.20
28.17
26.56
24.07
20.56
16.06
10.78
5.09
-0.63
-6.04
-10.98
-15.54
-20.05
-24.94
-30.68
-37.54
-45.44
-53.81
-61.62
-67.58
-70.40
-69.22
-63.90
-55.09
-43.96
-31.86
-19.89
-8.69
1.48
10.61
18.69
25.62
31.26
35.55
38.61
40.67
42.05
42.97
43.47
43.44
42.73
41.30
39.34
37.17
35.14
33.48
32.20
31.04
29.63
27.56
24.56
20.55
15.63
10.11
4.38
-1.21
-6.43
-11.30
-16.02
-21.01
-26.69
-33.37
-41.11
-49.55
-57.84
-64.77
-68.99
-69.37
-65.41
-57.45
-46.56
-34.21
-21.82
-10.30
-0.03
9.11
17.37
24.87
31.48
36.95
40.99
43.52
44.66
44.76
44.16
43.21
42.09
40.89
39.62
38.28
36.88
35.46
34.08
32.75
31.41
29.87
27.83
24.95
20.97
15.86
9.88
3.46
-2.90
-8.84
-14.29
-19.46
-24.77
-30.67
-37.44
-45.05
-53.03
-60.54
-66.41
-69.47
-68.81
-64.10
-55.69
-44.56
-32.01
-19.33
-7.48
3.02
12.04
19.64
25.97
31.07
34.99
37.78
39.52
40.39
40.58
40.28
39.65
38.78
37.69
36.35
34.73
32.91
31.06
29.41
28.08
26.93
25.54
23.32
19.75
14.73
8.60
2.10
-4.01
-9.28
-13.76
-17.93
-22.48
-27.99
-34.74
-42.54
-50.80
-58.56
-64.63
-67.84
-67.28
-62.60
-54.14
-42.92
-30.34
-17.79
-6.28
3.75
12.37
19.86
26.39
31.94
36.31
39.33
41.08
41.86
42.09
42.05
41.78
41.08
39.76
37.80
35.46
33.18
31.39
30.27
29.64
29.01
27.77
25.44
21.84
17.16
11.84
6.40
1.20
-3.60
-8.13
-12.62
-17.34
-22.54
-28.47
-35.32
-43.14
-51.61
-59.87
-66.59
-70.26
-69.72
-64.59
-55.45
-43.69
-30.93
-18.58
-7.45
2.24
10.70
18.25
25.05
31.10
36.23
40.26
43.10
44.76
45.38
45.13
44.26
42.97
41.46
39.87
38.29
36.79
35.38
34.04
32.69
31.18
29.31
26.83
23.53
19.33
14.34
8.83
3.20
-2.18
-7.11
-11.62
-15.96
-20.53
-25.71
-31.74
-38.72
-46.44
-54.45
-61.98
-68.00
-71.38
-71.21
-67.07
-59.24
-48.67
-36.70
-24.63
-13.39
-3.35
5.53
13.51
20.78
27.28
32.85
37.26
40.38
42.24
43.05
43.09
42.64
41.89
40.98
39.99
38.98
37.96
36.89
35.63
34.06
32.09
29.77
27.18
24.42
21.48
18.19
14.37
9.92
4.93
-0.34
-5.59
-10.64
-15.42
-20.04
-24.67
-29.54
-34.89
-40.96
-47.80
-55.13
-62.19
-67.74
-70.43
-69.24
-63.89
-54.94
-43.61
-31.35
-19.38
-8.48
1.09
9.37
16.54
22.72
27.94
32.11
35.11
36.90
37.56
37.33
36.58
35.68
34.93
34.45
34.14
33.82
33.22
32.21
30.73
28.88
26.76
24.47
22.02
19.34
16.33
12.88
8.94
4.57
-0.10
-4.86
-9.54
-14.01
-18.27
-22.49
-26.90
-31.83
-37.52
-44.06
-51.23
-58.42
-64.62
-68.60
-69.21
-65.75
-58.30
-47.72
-35.44
-22.95
-11.40
-1.33
7.23
14.48
20.66
25.81
29.88
32.88
34.88
36.05
36.60
36.68
36.39
35.81
35.06
34.27
33.57
32.98
32.52
32.08
31.58
30.93
30.01
28.72
26.93
24.59
21.72
18.43
14.91
11.33
7.77
4.22
0.56
-3.35
-7.57
-12.13
-17.01
-22.17
-27.64
-33.31
-38.86
-43.66
-46.82
-47.51
-45.16
-39.70
-31.53
-21.34
-9.90
1.94
13.19
22.69
29.18
31.71
29.95
24.45
16.48
7.56
-1.00
-8.45
-14.61
-19.57
-23.42
-26.02
-27.13
-26.56
-24.39
-20.99
-16.97
-12.89
-9.18
-6.02
-3.45
-1.47
-0.14
0.38
-0.04
-1.46
-3.73
-6.57
-9.61
-12.56
-15.33
-18.02
-20.91
-24.40
-28.86
-34.52
-41.29
-48.67
-55.72
-61.18
-63.82
-62.69
-57.57
-48.95
-37.95
-25.93
-14.11
-3.28
6.22
14.35
21.19
26.78
31.11
34.17
36.05
36.95
37.14
36.93
36.55
36.10
35.64
35.15
34.60
33.97
33.23
32.34
31.25
29.86
28.05
25.70
22.72
19.08
14.84
10.16
5.24
0.27
-4.58
-9.24
-13.73
-18.17
-22.82
-27.96
-33.85
-40.60
-48.03
-55.53
-62.12
-66.57
-67.76
-64.99
-58.28
-48.37
-36.52
-24.17
-12.50
-2.17
6.65
14.15
20.59
26.08
30.53
33.77
35.74
36.61
36.71
36.47
36.14
35.75
35.15
34.16
32.74
31.06
29.44
28.19
27.40
26.85
26.09
24.58
21.91
17.93
12.85
7.07
1.12
-4.63
-9.95
-14.92
-19.77
-24.87
-30.60
-37.25
-44.91
-53.23
-61.45
-68.34
-72.53
-72.86
-68.82
-60.71
-49.55
-36.74
-23.63
-11.24
-0.10
9.58
17.84
24.76
30.38
34.72
37.82
39.74
40.69
40.96
40.83
40.51
40.01
39.26
38.12
36.61
34.91
33.32
32.03
31.01
29.96
28.41
25.93
22.30
17.58
12.05
6.05
-0.00
-5.87
-11.42
-16.67
-21.85
-27.31
-33.46
-40.61
-48.81
-57.56
-65.91
-72.47
-75.87
-75.08
-69.83
-60.63
-48.65
-35.30
-21.87
-9.30
1.93
11.68
20.03
27.10
32.99
37.74
41.34
43.83
45.27
45.87
45.87
45.47
44.76
43.70
42.26
40.52
38.75
37.30
36.40
35.96
35.48
34.30
31.80
27.73
22.25
15.88
9.26
2.91
-2.87
-8.13
-13.07
-18.08
-23.60
-30.05
-37.75
-46.69
-56.37
-65.76
-73.37
-77.63
-77.37
-72.20
-62.65
-50.04
-36.02
-22.06
-9.12
2.44
12.63
21.66
29.63
36.49
42.11
46.35
49.16
50.67
51.16
50.99
50.50
49.87
49.12
48.10
46.68
44.78
42.54
40.22
38.06
36.14
34.23
31.92
28.74
24.40
18.92
12.63
6.07
-0.24
-5.95
-11.06
-15.79
-20.62
-26.08
-32.61
-40.36
-49.10
-58.05
-65.96
-71.38
-72.95
-69.90
-62.30
-51.09
-37.81
-24.10
-11.29
-0.05
9.54
17.76
24.94
31.19
36.42
40.42
43.08
44.48
44.94
44.80
44.38
43.81
43.07
42.09
40.82
39.31
37.71
36.18
34.84
33.61
32.21
30.24
27.27
23.09
17.79
11.79
5.69
0.03
-4.95
-9.40
-13.71
-18.44
-24.02
-30.69
-38.40
-46.71
-54.83
-61.61
-65.76
-66.17
-62.30
-54.40
-43.47
-30.96
-18.30
-6.57
3.75
12.67
20.44
27.29
33.31
38.38
42.30
44.96
46.38
46.79
46.54
46.00
45.40
44.81
44.19
43.36
42.22
40.67
38.69
36.29
33.49
30.31
26.81
22.99
18.79
14.14
8.88
2.91
-3.75
-10.95
-18.37
-25.57
-32.08
-37.60
-42.05
-45.67
-48.88
-52.04
-55.21
-58.00
-59.60
-59.02
-55.41
-48.31
-37.79
-24.50
-9.53
5.73
19.87
31.73
40.69
46.78
50.53
52.68
53.84
54.35
54.25
53.55
52.40
51.15
50.14
49.50
49.04
48.27
46.73
44.20
40.86
37.17
33.61
30.39
27.32
23.92
19.75
14.62
8.70
2.54
-3.20
-7.90
-11.20
-13.03
-13.66
-13.62
-13.58
-14.21
-15.91
-18.67
-21.92
-24.69
-25.81
-24.37
-19.96
-12.89
-4.06
5.31
14.04
21.30
26.71
30.38
32.63
33.78
33.90
32.81
30.17
25.71
19.49
12.09
4.44
-2.40
-7.74
-11.49
-14.23
-16.93
-20.49
-25.35
-31.35
-37.86
-44.11
-49.49
-53.74
-56.89
-59.02
-60.16
-60.12
-58.72
-55.84
-51.58
-46.25
-40.30
-34.26
-28.65
-24.12
-21.39
-20.99
-23.08
-27.13
-31.95
-36.11
-38.44
-38.53
-36.81
-34.23
-31.69
-29.62
-27.79
-25.61
-22.51
-18.29
-13.17
-7.66
-2.28
2.60
6.82
10.37
13.25
15.43
16.84
17.51
17.49
16.98
16.22
15.47
14.93
14.70
14.73
14.79
14.49
13.40
11.23
7.93
3.71
-0.93
-5.52
-9.67
-13.28
-16.59
-20.01
-24.08
-29.25
-35.69
-43.15
-50.88
-57.76
-62.53
-64.15
-62.15
-56.68
-48.49
-38.64
-28.19
-17.99
-8.56
-0.15
7.14
13.23
18.08
21.65
24.01
25.39
26.07
26.38
26.52
26.51
26.21
25.50
24.38
23.05
21.78
20.80
20.14
19.57
18.73
17.28
15.02
11.93
8.15
3.91
-0.50
-4.80
-8.79
-12.47
-16.04
-19.94
-24.65
-30.54
-37.59
-45.27
-52.55
-58.14
-60.79
-59.73
-54.96
-47.19
-37.62
-27.54
-17.94
-9.27
-1.57
5.33
11.59
17.23
22.13
26.10
29.04
30.96
32.00
32.41
32.46
32.36
32.17
31.89
31.42
30.74
29.92
29.10
28.32
27.46
26.22
24.22
21.20
17.16
12.35
7.21
2.21
-2.35
-6.41
-10.18
-14.10
-18.71
-24.47
-31.49
-39.40
-47.26
-53.70
-57.34
-57.17
-52.89
-45.09
-34.97
-23.93
-13.14
-3.25
5.55
13.35
20.21
26.02
30.55
33.66
35.43
36.21
36.48
36.60
36.68
36.57
36.01
34.83
33.15
31.28
29.67
28.57
27.98
27.56
26.74
24.99
21.94
17.60
12.27
6.48
0.76
-4.50
-9.23
-13.63
-18.12
-23.17
-29.16
-36.13
-43.68
-50.98
-56.80
-59.85
-59.14
-54.38
-46.07
-35.40
-23.86
-12.73
-2.73
5.98
13.59
20.30
26.15
30.98
34.69
37.37
39.36
41.08
42.83
44.60
46.13
47.04
47.09
46.33
44.99
43.44
41.95
40.54
38.98
36.93
34.00
29.95
24.81
18.84
12.49
6.23
0.46
-4.67
-9.20
-13.42
-17.78
-22.79
-28.82
-35.91
-43.54
-50.68
-55.91
-57.92
-55.94
-50.04
-41.11
-30.53
-19.68
-9.51
-0.45
7.53
14.61
20.86
26.19
30.41
33.33
34.98
35.54
35.31
34.66
33.84
33.03
32.26
31.53
30.79
30.08
29.44
28.95
28.60
28.24
27.54
26.10
23.59
19.91
15.24
10.02
4.77
-0.09
-4.37
-8.16
-11.77
-15.58
-19.95
-25.02
-30.65
-36.33
-41.33
-44.81
-46.11
-44.94
-41.44
-36.19
-29.92
-23.33
-16.87
-10.76
-4.97
0.56
5.83
10.66
14.79
17.97
20.11
21.32
21.89
22.08
22.06
21.78
21.16
20.18
19.00
17.88
17.06
16.58
16.22
15.61
14.41
12.44
9.75
6.51
2.90
-0.92
-4.83
-8.75
-12.64
-16.56
-20.77
-25.55
-31.08
-37.18
-43.14
-47.84
-50.09
-48.99
-44.33
-36.70
-27.24
-17.27
-7.88
0.32
7.18
12.84
17.51
21.29
24.16
26.03
26.85
26.72
25.84
24.48
22.89
21.26
19.67
18.20
16.92
15.93
15.30
14.99
14.83
14.49
13.62
11.91
9.21
5.58
1.27
-3.33
-7.84
-12.04
-15.92
-19.78
-24.11
-29.37
-35.66
-42.54
-49.01
-53.73
-55.49
-53.53
-47.93
-39.47
-29.42
-19.09
-9.54
-1.29
5.53
11.03
15.41
18.79
21.22
22.79
23.61
23.87
23.69
23.20
22.41
21.33
19.96
18.33
16.53
14.69
12.95
11.45
10.23
9.13
7.83
6.00
3.43
0.23
-3.16
-6.22
-8.62
-10.37
-11.97
-14.09
-17.38
-22.13
-28.23
-35.15
-41.95
-47.54
-50.82
-50.92
-47.52
-40.95
-32.13
-22.28
-12.60
-3.89
3.49
9.57
14.55
18.57
21.69
23.88
25.18
25.69
25.62
25.16
24.46
23.54
22.40
21.10
19.77
18.63
17.84
17.40
17.09
16.56
15.40
13.35
10.39
6.66
2.50
-1.76
-5.87
-9.73
-13.36
-16.97
-20.86
-25.41
-30.88
-37.24
-44.03
-50.36
-55.10
-57.13
-55.73
-50.84
-43.02
-33.35
-23.01
-13.00
-3.95
3.94
10.73
16.51
21.29
24.97
27.41
28.64
28.85
28.43
27.82
27.33
27.02
26.75
26.28
25.49
24.41
23.22
22.14
21.20
20.28
19.06
17.20
14.49
10.93
6.68
2.05
-2.66
-7.21
-11.49
-15.52
-19.51
-23.80
-28.82
-34.81
-41.64
-48.63
-54.55
-58.02
-57.91
-53.82
-46.17
-36.10
-25.04
-14.22
-4.43
4.03
11.23
17.32
22.43
26.60
29.83
32.14
33.55
34.13
34.02
33.42
32.52
31.54
30.58
29.65
28.72
27.73
26.66
25.55
24.33
22.89
20.97
18.33
14.82
10.54
5.81
1.09
-3.22
-6.95
-10.29
-13.68
-17.68
-22.77
-29.16
-36.68
-44.71
-52.28
-58.18
-61.29
-60.81
-56.54
-48.93
-38.97
-27.89
-16.82
-6.59
2.36
9.96
16.27
21.42
25.47
28.51
30.62
31.95
32.69
33.08
33.31
33.45
33.49
33.31
32.82
32.02
31.04
30.10
29.30
28.52
27.39
25.39
22.14
17.54
11.95
5.99
0.32
-4.69
-9.07
-13.22
-17.76
-23.26
-30.08
-38.16
-46.96
-55.41
-62.10
-65.59
-64.87
-59.73
-50.88
-39.68
-27.69
-16.11
-5.63
3.59
11.65
18.64
24.57
29.34
32.87
35.18
36.35
36.57
36.08
35.18
34.15
33.17
32.31
31.48
30.56
29.50
28.36
27.25
26.19
24.97
23.24
20.61
16.91
12.28
7.14
1.98
-2.88
-7.39
-11.84
-16.60
-22.11
-28.66
-36.34
-44.93
-53.75
-61.66
-67.24
-69.11
-66.47
-59.46
-49.16
-37.17
-25.09
-13.92
-4.01
4.84
12.94
20.40
27.04
32.52
36.51
38.94
39.99
40.04
39.55
38.93
38.44
38.09
37.76
37.27
36.50
35.54
34.55
33.71
32.98
32.07
30.49
27.79
23.84
18.79
13.14
7.42
2.00
-3.07
-7.96
-12.97
-18.38
-24.41
-31.24
-38.95
-47.41
-56.09
-63.97
-69.64
-71.70
-69.27
-62.33
-51.85
-39.34
-26.49
-14.57
-4.19
4.66
12.37
19.33
25.76
31.61
36.60
40.46
43.02
44.32
44.60
44.19
43.42
42.51
41.54
40.52
39.44
38.27
37.03
35.70
34.18
32.32
29.90
26.72
22.71
17.97
12.76
7.38
2.08
-3.06
-8.09
-13.14
-18.28
-23.58
-29.08
-34.90
-41.22
-48.09
-55.28
-62.09
-67.38
-69.93
-68.72
-63.41
-54.46
-42.98
-30.40
-18.01
-6.67
3.27
11.88
19.33
25.76
31.17
35.49
38.70
40.90
42.31
43.22
43.81
44.20
44.40
44.41
44.27
44.06
43.81
43.49
42.93
41.89
40.17
37.66
34.45
30.75
26.77
22.63
18.35
13.84
9.02
3.95
-1.30
-6.55
-11.69
-16.68
-21.59
-26.57
-31.87
-37.73
-44.36
-51.68
-59.21
-65.95
-70.63
-71.99
-69.26
-62.50
-52.58
-40.87
-28.77
-17.34
-7.11
1.83
9.62
16.38
22.13
26.83
30.40
32.82
34.20
34.75
34.74
34.49
34.18
33.90
33.57
33.01
32.09
30.78
29.22
27.64
26.23
24.97
23.66
21.91
19.36
15.80
11.31
6.18
0.83
-4.37
-9.19
-13.59
-17.68
-21.67
-25.80
-30.36
-35.57
-41.54
-48.05
-54.45
-59.67
-62.47
-61.82
-57.25
-49.11
-38.42
-26.59
-15.00
-4.59
4.24
11.57
17.68
22.83
27.12
30.49
32.83
34.12
34.52
34.39
34.05
33.76
33.58
33.40
33.00
32.23
31.06
29.60
28.00
26.43
24.94
23.46
21.78
19.65
16.86
13.26
8.88
3.84
-1.60
-7.16
-12.54
-17.51
-21.90
-25.74
-29.24
-32.88
-37.22
-42.67
-49.20
-56.12
-62.17
-65.81
-65.84
-61.73
-53.92
-43.58
-32.23
-21.22
-11.36
-2.90
4.35
10.71
16.42
21.53
25.92
29.41
31.86
33.24
33.70
33.50
32.96
32.37
31.90
31.53
31.15
30.58
29.71
28.53
27.06
25.35
23.34
20.94
18.10
14.82
11.22
7.42
3.53
-0.44
-4.49
-8.62
-12.69
-16.55
-20.10
-23.40
-26.80
-30.77
-35.76
-41.88
-48.67
-55.18
-60.10
-62.22
-60.78
-55.69
-47.54
-37.41
-26.54
-16.01
-6.51
1.67
8.58
14.46
19.49
23.74
27.08
29.35
30.46
30.48
29.72
28.63
27.61
26.93
26.62
26.56
26.55
26.44
26.16
25.70
25.02
24.01
22.49
20.34
17.50
14.12
10.40
6.52
2.59
-1.38
-5.41
-9.43
-13.34
-17.03
-20.55
-24.11
-28.08
-32.85
-38.65
-45.32
-52.25
-58.37
-62.36
-63.06
-59.87
-52.97
-43.40
-32.64
-22.15
-12.86
-5.05
1.48
7.15
12.23
16.75
20.59
23.57
25.67
26.95
27.58
27.69
27.41
26.82
26.08
25.35
24.77
24.44
24.29
24.22
24.04
23.60
22.75
21.31
19.15
16.15
12.35
7.95
3.26
-1.40
-5.79
-9.91
-13.89
-18.00
-22.52
-27.72
-33.71
-40.43
-47.46
-54.01
-59.03
-61.44
-60.45
-55.95
-48.50
-39.17
-29.15
-19.45
-10.55
-2.50
4.85
11.66
17.89
23.26
27.44
30.17
31.45
31.57
31.03
30.36
29.98
30.07
30.53
31.07
31.32
31.02
30.11
28.72
27.09
25.44
23.76
21.84
19.37
16.10
11.99
7.26
2.26
-2.69
-7.45
-12.05
-16.61
-21.28
-26.15
-31.34
-37.06
-43.41
-50.25
-56.96
-62.48
-65.54
-65.10
-60.76
-52.97
-42.82
-31.71
-20.85
-11.03
-2.48
4.90
11.38
17.14
22.23
26.52
29.91
32.35
33.93
34.94
35.67
36.33
36.92
37.28
37.22
36.62
35.56
34.28
33.03
31.89
30.76
29.29
27.10
23.89
19.65
14.62
9.26
3.97
-1.00
-5.59
-9.97
-14.38
-19.09
-24.26
-30.04
-36.47
-43.42
-50.46
-56.77
-61.28
-62.96
-61.13
-55.73
-47.40
-37.19
-26.26
-15.57
-5.67
3.27
11.31
18.56
25.01
30.56
35.08
38.51
40.87
42.34
43.10
43.30
42.95
41.99
40.35
38.04
35.13
31.75
28.06
24.23
20.47
16.92
13.73
10.86
8.19
5.53
2.72
-0.24
-3.25
-6.22
-9.15
-12.21
-15.69
-19.91
-25.10
-31.36
-38.54
-46.21
-53.63
-59.75
-63.44
-63.80
-60.41
-53.53
-44.02
-33.09
-21.91
-11.38
-1.98
6.16
13.12
19.03
23.97
27.97
31.00
33.06
34.22
34.65
34.56
34.18
33.62
32.90
32.01
31.00
30.00
29.19
28.68
28.44
28.20
27.53
26.02
23.38
19.56
14.79
9.51
4.18
-0.77
-5.22
-9.29
-13.33
-17.86
-23.29
-29.87
-37.44
-45.39
-52.71
-58.16
-60.52
-59.07
-53.72
-45.18
-34.72
-23.75
-13.39
-4.20
3.84
11.04
17.72
23.94
29.44
33.81
36.72
38.14
38.35
37.81
36.97
36.09
35.25
34.34
33.28
32.05
30.74
29.46
28.26
27.11
25.86
24.28
22.14
19.24
15.55
11.26
6.69
2.20
-1.97
-5.84
-9.65
-13.80
-18.61
-24.30
-30.88
-38.22
-45.98
-53.49
-59.78
-63.65
-64.10
-60.67
-53.76
-44.46
-34.20
-24.21
-15.15
-7.09
0.22
7.09
13.61
19.65
24.93
29.15
32.13
33.84
34.48
34.42
34.13
33.98
34.11
34.38
34.45
34.00
32.89
31.19
29.13
26.96
24.76
22.49
19.96
16.98
13.43
9.30
4.79
0.13
-4.41
-8.74
-12.89
-17.05
-21.46
-26.32
-31.76
-37.80
-44.27
-50.76
-56.53
-60.58
-61.89
-59.75
-54.05
-45.40
-34.90
-23.84
-13.24
-3.65
4.86
12.47
19.39
25.60
30.90
34.95
37.51
38.60
38.55
37.87
37.08
36.52
36.23
36.06
35.78
35.26
34.51
33.60
32.56
31.30
29.67
27.50
24.74
21.42
17.66
13.54
9.13
4.48
-0.27
-4.95
-9.37
-13.45
-17.28
-21.13
-25.33
-30.24
-36.04
-42.64
-49.56
-55.89
-60.46
-62.16
-60.24
-54.69
-46.14
-35.73
-24.71
-14.06
-4.38
4.11
11.37
17.44
22.33
26.05
28.64
30.26
31.13
31.51
31.64
31.64
31.57
31.37
30.96
30.30
29.39
28.26
26.94
25.47
23.89
22.24
20.52
18.67
16.46
13.61
9.96
5.54
0.67
-4.23
-8.78
-12.87
-16.65
-20.43
-24.53
-29.19
-34.50
-40.40
-46.60
-52.46
-57.03
-59.25
-58.20
-53.56
-45.70
-35.70
-24.88
-14.42
-5.06
3.00
9.91
15.89
21.06
25.32
28.53
30.61
31.68
32.03
32.00
31.86
31.69
31.40
30.85
29.92
28.66
27.19
25.68
24.21
22.73
21.11
19.15
16.72
13.77
10.34
6.55
2.53
-1.60
-5.78
-9.97
-14.14
-18.34
-22.63
-27.21
-32.31
-38.16
-44.78
-51.80
-58.37
-63.35
-65.60
-64.41
-59.74
-52.23
-42.98
-33.17
-23.71
-15.11
-7.49
-0.73
5.29
10.54
14.83
17.91
19.53
19.63
18.33
16.01
13.26
10.73
9.06
8.67
9.72
12.03
15.19
18.64
21.81
24.28
25.81
26.35
26.01
24.88
23.04
20.51
17.30
13.54
9.46
5.38
1.50
-2.15
-5.82
-9.94
-14.93
-21.01
-28.01
-35.33
-42.10
-47.28
-49.98
-49.65
-46.23
-40.14
-32.17
-23.25
-14.13
-5.33
2.88
10.39
17.04
22.64
26.91
29.63
30.75
30.45
29.10
27.21
25.35
23.96
23.32
23.45
24.14
25.04
25.80
26.23
26.29
26.12
25.83
25.43
24.74
23.43
21.22
18.02
14.08
9.86
5.93
2.64
0.01
-2.30
-4.76
-7.76
-11.45
-15.67
-19.99
-23.80
-26.38
-27.09
-25.44
-21.33
-15.08
-7.42
0.68
8.36
15.00
20.39
24.58
27.73
29.93
31.18
31.43
30.75
29.32
27.47
25.51
23.66
21.97
20.39
18.84
17.29
15.79
14.42
13.24
12.23
11.30
10.23
8.81
6.81
4.10
0.66
-3.31
-7.40
-11.11
-14.06
-16.15
-17.68
-19.26
-21.63
-25.30
-30.32
-36.21
-41.96
-46.29
-47.99
-46.30
-41.02
-32.65
-22.08
-10.30
1.92
14.20
26.51
38.84
50.97
62.35
72.26
80.15
86.08
90.75
95.35
101.04
108.38
117.09
126.18
134.38
140.68
144.68
146.66
147.58
148.93
152.47
159.59
170.44
183.05
193.15
195.16
183.97
157.06
115.71
64.64
10.28
-41.43
-86.72
-124.37
-154.92
-179.43
-198.61
-212.62
-221.41
-225.25
-224.94
-221.73
-217.03
-212.08
-207.65
-203.93
-200.55
-196.76
-191.70
-184.73
-175.70
-165.02
-153.44
-141.71
-130.30
-119.27
-108.37
-97.27
-85.80
-74.07
-62.33
-50.84
-39.68
-28.74
-17.85
-6.97
3.65
13.55
22.15
29.00
33.86
36.83
38.13
38.08
36.85
34.55
31.22
26.93
21.84
16.20
10.25
4.03
-2.55
-9.79
-17.96
-27.06
-36.67
-45.92
-53.55
-58.37
-59.60
-57.16
-51.80
-44.88
-37.97
-32.35
-28.47
-25.81
-23.10
-18.88
-12.21
-3.20
6.94
16.43
23.70
28.02
29.74
29.92
29.74
29.89
30.49
31.27
31.98
32.69
33.76
35.47
37.75
40.06
41.55
41.46
39.52
36.07
31.90
27.89
24.65
22.30
20.51
18.67
16.07
12.07
6.24
-1.55
-10.93
-20.96
-30.28
-37.34
-40.90
-40.45
-36.33
-29.55
-21.34
-12.83
-4.74
2.63
9.22
15.11
20.39
25.07
29.11
32.44
34.93
36.51
37.19
37.12
36.59
35.93
35.38
34.98
34.70
34.40
34.01
33.53
32.94
32.13
30.87
28.77
25.54
21.05
15.54
9.50
3.53
-1.87
-6.55
-10.74
-15.01
-20.08
-26.57
-34.74
-44.32
-54.42
-63.64
-70.31
-72.95
-70.69
-63.58
-52.56
-39.23
-25.27
-12.01
-0.17
10.19
19.39
27.80
35.58
42.61
48.52
52.95
55.72
56.98
57.12
56.66
55.97
55.21
54.31
53.13
51.60
49.77
47.85
45.97
44.16
42.22
39.82
36.65
32.52
27.49
21.79
15.79
9.85
4.22
-1.06
-6.12
-11.25
-16.84
-23.30
-30.87
-39.52
-48.72
-57.40
-64.11
-67.38
-66.17
-60.24
-50.28
-37.70
-24.13
-11.02
0.74
10.88
19.58
27.21
34.09
40.34
45.83
50.30
53.50
55.36
56.06
55.95
55.39
54.69
53.94
53.12
52.14
50.97
49.59
47.95
45.97
43.49
40.34
36.43
31.79
26.54
20.90
15.14
9.52
4.21
-0.71
-5.35
-10.01
-15.02
-20.73
-27.30
-34.71
-42.71
-50.86
-58.46
-64.59
-68.19
-68.26
-64.20
-56.09
-44.80
-31.77
-18.57
-6.47
3.89
12.52
19.79
26.13
31.73
36.52
40.30
42.89
44.32
44.73
44.39
43.56
42.47
41.32
40.27
39.45
38.90
38.51
38.10
37.42
36.22
34.38
31.80
28.48
24.46
19.83
14.78
9.52
4.29
-0.74
-5.53
-10.12
-14.59
-19.02
-23.56
-28.43
-33.95
-40.42
-47.85
-55.77
-63.13
-68.53
-70.62
-68.62
-62.57
-53.34
-42.29
-30.80
-19.89
-10.10
-1.51
6.07
12.84
18.93
24.37
29.08
32.99
36.00
38.03
39.08
39.22
38.63
37.58
36.37
35.25
34.36
33.65
32.98
32.13
30.96
29.39
27.51
25.38
23.07
20.49
17.51
13.98
9.88
5.35
0.63
-4.04
-8.56
-12.94
-17.33
-21.90
-26.76
-31.98
-37.61
-43.63
-49.84
-55.78
-60.64
-63.43
-63.27
-59.78
-53.21
-44.45
-34.68
-24.96
-15.98
-7.99
-0.88
5.54
11.40
16.66
21.21
24.90
27.64
29.42
30.28
30.40
29.99
29.35
28.74
28.34
28.14
28.03
27.78
27.21
26.20
24.78
23.03
21.00
18.70
16.08
13.07
9.64
5.88
1.91
-2.09
-6.01
-9.79
-13.48
-17.20
-21.07
-25.26
-29.94
-35.27
-41.31
-47.82
-54.16
-59.28
-61.97
-61.27
-56.85
-49.18
-39.46
-29.15
-19.48
-11.08
-3.98
2.19
7.84
13.20
18.19
22.58
26.10
28.56
29.93
30.32
29.96
29.07
27.93
26.76
25.76
25.03
24.63
24.48
24.41
24.20
23.59
22.40
20.53
18.02
14.98
11.51
7.73
3.73
-0.43
-4.66
-8.92
-13.18
-17.40
-21.63
-25.91
-30.35
-35.10
-40.29
-45.89
-51.56
-56.61
-60.11
-61.12
-59.05
-53.90
-46.24
-37.10
-27.53
-18.41
-10.23
-3.12
3.01
8.31
12.92
16.87
20.17
22.74
24.52
25.53
25.87
25.76
25.47
25.26
25.26
25.46
25.69
25.73
25.39
24.58
23.32
21.68
19.74
17.52
14.99
12.09
8.79
5.12
1.18
-2.93
-7.11
-11.28
-15.44
-19.61
-23.84
-28.18
-32.78
-37.78
-43.24
-49.01
-54.53
-58.89
-61.05
-60.13
-55.83
-48.54
-39.30
-29.40
-20.02
-11.81
-4.91
0.99
6.30
11.28
15.96
20.12
23.51
25.96
27.50
28.30
28.63
28.73
28.75
28.73
28.66
28.48
28.13
27.59
26.87
26.01
25.05
23.96
22.62
20.84
18.42
15.24
11.36
6.98
2.41
-2.06
-6.29
-10.29
-14.19
-18.20
-22.59
-27.59
-33.39
-40.07
-47.34
-54.53
-60.51
-64.03
-64.06
-60.25
-52.99
-43.45
-33.02
-22.96
-14.00
-6.29
0.40
6.46
12.12
17.41
22.16
26.08
28.96
30.69
31.40
31.36
30.97
30.55
30.28
30.14
29.96
29.55
28.83
27.85
26.69
25.40
23.87
21.92
19.32
15.97
11.92
7.40
2.69
-1.91
-6.25
-10.30
-14.19
-18.14
-22.38
-27.13
-32.52
-38.49
-44.71
-50.60
-55.32
-57.92
-57.62
-54.06
-47.50
-38.77
-29.02
-19.38
-10.63
-3.02
3.64
9.67
15.27
20.38
24.73
28.04
30.23
31.45
32.01
32.19
32.14
31.82
31.17
30.19
29.02
27.87
26.90
26.13
25.39
24.43
23.00
20.92
18.13
14.65
10.57
6.10
1.52
-2.90
-6.92
-10.50
-13.85
-17.35
-21.51
-26.68
-32.96
-40.03
-47.09
-53.06
-56.73
-57.16
-53.97
-47.52
-38.75
-28.90
-19.14
-10.18
-2.27
4.72
11.04
16.83
21.99
26.31
29.58
31.67
32.74
33.08
33.05
32.99
33.03
33.17
33.22
32.96
32.24
31.07
29.60
28.03
26.48
24.82
22.74
19.91
16.13
11.54
6.57
1.77
-2.47
-6.05
-9.23
-12.41
-16.00
-20.28
-25.42
-31.48
-38.37
-45.69
-52.64
-58.10
-60.84
-60.02
-55.49
-47.89
-38.40
-28.29
-18.53
-9.56
-1.42
6.04
12.88
18.99
24.19
28.32
31.37
33.45
34.76
35.46
35.67
35.48
34.96
34.27
33.55
32.96
32.53
32.17
31.71
30.91
29.57
27.56
24.83
21.39
17.33
12.81
8.01
3.18
-1.49
-5.92
-10.21
-14.54
-19.15
-24.22
-29.84
-36.01
-42.64
-49.47
-56.01
-61.45
-64.83
-65.19
-61.98
-55.25
-45.70
-34.45
-22.73
-11.53
-1.40
7.52
15.37
22.35
28.55
33.90
38.23
41.38
43.39
44.48
45.01
45.33
45.63
45.89
45.94
45.61
44.84
43.71
42.40
41.04
39.64
38.10
36.27
33.97
31.10
27.61
23.46
18.60
13.02
6.73
-0.16
-7.50
-15.06
-22.65
-30.11
-37.33
-44.22
-50.72
-56.67
-61.79
-65.57
-67.35
-66.52
-62.70
-55.96
-46.97
-36.76
-26.47
-16.99
-8.72
-1.63
4.64
10.37
15.68
20.42
24.34
27.23
29.11
30.22
30.90
31.43
31.90
32.23
32.24
31.78
30.84
29.59
28.22
26.85
25.48
23.85
21.62
18.50
14.40
9.53
4.33
-0.70
-5.24
-9.19
-12.78
-16.34
-20.23
-24.71
-29.95
-36.00
-42.76
-49.85
-56.49
-61.59
-63.99
-62.84
-57.93
-49.80
-39.55
-28.46
-17.61
-7.62
1.30
9.21
16.17
22.14
27.00
30.61
32.97
34.29
34.94
35.24
35.46
35.62
35.60
35.24
34.41
33.18
31.69
30.21
28.92
27.88
26.93
25.72
23.83
20.93
16.91
11.98
6.60
1.30
-3.56
-7.89
-11.90
-15.99
-20.57
-25.95
-32.28
-39.46
-47.08
-54.38
-60.31
-63.66
-63.45
-59.30
-51.56
-41.30
-29.90
-18.62
-8.27
0.88
8.94
16.11
22.44
27.83
32.03
34.89
36.40
36.78
36.40
35.65
34.87
34.25
33.81
33.44
32.95
32.22
31.20
29.97
28.61
27.12
25.36
23.03
19.80
15.54
10.40
4.83
-0.57
-5.34
-9.29
-12.62
-15.81
-19.43
-23.92
-29.46
-35.95
-42.97
-49.85
-55.69
-59.42
-60.14
-57.30
-50.99
-41.93
-31.27
-20.27
-9.94
-0.82
6.94
13.48
18.99
23.59
27.27
29.94
31.53
32.11
31.86
31.08
30.07
29.02
28.01
27.01
25.99
25.00
24.16
23.60
23.30
23.02
22.37
20.88
18.28
14.55
9.99
5.08
0.32
-3.95
-7.64
-10.94
-14.27
-18.05
-22.70
-28.45
-35.25
-42.69
-50.00
-56.11
-59.87
-60.32
-57.03
-50.24
-40.79
-29.90
-18.79
-8.42
0.64
8.16
14.21
18.92
22.50
25.11
26.93
28.13
28.84
29.22
29.40
29.45
29.39
29.20
28.79
28.14
27.24
26.18
25.03
23.89
22.74
21.48
19.89
17.74
14.86
11.22
7.02
2.57
-1.83
-6.03
-10.13
-14.41
-19.20
-24.67
-30.79
-37.29
-43.71
-49.37
-53.47
-55.16
-53.82
-49.22
-41.79
-32.48
-22.54
-13.05
-4.68
2.40
8.37
13.50
17.90
21.56
24.37
26.37
27.74
28.79
29.81
30.91
32.00
32.81
33.06
32.59
31.51
30.12
28.77
27.68
26.78
25.73
24.07
21.43
17.80
13.46
8.91
4.65
0.96
-2.21
-5.14
-8.26
-11.98
-16.57
-22.12
-28.51
-35.30
-41.75
-46.85
-49.59
-49.20
-45.47
-38.87
-30.39
-21.20
-12.25
-4.08
3.15
9.51
14.99
19.48
22.79
24.82
25.67
25.64
25.10
24.34
23.50
22.60
21.63
20.64
19.72
18.98
18.43
18.01
17.59
16.99
16.02
14.51
12.30
9.34
5.77
1.87
-1.94
-5.34
-8.24
-10.84
-13.61
-17.07
-21.62
-27.34
-33.89
-40.54
-46.24
-49.86
-50.53
-47.82
-42.00
-33.88
-24.57
-15.18
-6.49
1.11
7.49
12.67
16.67
19.51
21.28
22.13
22.28
21.97
21.33
20.42
19.31
18.07
16.82
15.74
14.89
14.33
13.96
13.63
13.17
12.32
10.84
8.51
5.27
1.26
-3.15
-7.47
-11.33
-14.61
-17.55
-20.64
-24.46
-29.35
-35.24
-41.49
-47.05
-50.69
-51.34
-48.52
-42.41
-33.87
-24.13
-14.38
-5.51
2.11
8.47
13.73
18.00
21.28
23.46
24.53
24.67
24.22
23.54
22.89
22.31
21.68
20.84
19.74
18.51
17.38
16.59
16.16
15.81
15.06
13.39
10.48
6.34
1.42
-3.65
-8.26
-12.10
-15.31
-18.41
-22.09
-26.92
-33.13
-40.44
-48.04
-54.74
-59.26
-60.55
-58.12
-52.17
-43.52
-33.37
-22.92
-13.15
-4.60
2.58
8.50
13.38
17.44
20.83
23.64
25.84
27.37
28.16
28.27
27.81
27.00
26.03
25.02
23.98
22.89
21.71
20.49
19.19
17.71
15.82
13.22
9.75
5.48
0.70
-4.17
-8.79
-13.03
-17.05
-21.21
-25.96
-31.70
-38.51
-46.04
-53.46
-59.52
-62.90
-62.63
-58.43
-50.82
-40.95
-30.18
-19.65
-10.07
-1.65
5.65
11.97
17.42
22.02
25.79
28.78
31.04
32.61
33.57
33.95
33.74
32.99
31.72
30.09
28.33
26.75
25.60
24.96
24.57
23.92
22.37
19.46
15.11
9.65
3.75
-1.91
-6.92
-11.24
-15.21
-19.38
-24.33
-30.49
-37.99
-46.45
-54.97
-62.23
-66.71
-67.24
-63.34
-55.50
-44.99
-33.36
-21.94
-11.47
-2.07
6.43
14.22
21.28
27.40
32.36
36.07
38.63
40.27
41.19
41.58
41.52
41.09
40.35
39.38
38.30
37.18
36.13
35.18
34.31
33.35
31.98
29.87
26.72
22.44
17.20
11.38
5.42
-0.31
-5.67
-10.77
-15.92
-21.56
-28.05
-35.62
-44.21
-53.39
-62.32
-69.81
-74.53
-75.37
-71.81
-64.13
-53.34
-40.87
-28.14
-16.16
-5.37
4.29
13.11
21.30
28.89
35.63
41.21
45.40
48.18
49.75
50.45
50.61
50.48
50.24
49.93
49.62
49.32
48.99
48.51
47.70
46.35
44.32
41.60
38.26
34.37
30.01
25.20
19.96
14.33
8.45
2.51
-3.35
-8.99
-14.43
-19.76
-25.26
-31.24
-38.07
-45.92
-54.65
-63.56
-71.50
-77.01
-78.76
-75.98
-68.69
-57.78
-44.64
-30.83
-17.62
-5.71
4.72
13.83
21.91
29.08
35.31
40.40
44.18
46.61
47.83
48.14
47.92
47.50
47.16
47.09
47.40
48.12
49.12
50.17
50.90
50.96
50.12
48.38
45.90
43.00
39.97
37.00
34.17
31.46
28.72
25.79
22.47
18.66
14.41
9.94
5.58
1.62
-1.91
-5.28
-9.08
-13.85
-19.84
-26.75
-33.72
-39.61
-43.40
-44.60
-43.37
-40.48
-36.92
-33.57
-30.84
-28.65
-26.50
-23.65
-19.38
-13.24
-5.21
4.25
14.18
23.41
30.86
35.88
38.47
39.18
38.87
38.32
37.99
37.89
37.71
37.07
35.68
33.43
30.36
26.61
22.26
17.38
12.09
6.55
0.95
-4.58
-10.07
-15.71
-21.79
-28.44
-35.60
-42.93
-50.00
-56.40
-61.97
-66.74
-70.81
-74.15
-76.47
-77.23
-75.92
-72.19
-66.04
-57.77
-47.95
-37.25
-26.32
-15.69
-5.76
3.26
11.28
18.32
24.38
29.43
33.36
36.09
37.58
37.92
37.38
36.19
34.49
32.24
29.34
25.86
22.25
19.33
17.98
18.74
21.46
25.29
28.97
31.21
31.19
28.57
23.53
16.49
8.07
-1.03
-10.00
-18.00
-24.43
-29.18
-32.72
-35.96
-39.93
-45.25
-51.78
-58.58
-64.14
-66.89
-65.71
-60.34
-51.42
-40.29
-28.43
-17.11
-7.07
1.48
8.67
14.79
20.03
24.47
28.08
30.82
32.73
33.89
34.47
34.65
34.58
34.35
34.02
33.59
33.05
32.37
31.51
30.42
29.04
27.31
25.11
22.33
18.87
14.69
9.90
4.74
-0.46
-5.40
-9.90
-13.98
-17.84
-21.79
-26.20
-31.36
-37.44
-44.32
-51.48
-57.97
-62.58
-64.13
-61.89
-55.90
-46.99
-36.47
-25.75
-15.86
-7.24
0.12
6.50
12.13
17.06
21.16
24.25
26.25
27.28
27.60
27.54
27.41
27.38
27.47
27.55
27.49
27.17
26.62
25.98
25.43
25.04
24.61
23.71
21.83
18.64
14.15
8.81
3.34
-1.57
-5.50
-8.46
-10.84
-13.22
-16.16
-20.07
-25.12
-31.19
-37.87
-44.40
-49.74
-52.76
-52.54
-48.71
-41.61
-32.20
-21.78
-11.61
-2.52
5.15
11.55
16.94
21.55
25.38
28.28
30.06
30.70
30.38
29.41
28.18
26.97
25.98
25.27
24.83
24.60
24.49
24.37
24.12
23.62
22.78
21.46
19.48
16.66
12.94
8.46
3.62
-1.05
-5.14
-8.55
-11.52
-14.54
-18.18
-22.82
-28.57
-35.21
-42.15
-48.53
-53.24
-55.22
-53.74
-48.73
-40.79
-31.08
-20.89
-11.23
-2.69
4.61
10.73
15.71
19.50
21.97
23.18
23.34
22.89
22.25
21.68
21.26
20.89
20.49
20.08
19.76
19.66
19.81
20.03
20.00
19.36
17.84
15.33
11.94
7.96
3.70
-0.53
-4.53
-8.29
-11.97
-15.90
-20.44
-25.88
-32.18
-38.93
-45.33
-50.31
-52.81
-52.08
-47.93
-40.78
-31.54
-21.33
-11.18
-1.87
6.17
12.74
17.77
21.21
23.08
23.51
22.77
21.30
19.58
18.00
16.74
15.82
15.16
14.73
14.56
14.70
15.12
15.58
15.73
15.15
13.60
11.09
7.90
4.37
0.83
-2.58
-5.88
-9.22
-12.83
-17.01
-22.00
-27.91
-34.51
-41.15
-46.79
-50.27
-50.68
-47.63
-41.44
-32.98
-23.37
-13.67
-4.67
3.24
9.94
15.50
20.03
23.57
26.16
27.84
28.72
28.95
28.70
28.10
27.22
26.14
24.89
23.65
22.55
21.71
21.12
20.58
19.77
18.35
16.09
12.99
9.23
5.16
1.10
-2.71
-6.31
-9.97
-14.09
-19.06
-25.02
-31.73
-38.54
-44.49
-48.50
-49.66
-47.46
-42.00
-33.93
-24.34
-14.41
-5.13
2.91
9.55
14.93
19.26
22.70
25.30
27.05
27.98
28.19
27.84
27.10
26.15
25.11
24.11
23.29
22.76
22.57
22.60
22.55
22.02
20.65
18.25
14.88
10.88
6.63
2.48
-1.43
-5.14
-8.91
-13.02
-17.76
-23.26
-29.40
-35.70
-41.31
-45.13
-46.09
-43.54
-37.54
-28.89
-18.90
-8.93
0.00
7.42
13.38
18.13
21.92
24.87
26.92
28.04
28.29
27.86
27.05
26.14
25.31
24.68
24.26
24.07
24.04
24.09
24.06
23.71
22.81
21.19
18.82
15.81
12.42
8.92
5.50
2.18
-1.12
-4.59
-8.39
-12.59
-17.19
-22.10
-27.12
-31.88
-35.87
-38.47
-39.19
-37.74
-34.16
-28.72
-21.80
-13.80
-5.12
3.70
11.91
18.64
23.02
24.60
23.48
20.37
16.26
12.16
8.73
6.26
4.73
4.02
4.09
4.99
6.83
9.57
12.97
16.53
19.56
21.44
21.76
20.53
18.16
15.32
12.64
10.50
8.77
6.91
4.22
0.06
-5.79
-13.11
-21.30
-29.49
-36.77
-42.32
-45.57
-46.24
-44.42
-40.60
-35.50
-29.92
-24.51
-19.64
-15.42
-11.76
-8.59
-5.85
-3.61
-1.92
-0.75
0.06
0.74
1.55
2.67
4.12
5.83
7.64
9.40
11.00
12.40
13.60
14.57
15.24
15.49
15.18
14.24
12.69
10.66
8.33
5.83
3.25
0.60
-2.21
-5.34
-8.97
-13.20
-17.92
-22.67
-26.69
-29.11
-29.19
-26.63
-21.63
-14.91
-7.40
0.05
6.82
12.64
17.49
21.49
24.69
27.06
28.57
29.22
29.19
28.74
28.24
27.93
27.85
27.86
27.69
27.15
26.24
25.08
23.80
22.39
20.65
18.27
15.04
10.95
6.28
1.43
-3.21
-7.45
-11.31
-14.99
-18.83
-23.10
-28.00
-33.43
-39.01
-44.04
-47.64
-49.01
-47.65
-43.56
-37.28
-29.71
-21.83
-14.42
-7.89
-2.31
2.42
6.43
9.72
12.18
13.72
14.35
14.26
13.80
13.26
12.85
12.59
12.43
12.36
12.41
12.66
13.05
13.33
13.15
12.12
10.05
7.01
3.31
-0.65
-4.54
-8.16
-11.51
-14.74
-18.11
-21.91
-26.44
-31.84
-37.91
-43.99
-48.99
-51.70
-51.23
-47.31
-40.48
-31.85
-22.70
-14.09
-6.57
-0.24
5.04
9.48
13.19
16.17
18.37
19.81
20.56
20.78
20.62
20.29
19.94
19.67
19.53
19.48
19.47
19.40
19.17
18.63
17.55
15.75
13.07
9.56
5.41
0.97
-3.44
-7.58
-11.43
-15.19
-19.21
-23.86
-29.39
-35.75
-42.46
-48.61
-53.00
-54.56
-52.63
-47.23
-39.07
-29.28
-19.04
-9.30
-0.60
6.88
13.15
18.27
22.30
25.25
27.14
28.08
28.22
27.78
27.02
26.14
25.28
24.47
23.67
22.85
22.00
21.19
20.48
19.79
18.91
17.48
15.17
11.81
7.57
2.88
-1.71
-5.77
-9.19
-12.27
-15.55
-19.62
-24.88
-31.38
-38.74
-46.13
-52.47
-56.54
-57.27
-54.09
-47.16
-37.38
-26.17
-15.01
-4.98
3.47
10.50
16.53
21.89
26.60
30.45
33.23
34.90
35.68
35.94
35.96
35.83
35.43
34.61
33.36
31.87
30.41
29.20
28.23
27.26
25.89
23.76
20.73
16.88
12.52
8.08
3.92
0.24
-3.02
-6.21
-9.86
-14.54
-20.56
-27.83
-35.71
-43.08
-48.64
-51.22
-50.12
-45.35
-37.57
-27.89
-17.52
-7.47
1.64
9.55
16.32
22.06
26.78
30.51
33.21
35.01
36.11
36.79
37.29
37.71
38.00
38.01
37.59
36.71
35.48
34.15
32.91
31.84
30.80
29.47
27.44
24.45
20.49
15.83
11.00
6.48
2.57
-0.78
-3.90
-7.28
-11.31
-16.22
-21.99
-28.34
-34.76
-40.51
-44.72
-46.47
-45.12
-40.54
-33.24
-24.21
-14.67
-5.65
2.26
8.95
14.60
19.44
23.54
26.81
29.10
30.38
30.81
30.71
30.47
30.37
30.46
30.58
30.49
30.01
29.12
28.01
26.90
25.96
25.19
24.34
23.11
21.25
18.68
15.50
11.94
8.28
4.72
1.41
-1.63
-4.45
-7.25
-10.34
-14.05
-18.61
-24.03
-29.96
-35.68
-40.29
-42.85
-42.71
-39.67
-34.04
-26.59
-18.32
-10.17
-2.82
3.43
8.60
12.86
16.39
19.27
21.52
23.24
24.56
25.71
26.89
28.13
29.25
29.93
29.82
28.67
26.49
23.55
20.26
17.05
14.25
11.97
10.12
8.49
6.82
4.96
2.86
0.57
-1.79
-4.15
-6.52
-9.01
-11.76
-14.93
-18.68
-23.02
-27.91
-33.10
-38.10
-42.19
-44.53
-44.40
-41.42
-35.81
-28.31
-20.00
-11.96
-4.97
0.65
4.98
8.32
10.96
13.01
14.46
15.21
15.23
14.64
13.78
13.06
12.77
12.99
13.46
13.77
13.60
12.87
11.84
10.89
10.27
9.90
9.43
8.38
6.49
3.87
0.92
-1.91
-4.32
-6.33
-8.23
-10.34
-12.93
-16.10
-19.86
-24.12
-28.73
-33.38
-37.53
-40.44
-41.40
-39.92
-35.97
-30.07
-23.09
-16.05
-9.75
-4.66
-0.80
2.09
4.39
6.43
8.35
10.11
11.50
12.37
12.66
12.50
12.14
11.80
11.56
11.31
10.84
10.01
8.88
7.67
6.68
6.04
5.69
5.31
4.48
2.93
0.61
-2.24
-5.20
-7.89
-10.06
-11.65
-12.93
-14.27
-16.13
-18.86
-22.65
-27.38
-32.59
-37.58
-41.47
-43.43
-42.91
-39.76
-34.34
-27.42
-19.98
-12.92
-6.90
-2.09
1.65
4.68
7.33
9.74
11.84
13.45
14.42
14.79
14.73
14.54
14.51
14.76
15.25
15.80
16.16
16.13
15.62
14.66
13.39
11.97
10.45
8.77
6.78
4.32
1.37
-1.88
-5.09
-7.95
-10.33
-12.35
-14.36
-16.71
-19.66
-23.28
-27.51
-32.23
-37.19
-42.06
-46.22
-48.89
-49.33
-47.08
-42.26
-35.53
-27.97
-20.63
-14.25
-9.07
-4.88
-1.29
2.06
5.29
8.33
10.96
13.05
14.58
15.69
16.57
17.38
18.17
18.86
19.32
19.40
19.07
18.35
17.37
16.23
14.98
13.57
11.84
9.63
6.80
3.43
-0.29
-4.03
-7.54
-10.72
-13.63
-16.46
-19.45
-22.80
-26.71
-31.30
-36.62
-42.52
-48.55
-53.91
-57.65
-58.88
-57.09
-52.34
-45.21
-36.63
-27.53
-18.71
-10.66
-3.60
2.46
7.62
11.96
15.55
18.37
20.40
21.68
22.36
22.69
22.95
23.31
23.79
24.27
24.55
24.49
24.07
23.42
22.68
21.96
21.23
20.30
18.89
16.75
13.76
10.04
5.82
1.46
-2.73
-6.61
-10.21
-13.79
-17.69
-22.29
-27.83
-34.34
-41.51
-48.66
-54.80
-58.82
-59.74
-57.05
-50.84
-41.80
-31.10
-20.01
-9.63
-0.58
6.95
13.18
18.43
22.92
26.69
29.64
31.73
33.00
33.69
34.14
34.65
35.34
36.19
36.97
37.47
37.54
37.12
36.26
35.03
33.46
31.46
28.87
25.54
21.44
16.75
11.91
7.38
3.54
0.49
-2.00
-4.36
-7.19
-11.02
-16.25
-23.02
-31.09
-39.80
-48.09
-54.66
-58.24
-57.93
-53.47
-45.39
-34.79
-23.06
-11.52
-1.05
8.00
15.71
22.40
28.36
33.66
38.15
41.55
43.68
44.55
44.44
43.79
43.03
42.45
42.08
41.77
41.27
40.39
39.06
37.37
35.40
33.25
30.87
28.13
24.88
21.03
16.61
11.77
6.75
1.80
-2.83
-7.06
-11.03
-15.03
-19.55
-25.01
-31.66
-39.31
-47.31
-54.55
-59.71
-61.56
-59.36
-53.08
-43.44
-31.70
-19.34
-7.62
2.71
11.43
18.69
24.75
29.71
33.52
36.07
37.39
37.74
37.59
37.38
37.40
37.63
37.85
37.82
37.41
36.70
35.88
35.10
34.38
33.49
32.11
29.94
26.83
22.78
17.97
12.67
7.17
1.81
-3.21
-7.80
-12.07
-16.31
-20.93
-26.31
-32.65
-39.83
-47.32
-54.21
-59.34
-61.57
-60.12
-54.85
-46.36
-35.88
-24.85
-14.47
-5.41
2.25
8.73
14.25
18.83
22.33
24.58
25.63
25.79
25.51
25.20
25.02
24.88
24.62
24.17
23.65
23.41
23.80
24.99
26.86
29.01
30.84
31.81
31.59
30.14
27.73
24.84
22.03
19.78
18.42
18.05
18.46
19.21
19.67
19.26
17.64
14.97
11.94
9.64
9.24
11.55
16.79
24.44
33.44
42.48
50.35
56.24
59.86
61.33
61.07
59.48
56.77
52.88
47.58
40.70
32.30
22.73
12.54
2.24
-7.83
-17.59
-27.01
-35.93
-43.92
-50.35
-54.64
-56.52
-56.15
-54.06
-50.96
-47.48
-44.01
-40.69
-37.42
-34.12
-30.78
-27.57
-24.78
-22.76
-21.73
-21.75
-22.62
-23.88
-24.96
-25.23
-24.17
-21.44
-17.04
-11.20
-4.43
2.67
9.53
15.75
21.10
25.46
28.73
30.76
31.35
30.48
28.29
25.20
21.73
18.40
15.47
12.96
10.68
8.43
6.09
3.70
1.48
-0.42
-1.91
-3.09
-4.23
-5.66
-7.66
-10.34
-13.60
-17.10
-20.46
-23.37
-25.73
-27.76
-29.91
-32.71
-36.56
-41.53
-47.21
-52.77
-57.16
-59.35
-58.68
-54.96
-48.55
-40.24
-31.05
-22.01
-13.87
-7.04
-1.54
2.77
6.16
8.76
10.62
11.74
12.22
12.29
12.30
12.54
13.11
13.90
14.64
15.14
15.39
15.54
15.81
16.28
16.84
17.11
16.72
15.39
13.09
10.06
6.68
3.34
0.28
-2.45
-5.05
-7.78
-10.92
-14.63
-18.88
-23.45
-27.88
-31.54
-33.75
-33.98
-31.96
-27.91
-22.47
-16.50
-10.83
-6.01
-2.20
0.74
3.01
4.75
5.96
6.60
6.75
6.70
6.84
7.49
8.73
10.32
11.85
12.90
13.30
13.15
12.78
12.52
12.48
12.47
12.04
10.76
8.43
5.17
1.45
-2.24
-5.51
-8.30
-10.89
-13.69
-17.15
-21.58
-27.02
-33.15
-39.25
-44.26
-47.03
-46.61
-42.68
-35.65
-26.58
-16.82
-7.57
0.45
7.06
12.43
16.82
20.40
23.13
24.97
25.95
26.23
26.06
25.69
25.29
24.89
24.50
24.11
23.77
23.56
23.52
23.59
23.54
23.02
21.66
19.16
15.44
10.72
5.46
0.19
-4.58
-8.65
-12.11
-15.32
-18.83
-23.11
-28.41
-34.63
-41.28
-47.45
-52.04
-53.96
-52.49
-47.53
-39.74
-30.28
-20.52
-11.51
-3.76
2.77
8.45
13.59
18.23
22.13
24.98
26.65
27.35
27.51
27.57
27.76
27.99
28.01
27.56
26.61
25.32
24.00
22.88
21.99
21.14
20.02
18.32
15.86
12.60
8.66
4.29
-0.18
-4.47
-8.38
-11.94
-15.41
-19.22
-23.82
-29.47
-36.02
-42.82
-48.82
-52.84
-53.83
-51.24
-45.26
-36.70
-26.85
-16.99
-8.11
-0.64
5.47
10.51
14.80
18.45
21.41
23.57
24.91
25.60
25.95
26.24
26.62
27.07
27.43
27.60
27.55
27.40
27.27
27.16
26.96
26.38
25.12
22.96
19.87
15.97
11.51
6.82
2.19
-2.18
-6.22
-10.06
-13.97
-18.26
-23.19
-28.83
-35.02
-41.28
-46.91
-51.05
-52.84
-51.60
-47.13
-39.80
-30.56
-20.64
-11.23
-3.06
3.67
9.21
13.97
18.20
21.86
24.72
26.60
27.50
27.73
27.76
28.02
28.67
29.62
30.55
31.17
31.33
31.13
30.77
30.43
30.09
29.52
28.37
26.32
23.27
19.35
14.85
10.13
5.48
1.08
-3.02
-6.86
-10.60
-14.50
-18.90
-24.12
-30.38
-37.55
-45.04
-51.83
-56.60
-58.15
-55.80
-49.63
-40.50
-29.77
-18.81
-8.65
0.20
7.63
13.71
18.46
21.85
23.90
24.79
24.99
25.00
25.26
25.90
26.76
27.49
27.78
27.47
26.67
25.65
24.69
23.97
23.50
23.01
22.12
20.43
17.61
13.60
8.63
3.20
-2.14
-6.93
-11.00
-14.52
-17.96
-21.87
-26.72
-32.65
-39.36
-46.08
-51.70
-54.99
-54.99
-51.26
-44.06
-34.31
-23.32
-12.43
-2.67
5.46
11.89
16.89
20.78
23.77
25.95
27.37
28.09
28.30
28.27
28.20
28.17
28.08
27.81
27.25
26.48
25.65
24.92
24.31
23.72
22.88
21.54
19.49
16.58
12.83
8.35
3.41
-1.60
-6.27
-10.34
-13.86
-17.19
-20.93
-25.67
-31.63
-38.59
-45.77
-52.07
-56.35
-57.71
-55.68
-50.35
-42.34
-32.61
-22.26
-12.25
-3.22
4.60
11.26
16.89
21.51
25.04
27.39
28.59
28.97
28.99
29.08
29.40
29.82
30.05
29.83
29.14
28.15
27.12
26.18
25.31
24.37
23.14
21.48
19.23
16.27
12.51
7.94
2.76
-2.68
-7.95
-12.75
-17.04
-21.12
-25.52
-30.73
-37.00
-44.04
-51.04
-56.78
-59.97
-59.67
-55.57
-48.12
-38.38
-27.63
-17.02
-7.32
1.20
8.52
14.75
19.90
23.89
26.63
28.15
28.67
28.56
28.21
27.93
27.86
27.96
28.12
28.24
28.28
28.24
28.13
27.85
27.21
25.92
23.71
20.42
16.10
11.01
5.59
0.27
-4.59
-8.86
-12.64
-16.23
-20.04
-24.53
-30.00
-36.50
-43.65
-50.65
-56.34
-59.54
-59.32
-55.33
-47.97
-38.23
-27.38
-16.61
-6.74
1.90
9.33
15.70
21.10
25.42
28.50
30.20
30.60
30.04
29.07
28.24
27.91
28.11
28.58
28.96
29.00
28.66
28.09
27.48
26.87
26.05
24.66
22.31
18.80
14.16
8.76
3.11
-2.30
-7.13
-11.37
-15.31
-19.43
-24.24
-30.08
-36.89
-44.23
-51.25
-56.89
-60.03
-59.84
-55.90
-48.50
-38.48
-27.17
-15.93
-5.86
2.49
9.13
14.39
18.68
22.19
24.92
26.76
27.63
27.68
27.27
26.78
26.52
26.60
26.88
27.14
27.17
26.90
26.43
25.87
25.25
24.41
23.02
20.77
17.46
13.19
8.33
3.37
-1.25
-5.30
-8.82
-12.12
-15.62
-19.85
-25.22
-31.86
-39.46
-47.14
-53.63
-57.56
-57.94
-54.48
-47.71
-38.69
-28.69
-18.67
-9.23
-0.56
7.31
14.29
20.17
24.72
27.80
29.49
30.12
30.11
29.85
29.59
29.41
29.25
29.04
28.74
28.38
28.03
27.68
27.24
26.47
25.06
22.76
19.50
15.41
10.81
6.14
1.76
-2.09
-5.35
-8.18
-10.88
-13.85
-17.57
-22.42
-28.61
-35.96
-43.83
-51.06
-56.28
-58.22
-56.11
-49.98
-40.63
-29.41
-17.78
-6.89
2.66
10.75
17.56
23.24
27.81
31.19
33.27
34.13
34.08
33.56
33.02
32.70
32.61
32.56
32.34
31.89
31.31
30.81
30.54
30.40
30.04
28.95
26.62
22.80
17.59
11.47
5.10
-0.83
-5.87
-9.96
-13.44
-16.96
-21.20
-26.66
-33.44
-41.14
-48.91
-55.54
-59.87
-60.95
-58.34
-52.24
-43.39
-32.93
-22.03
-11.66
-2.41
5.54
12.31
18.05
22.88
26.75
29.56
31.26
32.01
32.12
32.01
32.00
32.13
32.22
31.97
31.20
29.94
28.44
27.04
25.91
24.94
23.75
21.85
18.88
14.78
9.86
4.65
-0.31
-4.65
-8.38
-11.74
-15.17
-19.11
-23.87
-29.56
-36.02
-42.71
-48.71
-52.93
-54.34
-52.33
-46.90
-38.72
-28.87
-18.56
-8.71
0.08
7.61
13.89
19.01
23.08
26.14
28.25
29.50
30.06
30.16
30.09
30.10
30.32
30.71
31.03
31.03
30.54
29.63
28.45
27.18
25.84
24.22
21.98
18.87
14.90
10.35
5.71
1.39
-2.42
-5.87
-9.28
-13.02
-17.37
-22.41
-28.10
-34.21
-40.29
-45.67
-49.55
-51.10
-49.76
-45.42
-38.53
-29.91
-20.56
-11.35
-2.84
4.66
11.09
16.47
20.81
24.11
26.38
27.69
28.19
28.14
27.78
27.32
26.80
26.18
25.33
24.23
22.93
21.63
20.47
19.45
18.39
16.89
14.60
11.33
7.20
2.58
-2.07
-6.32
-10.05
-13.35
-16.56
-20.08
-24.23
-29.16
-34.74
-40.52
-45.73
-49.35
-50.41
-48.28
-42.94
-35.01
-25.63
-16.02
-7.21
0.29
6.41
11.40
15.56
19.08
21.94
24.04
25.33
25.88
25.92
25.80
25.79
25.97
26.24
26.32
25.98
25.11
23.81
22.27
20.66
18.93
16.91
14.39
11.26
7.62
3.72
-0.12
-3.73
-7.14
-10.53
-14.19
-18.36
-23.21
-28.81
-35.11
-41.82
-48.33
-53.71
-56.83
-56.75
-53.07
-46.11
-36.89
-26.78
-17.01
-8.41
-1.22
4.73
9.81
14.28
18.22
21.55
24.11
25.82
26.74
27.09
27.14
27.08
26.99
26.80
26.40
25.76
24.94
24.13
23.47
22.91
22.16
20.78
18.38
14.84
10.41
5.63
1.10
-2.71
-5.73
-8.22
-10.72
-13.82
-18.02
-23.54
-30.22
-37.44
-44.23
-49.36
-51.74
-50.70
-46.27
-39.17
-30.58
-21.76
-13.64
-6.65
-0.74
4.42
9.11
13.47
17.38
20.65
23.11
24.74
25.65
26.04
26.12
25.99
25.69
25.21
24.59
23.95
23.37
22.85
22.25
21.27
19.59
16.99
13.51
9.43
5.18
1.19
-2.30
-5.28
-7.97
-10.75
-13.96
-17.88
-22.66
-28.28
-34.42
-40.49
-45.60
-48.73
-49.07
-46.20
-40.40
-32.51
-23.70
-15.06
-7.33
-0.75
4.83
9.62
13.76
17.22
19.84
21.52
22.36
22.60
22.59
22.60
22.70
22.77
22.62
22.12
21.34
20.52
19.87
19.52
19.30
18.88
17.86
15.96
13.16
9.68
5.90
2.16
-1.31
-4.50
-7.60
-10.94
-14.86
-19.62
-25.29
-31.70
-38.44
-44.79
-49.89
-52.78
-52.67
-49.21
-42.61
-33.73
-23.75
-13.92
-5.16
2.12
7.94
12.58
16.32
19.32
21.60
23.15
24.02
24.38
24.40
24.31
24.19
24.05
23.84
23.49
22.89
22.09
21.13
20.10
19.04
17.90
16.50
14.60
11.97
8.52
4.38
-0.10
-4.51
-8.45
-11.79
-14.65
-17.44
-20.68
-24.85
-30.16
-36.39
-42.90
-48.66
-52.55
-53.64
-51.52
-46.35
-38.88
-30.16
-21.19
-12.77
-5.28
1.20
6.77
11.56
15.63
18.93
21.40
22.98
23.72
23.83
23.57
23.20
22.89
22.65
22.39
22.04
21.59
21.11
20.70
20.34
19.88
18.98
17.32
14.68
11.08
6.75
2.10
-2.53
-6.88
-10.91
-14.76
-18.70
-23.05
-28.06
-33.77
-39.91
-45.83
-50.59
-53.21
-52.90
-49.38
-42.94
-34.38
-24.79
-15.20
-6.38
1.27
7.69
12.98
17.27
20.63
23.05
24.57
25.26
25.35
25.19
25.07
25.15
25.36
25.45
25.15
24.35
23.17
21.92
20.88
20.14
19.50
18.57
16.89
14.16
10.36
5.76
0.79
-4.04
-8.36
-12.02
-15.21
-18.34
-22.01
-26.69
-32.60
-39.49
-46.63
-52.97
-57.33
-58.71
-56.58
-51.04
-42.77
-32.88
-22.60
-12.93
-4.49
2.59
8.50
13.57
18.02
21.92
25.20
27.81
29.77
31.22
32.36
33.26
33.89
34.11
33.80
32.99
31.84
30.66
29.64
28.84
28.05
26.94
25.16
22.43
18.65
13.94
8.60
3.11
-2.02
-6.41
-9.97
-12.96
-15.97
-19.68
-24.58
-30.80
-38.05
-45.67
-52.71
-58.12
-60.91
-60.36
-56.18
-48.73
-38.93
-28.06
-17.36
-7.72
0.49
7.36
13.21
18.34
22.85
26.62
29.41
31.14
31.91
32.10
32.13
32.36
32.81
33.25
33.32
32.78
31.65
30.20
28.78
27.58
26.59
25.48
23.85
21.39
18.03
13.90
9.31
4.58
-0.04
-4.44
-8.64
-12.76
-17.00
-21.55
-26.68
-32.59
-39.34
-46.62
-53.70
-59.42
-62.50
-61.93
-57.34
-49.17
-38.57
-27.00
-15.80
-5.84
2.55
9.47
15.22
20.06
24.10
27.31
29.60
30.93
31.43
31.36
31.09
30.92
31.00
31.24
31.40
31.24
30.66
29.79
28.87
28.12
27.54
26.81
25.45
23.01
19.35
14.63
9.30
3.87
-1.27
-6.01
-10.46
-14.88
-19.61
-24.90
-30.95
-37.76
-45.09
-52.30
-58.39
-62.15
-62.56
-59.10
-52.05
-42.35
-31.35
-20.27
-10.01
-0.95
6.84
13.40
18.76
22.84
25.62
27.25
28.00
28.26
28.36
28.48
28.63
28.70
28.54
28.08
27.34
26.43
25.48
24.56
23.61
22.44
20.80
18.44
15.25
11.25
6.61
1.60
-3.45
-8.25
-12.68
-16.78
-20.92
-25.58
-31.33
-38.43
-46.63
-55.08
-62.41
-67.08
-67.91
-64.38
-56.83
-46.34
-34.31
-22.06
-10.58
-0.39
8.35
15.71
21.79
26.68
30.42
33.03
34.61
35.29
35.30
34.91
34.34
33.75
33.16
32.54
31.83
31.06
30.25
29.45
28.62
27.61
26.17
24.04
20.97
16.88
11.80
6.00
-0.07
-5.90
-11.00
-15.20
-18.70
-22.07
-26.08
-31.48
-38.63
-47.32
-56.69
-65.35
-71.70
-74.26
-72.21
-65.53
-55.11
-42.42
-29.09
-16.49
-5.41
3.95
11.82
18.57
24.47
29.51
33.51
36.23
37.62
37.91
37.59
37.18
37.07
37.31
37.62
37.68
37.23
36.25
34.94
33.53
32.08
30.41
28.19
25.07
20.85
15.65
9.83
3.93
-1.60
-6.54
-10.95
-15.17
-19.67
-24.92
-31.23
-38.70
-47.11
-55.81
-63.74
-69.55
-71.90
-69.86
-63.24
-52.75
-39.82
-26.12
-13.09
-1.58
8.20
16.49
23.60
29.66
34.53
37.97
39.86
40.37
39.94
39.17
38.50
38.12
37.90
37.52
36.75
35.54
34.09
32.68
31.54
30.66
29.71
28.21
25.62
21.68
16.49
10.53
4.43
-1.18
-6.03
-10.27
-14.35
-18.91
-24.51
-31.43
-39.63
-48.69
-57.82
-65.92
-71.63
-73.67
-71.19
-64.10
-53.17
-39.89
-25.93
-12.71
-1.01
9.01
17.51
24.69
30.52
34.80
37.39
38.37
38.12
37.21
36.15
35.27
34.61
34.07
33.51
32.89
32.23
31.62
31.10
30.57
29.79
28.43
26.14
22.72
18.16
12.76
6.96
1.24
-4.03
-8.80
-13.27
-17.86
-23.05
-29.25
-36.71
-45.25
-54.22
-62.40
-68.22
-70.19
-67.38
-59.88
-48.74
-35.65
-22.32
-9.98
0.84
10.13
18.07
24.75
30.11
34.03
36.49
37.64
37.78
37.31
36.57
35.78
35.03
34.25
33.29
32.06
30.59
29.06
27.76
26.83
26.14
25.28
23.63
20.68
16.22
10.53
4.19
-2.07
-7.77
-12.73
-17.24
-21.83
-27.08
-33.45
-41.06
-49.65
-58.49
-66.44
-72.15
-74.32
-72.08
-65.24
-54.48
-41.11
-26.75
-12.85
-0.40
10.21
19.04
26.34
32.28
36.94
40.28
42.38
43.48
43.99
44.35
44.77
45.22
45.45
45.11
44.07
42.48
40.74
39.28
38.32
37.72
37.02
35.55
32.72
28.26
22.35
15.51
8.51
2.02
-3.55
-8.24
-12.48
-16.89
-22.11
-28.54
-36.20
-44.65
-52.90
-59.61
-63.31
-62.81
-57.61
-48.15
-35.71
-22.02
-8.67
3.24
13.34
21.80
28.95
34.98
39.89
43.52
45.86
47.08
47.57
47.80
48.16
48.85
49.85
50.94
51.89
52.38
52.17
51.07
49.02
46.20
43.05
40.26
38.47
38.08
38.89
40.10
40.47
38.66
33.74
25.38
14.00
0.51
-13.95
-28.26
-41.39
-52.34
-60.09
-63.63
-62.14
-55.26
-43.24
-26.89
-7.57
13.04
33.16
51.10
65.60
75.91
81.88
83.80
82.20
77.62
70.67
62.02
52.57
43.34
35.28
28.94
24.27
20.72
17.50
14.04
10.10
5.75
1.21
-3.45
-8.32
-13.57
-19.31
-25.47
-31.77
-37.82
-43.22
-47.70
-51.14
-53.70
-55.70
-57.66
-60.23
-63.98
-69.17
-75.52
-82.19
-87.91
-91.45
-91.94
-89.13
-83.41
-75.58
-66.55
-57.11
-47.83
-38.99
-30.71
-23.02
-15.83
-9.07
-2.71
3.22
8.55
13.05
16.50
18.82
20.08
20.44
20.08
19.13
17.61
15.49
12.88
10.00
7.14
4.55
2.34
0.57
-0.73
-1.49
-1.70
-1.54
-1.47
-2.21
-4.46
-8.60
-14.59
-21.97
-30.09
-38.36
-46.31
-53.48
-59.34
-63.17
-64.29
-62.33
-57.42
-50.29
-41.91
-33.17
-24.49
-15.74
-6.55
3.29
13.42
22.94
30.72
35.90
38.36
38.74
38.06
37.33
37.02
37.05
36.93
36.16
34.52
32.23
29.77
27.57
25.85
24.44
22.92
20.82
17.81
13.84
8.97
3.47
-2.44
-8.51
-14.54
-20.34
-25.85
-31.18
-36.64
-42.59
-49.18
-56.19
-62.79
-67.82
-70.04
-68.57
-63.22
-54.52
-43.62
-31.88
-20.56
-10.47
-1.97
5.02
10.77
15.57
19.60
22.86
25.35
27.04
28.04
28.53
28.72
28.72
28.61
28.43
28.25
28.28
28.72
29.68
30.99
32.24
32.85
32.30
30.35
27.05
22.73
17.78
12.59
7.46
2.54
-2.14
-6.76
-11.67
-17.27
-23.87
-31.39
-39.21
-46.19
-51.02
-52.60
-50.49
-45.00
-37.11
-28.07
-18.95
-10.42
-2.70
4.24
10.46
15.86
20.26
23.45
25.40
26.29
26.45
26.25
25.96
25.69
25.43
25.09
24.61
23.97
23.23
22.47
21.73
20.96
19.94
18.37
15.96
12.56
8.25
3.40
-1.53
-6.13
-10.22
-13.95
-17.69
-21.88
-26.80
-32.47
-38.57
-44.46
-49.30
-52.20
-52.51
-49.93
-44.69
-37.42
-29.00
-20.26
-11.74
-3.65
4.02
11.33
18.19
24.31
29.38
33.15
35.60
36.89
37.29
37.07
36.39
35.37
34.09
32.69
31.34
30.19
29.29
28.63
28.04
27.33
26.26
24.60
22.16
18.89
14.94
10.62
6.35
2.43
-1.08
-4.41
-8.02
-12.38
-17.82
-24.39
-31.82
-39.53
-46.65
-52.17
-55.14
-54.90
-51.27
-44.71
-36.12
-26.61
-17.19
-8.61
-1.25
4.82
9.68
13.53
16.59
19.05
21.05
22.69
24.00
24.99
25.70
26.15
26.38
26.39
26.13
25.57
24.76
23.84
23.03
22.47
22.15
21.77
20.90
19.06
16.00
11.75
6.67
1.25
-4.09
-9.06
-13.57
-17.64
-21.43
-25.22
-29.39
-34.34
-40.18
-46.48
-52.24
-56.09
-56.76
-53.62
-46.91
-37.64
-27.20
-16.78
-7.09
1.66
9.61
16.91
23.59
29.50
34.44
38.26
40.91
42.46
43.04
42.85
42.06
40.86
39.44
37.93
36.40
34.86
33.26
31.50
29.53
27.32
24.85
22.11
19.02
15.49
11.48
7.04
2.32
-2.40
-6.93
-11.14
-15.08
-18.94
-22.96
-27.37
-32.35
-37.95
-44.10
-50.50
-56.58
-61.51
-64.39
-64.48
-61.46
-55.57
-47.55
-38.37
-28.96
-19.96
-11.63
-3.98
3.07
9.50
15.10
19.59
22.75
24.59
25.37
25.54
25.58
25.77
26.19
26.67
26.99
26.98
26.63
26.01
25.23
24.30
23.13
21.67
19.83
17.64
15.13
12.35
9.32
6.06
2.62
-0.91
-4.42
-7.89
-11.44
-15.31
-19.79
-25.14
-31.43
-38.49
-45.91
-52.93
-58.61
-61.88
-61.87
-58.15
-50.93
-41.08
-29.91
-18.75
-8.58
0.22
7.76
14.35
20.21
25.25
29.19
31.72
32.77
32.59
31.70
30.65
29.81
29.29
28.97
28.63
28.13
27.44
26.65
25.83
25.04
24.15
22.93
21.05
18.27
14.50
9.91
4.87
-0.14
-4.70
-8.63
-11.97
-15.02
-18.16
-21.79
-26.16
-31.39
-37.38
-43.78
-49.98
-55.13
-58.27
-58.61
-55.74
-49.85
-41.70
-32.34
-22.81
-13.83
-5.74
1.44
7.78
13.23
17.67
20.95
23.11
24.35
24.99
25.36
25.65
25.89
25.99
25.86
25.42
24.68
23.68
22.53
21.30
20.04
18.72
17.17
15.14
12.38
8.80
4.54
-0.01
-4.41
-8.31
-11.58
-14.39
-17.01
-19.71
-22.73
-26.24
-30.41
-35.39
-41.15
-47.26
-52.87
-56.78
-57.87
-55.49
-49.75
-41.45
-31.75
-21.74
-12.17
-3.31
4.83
12.37
19.25
25.28
30.15
33.60
35.56
36.19
35.90
35.21
34.54
34.10
33.84
33.58
33.15
32.56
31.91
31.27
30.58
29.62
28.13
25.95
23.10
19.67
15.76
11.37
6.46
1.08
-4.56
-10.15
-15.34
-19.99
-24.21
-28.40
-33.03
-38.54
-45.10
-52.46
-59.93
-66.39
-70.58
-71.45
-68.47
-61.88
-52.56
-41.72
-30.48
-19.62
-9.44
0.05
8.89
17.06
24.40
30.66
35.66
39.35
41.81
43.22
43.75
43.63
43.06
42.28
41.52
40.99
40.78
40.81
40.85
40.61
39.77
38.14
35.69
32.51
28.77
24.65
20.28
15.68
10.85
5.77
0.45
-4.97
-10.32
-15.47
-20.46
-25.55
-31.17
-37.74
-45.42
-53.84
-62.07
-68.78
-72.60
-72.54
-68.31
-60.38
-49.83
-37.99
-26.04
-14.80
-4.66
4.34
12.32
19.35
25.43
30.49
34.41
37.14
38.78
39.53
39.65
39.42
39.06
38.72
38.46
38.23
37.91
37.39
36.59
35.49
34.09
32.42
30.46
28.12
25.28
21.80
17.60
12.73
7.36
1.74
-3.87
-9.32
-14.59
-19.85
-25.38
-31.51
-38.44
-46.13
-54.17
-61.69
-67.53
-70.48
-69.63
-64.66
-56.00
-44.69
-32.11
-19.56
-7.94
2.35
11.27
18.97
25.49
30.75
34.59
36.97
38.04
38.17
37.79
37.32
36.93
36.61
36.24
35.71
35.03
34.34
33.75
33.28
32.81
32.09
30.84
28.83
25.95
22.27
18.05
13.65
9.44
5.69
2.43
-0.60
-3.89
-8.01
-13.45
-20.38
-28.61
-37.51
-46.11
-53.22
-57.65
-58.43
-55.02
-47.37
-36.01
-21.89
-6.23
9.69
24.83
38.45
50.21
60.01
67.87
73.82
77.91
80.23
81.07
80.92
80.45
80.23
80.60
81.50
82.56
83.29
83.28
82.42
80.84
78.74
76.25
73.22
69.29
64.06
57.29
49.06
39.72
29.81
19.72
9.74
-0.08
-9.72
-19.23
-28.71
-38.39
-48.60
-59.50
-70.75
-81.31
-89.49
-93.50
-92.10
-85.27
-74.24
-61.08
-47.99
-36.54
-27.32
-20.13
-14.34
-9.32
-4.66
-0.16
4.30
8.88
13.79
19.15
24.99
31.12
37.19
42.58
46.48
48.01
46.47
41.55
33.43
22.76
10.39
-2.87
-16.45
-30.12
-43.95
-58.17
-73.03
-88.63
-104.70
-120.56
-135.24
-147.67
-157.05
-163.14
-166.36
-167.65
-168.12
-168.63
-169.44
-170.13
-169.71
-166.90
-160.57
-150.05
-135.33
-117.06
-96.35
-74.49
-52.74
-32.18
-13.58
2.58
16.09
27.07
35.86
43.01
49.12
54.65
59.81
64.51
68.47
71.35
72.94
73.27
72.62
71.48
70.38
69.73
69.58
69.52
68.65
65.86
60.35
52.11
42.29
32.89
26.02
22.94
23.43
25.81
27.61
26.58
21.51
12.50
0.67
-12.38
-25.02
-35.79
-43.45
-46.98
-45.72
-39.63
-29.38
-16.24
-1.70
12.92
26.83
39.69
51.46
62.13
71.54
79.38
85.38
89.38
91.53
92.21
91.96
91.34
90.82
90.68
91.03
91.75
92.63
93.35
93.59
93.06
91.48
88.71
84.70
79.62
73.89
68.08
62.81
58.47
55.01
51.99
48.59
43.98
37.72
30.00
21.77
14.44
9.37
7.31
7.99
10.08
11.52
10.32
5.14
-4.28
-17.14
-32.02
-47.45
-62.32
-76.07
-88.59
-99.93
-110.06
-118.75
-125.58
-130.07
-131.86
-130.80
-127.01
-120.80
-112.56
-102.72
-91.69
-79.93
-67.99
-56.61
-46.58
-38.57
-32.92
-29.52
-27.83
-27.13
-26.79
-26.48
-26.24
-26.41
-27.47
-29.85
-33.80
-39.26
-45.80
-52.54
-58.27
-61.66
-61.56
-57.34
-49.12
-37.68
-24.30
-10.38
2.91
14.88
25.27
34.24
42.00
48.68
54.20
58.38
61.04
62.23
62.23
61.49
60.43
59.25
57.97
56.47
54.71
52.79
50.89
49.16
47.50
45.58
42.89
39.06
34.01
28.03
21.67
15.48
9.80
4.52
-0.78
-6.74
-13.91
-22.56
-32.46
-42.81
-52.34
-59.48
-62.82
-61.51
-55.56
-45.87
-33.92
-21.31
-9.24
1.69
11.42
20.18
28.13
35.22
41.21
45.82
48.90
50.49
50.83
50.24
49.05
47.52
45.82
44.04
42.28
40.62
39.09
37.67
36.19
34.37
31.92
28.59
24.32
19.26
13.69
7.97
2.39
-2.98
-8.26
-13.77
-19.92
-27.05
-35.14
-43.73
-51.74
-57.77
-60.38
-58.61
-52.32
-42.22
-29.72
-16.43
-3.71
7.60
17.25
25.38
32.30
38.25
43.29
47.35
50.31
52.09
52.68
52.12
50.46
47.70
43.95
39.52
34.98
31.04
28.25
26.74
26.05
25.24
23.25
19.38
13.58
6.41
-1.16
-8.19
-14.09
-18.78
-22.65
-26.33
-30.50
-35.57
-41.56
-47.98
-53.88
-58.02
-59.27
-56.90
-50.87
-41.79
-30.79
-19.15
-7.98
2.05
10.68
17.95
24.04
29.11
33.18
36.26
38.33
39.52
39.99
39.93
39.44
38.51
37.05
35.07
32.71
30.29
28.16
26.52
25.28
24.02
22.18
19.27
15.14
10.01
4.41
-1.10
-6.08
-10.38
-14.18
-17.83
-21.77
-26.38
-31.91
-38.33
-45.29
-51.97
-57.22
-59.75
-58.56
-53.34
-44.63
-33.66
-21.99
-10.94
-1.23
7.05
14.24
20.68
26.50
31.48
35.24
37.52
38.35
38.14
37.49
37.00
37.03
37.60
38.45
39.18
39.45
39.21
38.66
38.15
38.01
38.27
38.64
38.55
37.41
34.85
30.92
26.11
21.22
17.29
15.29
15.97
19.52
25.41
32.29
38.23
41.24
39.88
33.82
23.93
12.00
0.06
-10.27
-18.09
-23.24
-26.05
-26.97
-26.40
-24.71
-22.29
-19.74
-17.74
-17.00
-18.05
-21.02
-25.67
-31.36
-37.31
-42.79
-47.44
-51.30
-54.73
-58.10
-61.50
-64.61
-66.77
-67.40
-66.30
-63.80
-60.71
-57.88
-55.92
-54.93
-54.58
-54.30
-53.64
-52.36
-50.61
-48.74
-47.29
-46.75
-47.44
-49.33
-51.93
-54.27
-55.20
-53.64
-48.98
-41.28
-31.23
-19.92
-8.46
2.29
11.84
20.02
26.86
32.43
36.80
40.01
42.10
43.12
43.20
42.50
41.25
39.72
38.15
36.68
35.36
34.12
32.89
31.64
30.41
29.25
28.16
27.02
25.59
23.62
20.84
17.08
12.29
6.60
0.28
-6.28
-12.60
-18.24
-22.92
-26.61
-29.55
-32.20
-35.05
-38.37
-42.04
-45.45
-47.69
-47.78
-45.10
-39.64
-31.97
-23.04
-13.84
-5.13
2.70
9.56
15.46
20.38
24.21
26.84
28.24
28.60
28.22
27.51
26.76
26.09
25.46
24.69
23.66
22.32
20.82
19.38
18.16
17.17
16.23
14.99
13.12
10.48
7.13
3.36
-0.48
-4.15
-7.63
-11.10
-14.81
-19.00
-23.80
-29.23
-35.13
-41.16
-46.68
-50.79
-52.52
-51.12
-46.40
-38.87
-29.52
-19.56
-9.98
-1.36
6.08
12.33
17.39
21.18
23.63
24.81
24.96
24.44
23.63
22.78
21.95
21.08
19.99
18.63
17.02
15.31
13.71
12.33
11.14
9.90
8.27
5.90
2.64
-1.45
-6.05
-10.72
-15.06
-18.87
-22.19
-25.37
-28.94
-33.41
-39.08
-45.76
-52.72
-58.79
-62.61
-63.12
-59.83
-52.97
-43.39
-32.28
-20.79
-9.85
-0.07
8.24
15.00
20.24
24.09
26.76
28.46
29.40
29.74
29.56
28.94
27.92
26.61
25.09
23.50
21.95
20.53
19.29
18.16
17.03
15.60
13.60
10.72
6.85
2.10
-3.13
-8.36
-13.16
-17.43
-21.47
-25.89
-31.33
-38.14
-46.15
-54.50
-61.87
-66.77
-67.98
-64.93
-57.84
-47.59
-35.51
-22.97
-11.08
-0.55
8.36
15.74
21.81
26.82
30.96
34.28
36.78
38.41
39.17
39.11
38.39
37.16
35.60
33.85
32.02
30.21
28.51
26.92
25.33
23.51
21.13
17.91
13.78
8.91
3.70
-1.40
-6.14
-10.56
-15.04
-20.15
-26.36
-33.85
-42.32
-50.98
-58.61
-63.85
-65.54
-63.02
-56.37
-46.43
-34.47
-21.89
-9.75
1.30
11.01
19.39
26.49
32.31
36.87
40.28
42.71
44.40
45.47
45.89
45.51
44.13
41.78
38.75
35.59
32.90
31.09
30.12
29.56
28.73
26.94
23.79
19.32
13.89
8.05
2.31
-3.06
-8.04
-12.86
-17.96
-23.79
-30.73
-38.81
-47.55
-55.87
-62.30
-65.29
-63.77
-57.50
-47.20
-34.31
-20.55
-7.38
4.26
14.06
22.08
28.61
33.92
38.19
41.49
43.85
45.30
45.89
45.70
44.85
43.40
41.42
39.03
36.45
34.04
32.12
30.85
30.06
29.25
27.72
24.95
20.72
15.31
9.30
3.32
-2.18
-7.16
-11.89
-16.90
-22.73
-29.75
-38.00
-47.02
-55.82
-63.03
-67.19
-67.20
-62.65
-54.02
-42.53
-29.71
-16.97
-5.22
5.20
14.30
22.24
29.06
34.69
38.99
41.96
43.71
44.48
44.52
44.01
43.01
41.53
39.62
37.44
35.24
33.29
31.81
30.84
30.21
29.47
28.03
25.35
21.15
15.57
9.16
2.70
-3.08
-7.89
-11.88
-15.70
-20.12
-25.80
-32.95
-41.22
-49.76
-57.34
-62.61
-64.44
-62.17
-55.86
-46.26
-34.62
-22.30
-10.47
0.20
9.47
17.39
24.06
29.45
33.46
36.08
37.41
37.77
37.54
37.05
36.46
35.79
34.94
33.86
32.59
31.29
30.13
29.21
28.42
27.49
26.00
23.60
20.12
15.67
10.59
5.37
0.43
-4.06
-8.11
-12.02
-16.15
-20.86
-26.45
-33.00
-40.35
-47.96
-54.90
-59.95
-61.91
-59.96
-54.00
-44.69
-33.31
-21.30
-9.83
0.41
9.27
16.83
23.19
28.25
31.81
33.72
34.06
33.29
32.04
30.90
30.19
29.88
29.67
29.24
28.48
27.52
26.61
25.94
25.46
24.83
23.62
21.47
18.29
14.25
9.69
5.00
0.45
-3.82
-7.83
-11.74
-15.78
-20.22
-25.30
-31.16
-37.75
-44.74
-51.44
-56.89
-59.97
-59.82
-56.02
-48.83
-39.12
-28.11
-16.94
-6.49
2.81
10.84
17.58
22.95
26.82
29.11
29.90
29.50
28.40
27.08
25.93
25.06
24.41
23.78
23.01
22.07
21.12
20.39
20.02
19.91
19.68
18.75
16.61
12.99
8.10
2.48
-3.12
-8.14
-12.35
-15.94
-19.37
-23.12
-27.56
-32.79
-38.63
-44.64
-50.11
-54.12
-55.71
-54.16
-49.19
-41.19
-31.11
-20.16
-9.49
0.06
8.05
14.36
19.06
22.27
24.12
24.81
24.58
23.76
22.69
21.69
20.99
20.64
20.52
20.37
19.96
19.20
18.18
17.14
16.24
15.38
14.24
12.39
9.56
5.78
1.42
-3.04
-7.19
-10.92
-14.40
-18.03
-22.23
-27.36
-33.54
-40.65
-48.13
-55.07
-60.31
-62.71
-61.47
-56.46
-48.26
-37.97
-26.85
-15.95
-5.96
2.88
10.52
16.96
22.09
25.71
27.79
28.49
28.21
27.52
26.88
26.52
26.39
26.29
26.01
25.45
24.68
23.83
23.06
22.38
21.68
20.70
19.11
16.59
13.00
8.40
3.08
-2.49
-7.90
-12.94
-17.71
-22.56
-27.96
-34.27
-41.56
-49.47
-57.22
-63.69
-67.67
-68.09
-64.44
-56.90
-46.38
-34.21
-21.80
-10.20
0.01
8.71
15.97
21.87
26.39
29.47
31.17
31.80
31.84
31.76
31.86
32.13
32.27
31.95
31.02
29.57
27.97
26.59
25.57
24.75
23.68
21.90
19.14
15.45
11.08
6.42
1.75
-2.79
-7.26
-11.83
-16.74
-22.26
-28.64
-36.01
-44.19
-52.62
-60.31
-66.00
-68.48
-66.92
-61.21
-51.96
-40.43
-28.11
-16.32
-5.89
3.01
10.63
17.38
23.51
28.94
33.35
36.43
38.09
38.51
38.11
37.29
36.34
35.30
34.11
32.68
31.03
29.34
27.79
26.49
25.35
24.02
22.06
19.09
14.96
9.90
4.40
-0.94
-5.72
-9.86
-13.66
-17.64
-22.27
-27.86
-34.40
-41.49
-48.37
-54.07
-57.52
-57.81
-54.46
-47.64
-38.08
-26.90
-15.28
-4.15
5.90
14.60
21.82
27.52
31.66
34.35
35.81
36.37
36.37
36.06
35.53
34.81
33.88
32.74
31.43
29.99
28.51
27.07
25.76
24.58
23.36
21.78
19.43
16.03
11.53
6.20
0.55
-4.86
-9.69
-13.95
-17.94
-22.24
-27.46
-33.97
-41.70
-49.98
-57.55
-62.89
-64.62
-61.98
-55.08
-44.85
-32.70
-20.02
-7.90
3.07
12.67
20.83
27.50
32.60
36.08
38.04
38.72
38.50
37.78
36.93
36.14
35.47
34.77
33.89
32.75
31.43
30.19
29.30
28.81
28.46
27.72
25.98
22.84
18.32
12.83
6.98
1.33
-3.81
-8.43
-12.79
-17.27
-22.28
-28.13
-34.96
-42.53
-50.15
-56.63
-60.60
-60.85
-56.81
-48.80
-37.95
-25.81
-13.83
-2.94
6.54
14.68
21.65
27.44
31.87
34.70
35.92
35.79
34.83
33.58
32.49
31.75
31.33
31.05
30.71
30.19
29.48
28.66
27.83
26.98
25.92
24.29
21.73
18.02
13.27
7.94
2.59
-2.34
-6.77
-11.03
-15.64
-21.13
-27.70
-35.20
-43.07
-50.44
-56.31
-59.63
-59.58
-55.73
-48.25
-37.87
-25.81
-13.42
-1.88
8.09
16.23
22.62
27.50
31.06
33.43
34.65
34.86
34.31
33.35
32.39
31.67
31.25
31.00
30.64
30.00
29.01
27.77
26.36
24.82
22.99
20.57
17.33
13.18
8.32
3.16
-1.83
-6.33
-10.24
-13.83
-17.55
-21.93
-27.36
-33.93
-41.30
-48.66
-54.83
-58.54
-58.73
-54.93
-47.43
-37.21
-25.58
-13.87
-3.06
6.34
14.21
20.59
25.53
29.05
31.16
32.01
31.88
31.14
30.12
28.99
27.83
26.58
25.25
23.90
22.68
21.69
20.93
20.22
19.29
17.85
15.68
12.75
9.14
5.09
0.85
-3.29
-7.17
-10.78
-14.30
-18.16
-22.83
-28.70
-35.74
-43.40
-50.54
-55.70
-57.54
-55.25
-48.86
-39.25
-27.79
-16.01
-5.10
4.23
11.75
17.56
21.84
24.79
26.60
27.43
27.52
27.12
26.46
25.70
24.86
23.96
22.96
21.91
20.87
19.92
19.07
18.24
17.24
15.85
13.91
11.32
8.09
4.33
0.18
-4.23
-8.82
-13.55
-18.47
-23.78
-29.67
-36.25
-43.31
-50.15
-55.63
-58.45
-57.59
-52.71
-44.37
-33.82
-22.59
-11.96
-2.60
5.41
12.34
18.42
23.66
27.82
30.63
32.02
32.14
31.39
30.22
28.96
27.74
26.57
