1542398680.00
64.000000
-0.00
-0.00
-0.00
-0.00
-0.00
-0.00
-0.00
-0.00
-0.00
-0.00
0.00
0.01
0.01
-0.00
-0.03
-0.05
-0.05
0.00
0.13
0.36
0.66
1.01
1.37
1.72
2.06
2.40
2.79
3.24
3.80
4.42
5.06
5.66
6.20
6.68
7.15
7.68
8.31
9.14
10.09
11.04
11.88
12.56
13.14
13.76
14.65
15.96
17.91
20.32
22.90
25.38
27.58
29.57
31.68
34.32
37.81
42.54
48.15
54.10
59.83
64.97
69.58
74.14
79.34
85.71
93.76
103.00
112.62
121.73
129.77
136.75
143.30
150.75
157.77
166.64
177.95
191.79
206.97
220.57
228.25
225.36
208.53
176.87
132.76
80.05
23.07
-34.94
-92.44
-149.16
-205.23
-260.37
-313.74
-363.87
-409.83
-450.91
-486.50
-515.74
-537.23
-549.22
-549.96
-538.37
-514.21
-478.67
-433.88
-382.45
-327.02
-269.84
-212.63
-156.66
-102.95
-52.37
-5.90
35.58
71.43
101.35
125.50
144.38
158.69
169.15
176.37
180.75
182.57
182.07
179.51
175.23
169.65
163.18
156.15
148.81
141.30
133.69
126.02
118.33
110.69
103.16
95.80
88.68
81.83
75.25
68.95
62.95
57.25
51.86
46.78
42.03
37.59
33.45
29.61
26.07
22.81
19.83
17.11
14.67
12.48
10.54
8.83
7.35
6.07
4.97
4.05
3.27
2.62
2.09
1.65
1.29
1.01
0.79
0.62
0.51
0.41
0.32
0.22
0.10
-0.02
-0.13
-0.20
-0.21
-0.17
-0.12
-0.07
-0.07
-0.11
-0.19
-0.26
-0.29
-0.25
-0.17
-0.07
-0.01
-0.05
-0.19
-0.40
-0.59
-0.67
-0.60
-0.38
-0.15
-0.04
-0.17
-0.57
-1.13
-1.64
-1.89
-1.75
-1.28
-0.71
-0.38
-0.55
-1.28
-2.36
-3.39
-3.94
-3.76
-2.94
-1.90
-1.19
-1.29
-2.29
-3.88
-5.42
-6.29
-6.14
-5.05
-3.47
-2.03
-1.27
-1.56
-3.13
-5.95
-9.54
-12.69
-13.57
-10.26
-1.81
10.97
25.43
37.93
45.35
46.50
42.15
34.62
26.46
19.35
13.71
9.11
4.95
1.02
-2.43
-5.08
-6.78
-7.69
-8.20
-8.71
-9.42
-10.28
-11.12
-11.72
-11.97
-11.89
-11.61
-11.40
-11.40
-11.65
-12.01
-12.26
-12.24
-12.05
-12.01
-12.43
-13.31
-14.09
-13.76
-11.23
-5.91
1.91
11.00
19.69
26.43
30.38
31.58
30.69
28.70
26.51
24.67
23.37
22.50
21.79
20.90
19.59
17.83
15.77
13.67
11.89
10.63
10.01
10.08
10.78
11.94
13.21
14.07
13.96
12.49
9.81
6.35
2.64
-0.95
-4.33
-7.77
-11.61
-16.05
-21.00
-26.12
-31.07
-35.59
-39.68
-43.58
-47.72
-52.56
-58.48
-65.50
-73.07
-79.95
-84.40
-84.69
-79.68
-69.32
-54.69
-37.69
-20.31
-4.11
10.08
22.13
32.27
40.80
47.90
53.61
57.95
60.94
62.65
63.13
62.44
60.64
57.92
54.58
50.98
47.47
44.21
41.23
38.40
35.59
32.71
29.76
26.74
23.66
20.42
16.93
13.08
8.78
3.98
-1.34
-7.11
-13.15
-19.16
-24.82
-29.96
-34.61
-39.08
-43.87
-49.56
-56.56
-64.86
-73.79
-81.95
-87.44
-88.36
-83.54
-72.98
-57.95
-40.63
-23.26
-7.49
5.96
17.17
26.58
34.54
41.13
46.25
49.84
52.03
53.11
53.41
53.17
52.41
51.04
48.99
46.35
43.37
40.45
37.94
36.01
34.58
33.32
31.79
29.56
26.40
22.26
17.29
11.72
5.76
-0.38
-6.56
-12.66
-18.57
-24.18
-29.43
-34.40
-39.34
-44.78
-51.27
-59.20
-68.38
-77.84
-85.85
-90.39
-89.80
-83.42
-71.84
-56.74
-40.20
-24.12
-9.72
2.55
12.80
21.35
28.48
34.28
38.74
41.85
43.70
44.51
44.57
44.18
43.54
42.70
41.57
40.07
38.19
36.07
33.99
32.18
30.66
29.24
27.49
24.96
21.35
16.59
10.91
4.69
-1.63
-7.70
-13.34
-18.63
-23.84
-29.40
-35.78
-43.37
-52.25
-61.97
-71.52
-79.37
-83.80
-83.43
-77.70
-67.13
-53.16
-37.69
-22.45
-8.55
3.64
14.24
23.53
31.60
38.35
43.62
47.35
49.70
50.99
51.54
51.55
51.06
50.03
48.44
46.42
44.16
41.87
39.72
37.75
35.83
33.73
31.22
28.06
24.15
19.52
14.25
8.49
2.39
-3.93
-10.31
-16.59
-22.60
-28.32
-33.89
-39.71
-46.35
-54.26
-63.42
-73.08
-81.74
-87.50
-88.65
-84.30
-74.69
-61.15
-45.60
-29.86
-15.21
-2.14
9.40
19.62
28.63
36.29
42.46
47.06
50.24
52.28
53.46
53.99
53.97
53.45
52.49
51.19
49.65
47.94
46.10
44.19
42.24
40.27
38.22
35.87
32.88
28.93
23.83
17.64
10.62
3.18
-4.28
-11.48
-18.29
-24.72
-30.95
-37.31
-44.22
-52.12
-61.22
-71.20
-81.02
-89.03
-93.31
-92.39
-85.80
-74.34
-59.80
-44.32
-29.67
-16.77
-5.68
4.04
12.87
20.87
27.78
33.14
36.65
38.35
38.57
37.80
36.45
34.74
32.74
30.43
27.82
24.99
22.08
19.23
16.53
13.94
11.26
8.18
4.31
-0.68
-7.01
-14.61
-23.17
-32.23
-41.26
-49.91
-58.03
-65.75
-73.37
-81.27
-89.78
-99.01
-108.57
-117.43
-123.88
-125.91
-121.78
-110.60
-92.76
-69.88
-44.29
-18.41
5.91
27.64
46.45
62.46
75.88
86.89
95.53
101.81
105.74
107.40
106.95
104.73
101.23
96.95
92.33
87.62
82.93
78.25
73.61
69.12
64.87
60.87
56.90
52.62
47.58
41.51
34.46
26.78
19.01
11.62
4.81
-1.50
-7.60
-13.82
-20.43
-27.67
-35.75
-44.81
-54.75
-64.96
-74.21
-80.80
-83.06
-79.96
-71.55
-58.97
-44.07
-28.74
-14.39
-1.68
9.35
19.00
27.61
35.26
41.86
47.14
50.90
53.12
53.99
53.89
53.20
52.20
50.95
49.44
47.63
45.61
43.57
41.70
40.03
38.36
36.34
33.62
30.02
25.55
20.36
14.67
8.68
2.57
-3.54
-9.53
-15.33
-20.90
-26.30
-31.69
-37.32
-43.58
-50.87
-59.35
-68.66
-77.76
-84.97
-88.48
-86.87
-79.78
-68.10
-53.57
-38.20
-23.59
-10.56
0.79
10.71
19.43
26.97
33.17
37.91
41.21
43.27
44.39
44.82
44.71
44.10
42.97
41.39
39.43
37.30
35.23
33.45
32.01
30.79
29.43
27.52
24.73
20.97
16.40
11.34
6.17
1.14
-3.63
-8.17
-12.56
-16.94
-21.49
-26.33
-31.69
-37.82
-44.94
-53.11
-62.04
-70.89
-78.29
-82.59
-82.33
-76.80
-66.40
-52.47
-36.96
-21.76
-8.22
3.13
12.47
20.37
27.35
33.66
39.19
43.58
46.48
47.82
47.83
47.03
46.01
45.13
44.46
43.78
42.80
41.32
39.33
36.97
34.40
31.70
28.87
25.81
22.40
18.57
14.26
9.48
4.29
-1.18
-6.70
-12.06
-17.19
-22.20
-27.40
-33.22
-39.99
-47.81
-56.35
-64.81
-71.93
-76.26
-76.55
-72.13
-63.25
-50.99
-37.02
-23.02
-10.27
0.61
9.63
17.17
23.67
29.51
34.84
39.65
43.71
46.73
48.40
48.58
47.43
45.39
43.04
40.94
39.44
38.62
38.30
38.11
37.66
36.57
34.63
31.85
28.41
24.59
20.61
16.51
12.16
7.38
2.09
-3.63
-9.54
-15.38
-20.98
-26.26
-31.24
-36.08
-41.12
-46.88
-53.87
-62.20
-71.27
-79.58
-85.09
-85.92
-81.08
-70.94
-57.11
-41.80
-27.06
-14.20
-3.58
5.18
12.75
19.70
26.23
32.19
37.22
40.97
43.28
44.22
44.09
43.24
41.99
40.62
39.30
38.15
37.21
36.39
35.52
34.38
32.75
30.54
27.80
24.66
21.24
17.64
13.81
9.57
4.72
-0.84
-7.05
-13.57
-19.95
-25.75
-30.81
-35.30
-39.73
-44.70
-50.66
-57.56
-64.74
-71.02
-74.91
-75.13
-70.92
-62.39
-50.45
-36.57
-22.36
-9.12
2.35
11.83
19.48
25.63
30.57
34.42
37.20
38.88
39.49
39.20
38.35
37.33
36.43
35.74
35.08
34.22
32.92
31.17
29.09
26.88
24.63
22.28
19.66
16.61
13.04
8.95
4.41
-0.49
-5.66
-10.91
-16.03
-20.81
-25.23
-29.48
-34.04
-39.52
-46.41
-54.79
-64.11
-73.11
-80.06
-83.15
-81.10
-73.66
-61.65
-46.79
-31.14
-16.42
-3.71
6.67
14.95
21.58
27.03
31.64
35.62
38.99
41.69
43.50
44.31
44.10
43.01
41.34
39.37
37.31
35.26
33.20
31.14
29.16
27.34
25.78
24.37
22.80
20.62
17.39
12.89
7.23
0.85
-5.64
-11.69
-17.02
-21.64
-25.85
-30.10
-34.86
-40.59
-47.62
-56.06
-65.47
-74.71
-82.07
-85.67
-84.12
-77.05
-65.32
-50.69
-35.18
-20.43
-7.31
4.05
13.91
22.53
30.04
36.38
41.42
45.10
47.48
48.63
48.72
47.95
46.57
44.89
43.16
41.52
39.96
38.40
36.76
35.05
33.37
31.76
30.12
28.21
25.65
22.16
17.57
12.02
5.79
-0.73
-7.20
-13.41
-19.34
-25.07
-30.76
-36.64
-43.00
-50.12
-58.13
-66.79
-75.24
-82.06
-85.59
-84.45
-78.09
-67.08
-52.86
-37.34
-22.23
-8.67
2.91
12.54
20.53
27.13
32.50
36.69
39.68
41.54
42.40
42.58
42.40
42.06
41.52
40.59
39.01
36.75
34.06
31.47
29.44
28.17
27.40
26.51
24.75
21.60
16.91
10.92
4.20
-2.61
-8.97
-14.57
-19.43
-23.86
-28.39
-33.67
-40.27
-48.40
-57.76
-67.36
-75.64
-80.82
-81.36
-76.50
-66.54
-52.74
-36.94
-21.03
-6.39
6.25
16.85
25.68
33.05
39.16
44.01
47.59
49.94
51.24
51.74
51.73
51.36
50.64
49.52
47.96
45.96
43.65
41.21
38.85
36.67
34.62
32.49
29.98
26.75
22.55
17.37
11.38
4.93
-1.60
-7.94
-13.97
-19.74
-25.43
-31.34
-37.80
-45.15
-53.63
-63.13
-72.96
-81.81
-87.96
-89.76
-86.19
-77.20
-63.84
-47.89
-31.33
-15.81
-2.31
8.93
18.22
26.14
33.25
39.82
45.83
51.00
54.97
57.53
58.65
58.56
57.56
55.98
54.12
52.21
50.38
48.69
47.09
45.40
43.39
40.90
37.90
34.49
30.74
26.65
22.08
16.80
10.69
3.82
-3.52
-10.94
-18.07
-24.65
-30.57
-35.88
-40.82
-45.84
-51.55
-58.51
-66.86
-75.96
-84.31
-89.86
-90.67
-85.63
-74.94
-60.00
-42.97
-25.97
-10.56
2.58
13.45
22.44
30.01
36.43
41.75
45.90
48.74
50.25
50.56
50.03
49.04
47.94
46.84
45.70
44.33
42.61
40.59
38.50
36.60
34.94
33.27
31.12
28.00
23.66
18.23
12.11
5.73
-0.56
-6.66
-12.61
-18.45
-24.17
-29.76
-35.31
-41.13
-47.70
-55.41
-64.19
-73.24
-81.00
-85.57
-85.32
-79.46
-68.41
-53.68
-37.29
-21.16
-6.58
5.98
16.61
25.66
33.40
39.92
45.17
49.13
51.82
53.36
53.89
53.56
52.55
51.07
49.44
47.93
46.75
45.88
45.10
44.14
42.74
40.80
38.34
35.45
32.16
28.40
24.03
18.92
13.09
6.74
0.18
-6.24
-12.32
-17.97
-23.28
-28.49
-33.97
-40.22
-47.73
-56.62
-66.42
-75.83
-82.88
-85.54
-82.46
-73.53
-60.04
-44.14
-28.08
-13.49
-1.06
9.25
17.83
24.99
30.84
35.40
38.78
41.19
42.95
44.27
45.18
45.54
45.23
44.29
42.95
41.59
40.52
39.76
39.04
37.89
35.87
32.85
29.07
25.03
21.14
17.54
13.94
9.81
4.72
-1.34
-7.96
-14.44
-20.16
-24.87
-28.80
-32.59
-37.00
-42.68
-49.95
-58.70
-68.26
-77.40
-84.44
-87.60
-85.52
-77.81
-65.24
-49.59
-33.07
-17.58
-4.25
6.73
15.82
23.64
30.58
36.61
41.44
44.74
46.39
46.57
45.65
44.05
42.10
39.92
37.54
35.00
32.44
30.05
28.00
26.32
24.85
23.28
21.25
18.47
14.80
10.28
5.12
-0.36
-5.81
-10.94
-15.70
-20.24
-24.83
-29.83
-35.52
-42.13
-49.77
-58.36
-67.44
-75.98
-82.45
-85.14
-82.74
-74.94
-62.60
-47.51
-31.72
-16.82
-3.60
7.96
18.29
27.71
36.22
43.48
49.05
52.63
54.24
54.21
53.08
51.42
49.67
48.05
46.63
45.35
44.14
42.96
41.77
40.50
39.01
37.11
34.61
31.35
27.27
22.44
17.03
11.35
5.68
0.26
-4.88
-9.86
-14.92
-20.34
-26.33
-33.03
-40.60
-49.20
-58.88
-69.27
-79.35
-87.45
-91.62
-90.33
-83.07
-70.64
-54.93
-38.24
-22.55
-9.04
2.04
11.02
18.52
25.03
30.80
35.88
40.19
43.57
45.87
46.91
46.61
45.06
42.54
39.52
36.52
33.98
32.06
30.67
29.46
28.04
26.08
23.45
20.21
16.55
12.63
8.54
4.28
-0.25
-5.16
-10.46
-16.06
-21.77
-27.34
-32.64
-37.73
-42.95
-48.80
-55.79
-64.12
-73.40
-82.52
-89.80
-93.41
-91.94
-84.94
-73.07
-57.93
-41.45
-25.39
-10.90
1.65
12.38
21.63
29.69
36.63
42.44
47.06
50.50
52.83
54.18
54.66
54.34
53.32
51.74
49.77
47.67
45.58
43.63
41.80
40.03
38.21
36.16
33.68
30.53
26.48
21.39
15.35
8.59
1.53
-5.40
-11.84
-17.64
-22.88
-27.90
-33.23
-39.43
-46.99
-56.00
-65.92
-75.53
-83.13
-86.91
-85.56
-78.70
-67.07
-52.28
-36.30
-20.95
-7.36
4.06
13.48
21.30
27.92
33.44
37.82
40.96
42.78
43.35
42.89
41.75
40.28
38.79
37.44
36.21
34.97
33.62
32.15
30.65
29.26
28.00
26.70
24.95
22.28
18.35
13.16
7.07
0.69
-5.40
-10.89
-15.85
-20.67
-25.90
-32.04
-39.38
-47.96
-57.46
-67.10
-75.57
-81.25
-82.55
-78.47
-69.04
-55.39
-39.46
-23.26
-8.34
4.58
15.54
24.99
33.38
40.82
47.19
52.21
55.66
57.53
58.03
57.54
56.50
55.22
53.86
52.44
50.89
49.17
47.32
45.37
43.33
41.11
38.52
35.42
31.73
27.44
22.66
17.47
11.97
6.24
0.34
-5.68
-11.77
-17.94
-24.20
-30.60
-37.21
-44.26
-51.97
-60.54
-69.79
-78.90
-86.38
-90.37
-89.26
-82.37
-70.27
-54.74
-38.05
-22.25
-8.53
2.88
12.49
20.98
28.81
36.04
42.46
47.77
51.74
54.38
55.76
56.06
55.39
53.93
51.86
49.46
47.07
44.96
43.27
41.82
40.18
37.90
34.61
30.34
25.43
20.37
15.57
11.18
6.98
2.63
-2.19
-7.57
-13.31
-19.09
-24.62
-29.85
-35.01
-40.53
-46.88
-54.37
-62.91
-71.90
-80.16
-86.12
-88.17
-85.16
-76.78
-63.81
-47.95
-31.34
-15.92
-2.91
7.45
15.63
22.42
28.40
33.75
38.24
41.59
43.66
44.63
44.86
44.73
44.42
43.90
43.06
41.84
40.34
38.75
37.23
35.80
34.35
32.67
30.56
27.91
24.68
20.88
16.55
11.82
6.91
2.12
-2.31
-6.28
-9.98
-13.78
-18.13
-23.47
-30.07
-38.05
-47.19
-56.88
-65.92
-72.72
-75.57
-73.21
-65.36
-52.90
-37.69
-21.94
-7.52
4.51
14.10
21.90
28.75
35.27
41.66
47.65
52.75
56.53
58.78
59.54
59.07
57.73
55.80
53.52
51.01
48.31
45.41
42.30
38.98
35.51
31.93
28.19
24.15
19.63
14.48
8.72
2.50
-3.89
-10.18
-16.22
-21.98
-27.55
-33.01
-38.45
-43.97
-49.76
-56.12
-63.37
-71.64
-80.61
-89.31
-96.19
-99.49
-97.84
-90.74
-78.84
-63.67
-47.20
-31.21
-16.90
-4.80
5.12
13.24
20.00
25.81
30.92
35.42
39.18
41.93
43.46
43.70
42.83
41.27
39.51
37.99
36.94
36.31
35.81
35.08
33.79
31.77
29.05
25.78
22.14
18.24
14.11
9.72
4.99
-0.08
-5.51
-11.22
-17.09
-22.97
-28.66
-34.07
-39.32
-44.79
-51.06
-58.64
-67.57
-77.20
-86.06
-92.19
-93.78
-89.73
-80.17
-66.37
-50.36
-34.21
-19.44
-6.78
3.81
12.73
20.41
27.04
32.61
36.98
40.07
41.89
42.60
42.43
41.65
40.49
39.18
37.84
36.57
35.47
34.60
33.91
33.27
32.37
30.84
28.32
24.61
19.74
14.01
7.82
1.56
-4.47
-10.21
-15.74
-21.24
-26.94
-33.07
-39.88
-47.68
-56.70
-66.94
-77.83
-88.11
-95.89
-99.19
-96.55
-87.68
-73.67
-56.58
-38.70
-21.87
-7.01
5.87
17.15
27.19
36.07
43.56
49.43
53.57
56.13
57.42
57.81
57.54
56.76
55.57
54.03
52.25
50.36
48.49
46.74
45.11
43.50
41.71
39.43
36.31
32.02
26.38
19.43
11.53
3.22
-4.91
-12.42
-19.17
-25.40
-31.61
-38.38
-46.25
-55.55
-66.36
-78.36
-90.71
-102.02
-110.43
-114.00
-111.31
-102.00
-87.00
-68.30
-48.26
-28.96
-11.61
3.48
16.66
28.41
39.03
48.49
56.56
62.99
67.65
70.58
71.95
72.05
71.15
69.61
67.75
65.82
63.96
62.15
60.23
58.04
55.44
52.38
48.86
44.87
40.34
35.19
29.33
22.78
15.66
8.12
0.37
-7.46
-15.29
-23.13
-31.08
-39.32
-48.14
-57.83
-68.59
-80.17
-91.68
-101.54
-107.68
-108.22
-102.17
-89.78
-72.60
-52.89
-32.88
-14.15
2.56
17.23
30.09
41.28
50.76
58.38
64.11
68.08
70.56
71.82
72.06
71.43
70.04
68.06
65.68
63.12
60.50
57.91
55.32
52.68
49.90
46.83
43.26
38.95
33.65
27.31
20.07
12.31
4.50
-2.93
-9.84
-16.28
-22.56
-29.06
-36.23
-44.46
-54.01
-64.89
-76.50
-87.48
-95.85
-99.42
-96.57
-86.85
-71.26
-51.90
-31.30
-11.58
6.03
21.22
34.28
45.59
55.36
63.51
69.78
74.00
76.21
76.71
75.99
74.62
72.98
71.23
69.22
66.71
63.57
59.94
56.17
52.67
49.62
46.83
43.72
39.56
33.86
26.53
18.00
9.04
0.41
-7.44
-14.47
-21.01
-27.55
-34.50
-42.19
-50.84
-60.61
-71.38
-82.54
-92.71
-99.86
-101.87
-97.27
-85.99
-69.45
-50.13
-30.66
-12.97
2.11
14.76
25.57
35.09
43.47
50.55
56.06
59.85
62.01
62.78
62.49
61.40
59.70
57.55
55.11
52.54
49.93
47.32
44.65
41.78
38.61
35.02
30.97
26.42
21.30
15.61
9.36
2.71
-4.13
-10.87
-17.28
-23.17
-28.57
-33.67
-38.88
-44.78
-51.99
-60.92
-71.47
-82.74
-93.06
-100.30
-102.43
-98.24
-87.82
-72.52
-54.55
-36.29
-19.55
-5.25
6.59
16.50
25.16
33.05
40.32
46.89
52.54
57.03
60.20
61.93
62.22
61.17
59.10
56.45
53.80
51.63
50.18
49.35
48.63
47.36
44.96
41.19
36.22
30.56
24.81
19.40
14.40
9.56
4.49
-1.05
-7.06
-13.23
-19.11
-24.44
-29.24
-33.90
-39.04
-45.28
-52.95
-61.89
-71.33
-79.92
-85.98
-87.92
-84.66
-76.06
-63.00
-47.26
-30.93
-15.89
-3.27
6.72
14.53
20.99
26.81
32.31
37.46
41.93
45.37
47.51
48.28
47.84
46.44
44.43
42.14
39.80
37.50
35.22
32.89
30.49
28.05
25.59
23.09
20.39
17.26
13.52
9.11
4.13
-1.18
-6.60
-11.94
-17.10
-22.00
-26.57
-30.87
-35.10
-39.71
-45.23
-51.99
-59.85
-67.98
-74.92
-78.98
-78.72
-73.43
-63.49
-50.19
-35.40
-21.00
-8.33
2.06
10.35
17.10
22.93
28.14
32.78
36.65
39.55
41.37
42.18
42.14
41.49
40.47
39.28
38.11
37.00
35.96
34.91
33.78
32.46
30.87
28.90
26.46
23.47
19.93
15.93
11.61
7.12
2.57
-2.03
-6.71
-11.49
-16.34
-21.19
-26.02
-30.89
-36.05
-41.87
-48.71
-56.57
-64.94
-72.61
-78.00
-79.56
-76.36
-68.47
-56.94
-43.49
-29.86
-17.35
-6.49
2.80
10.91
18.20
24.78
30.60
35.47
39.24
41.85
43.28
43.57
42.74
40.90
38.29
35.28
32.32
29.86
28.11
27.02
26.26
25.33
23.82
21.52
18.52
15.06
11.38
7.57
3.50
-1.02
-6.05
-11.44
-16.88
-22.00
-26.63
-30.84
-34.89
-39.12
-43.81
-49.14
-55.21
-61.99
-69.15
-75.92
-81.08
-83.15
-80.96
-74.14
-63.35
-50.09
-36.20
-23.20
-11.86
-2.28
5.94
13.19
19.67
25.34
30.06
33.72
36.30
37.79
38.23
37.70
36.37
34.53
32.53
30.67
29.10
27.77
26.54
25.31
24.04
22.71
21.30
19.64
17.50
14.70
11.18
7.07
2.58
-2.12
-6.98
-12.04
-17.33
-22.76
-28.14
-33.35
-38.48
-43.96
-50.29
-57.71
-65.72
-73.06
-77.93
-78.63
-74.25
-65.01
-52.19
-37.68
-23.30
-10.33
0.70
9.86
17.59
24.31
30.23
35.37
39.58
42.71
44.69
45.61
45.65
45.09
44.24
43.37
42.64
42.13
41.75
41.36
40.75
39.74
38.22
36.14
33.48
30.14
26.02
21.06
15.29
8.90
2.13
-4.77
-11.69
-18.63
-25.64
-32.76
-40.07
-47.75
-56.09
-65.26
-75.14
-84.93
-93.19
-98.16
-98.31
-92.97
-82.63
-68.72
-53.13
-37.57
-23.18
-10.41
0.77
10.58
19.22
26.71
32.97
37.85
41.26
43.22
43.92
43.70
42.91
41.88
40.85
39.95
39.24
38.74
38.41
38.13
37.72
36.96
35.64
33.63
30.82
27.19
22.72
17.46
11.51
5.10
-1.45
-7.86
-13.99
-19.88
-25.78
-31.96
-38.70
-46.21
-54.64
-63.98
-73.82
-83.24
-90.70
-94.40
-92.78
-85.17
-72.17
-55.53
-37.60
-20.53
-5.64
6.75
17.11
26.17
34.44
42.02
48.67
54.00
57.72
59.78
60.34
59.65
58.05
55.92
53.63
51.56
49.97
48.85
47.94
46.83
45.12
42.62
39.36
35.58
31.50
27.21
22.59
17.39
11.45
4.80
-2.31
-9.46
-16.30
-22.63
-28.49
-34.17
-40.06
-46.64
-54.30
-63.15
-72.83
-82.26
-89.73
-93.34
-91.54
-83.79
-70.85
-54.50
-36.97
-20.21
-5.37
7.24
17.90
27.07
35.08
42.02
47.76
52.16
55.13
56.75
57.23
56.82
55.77
54.28
52.47
50.41
48.21
46.05
44.14
42.61
41.40
40.21
38.54
35.91
32.04
26.95
20.95
14.47
7.91
1.51
-4.69
-10.76
-16.83
-23.00
-29.44
-36.37
-44.07
-52.71
-62.15
-71.68
-80.00
-85.44
-86.43
-82.06
-72.40
-58.58
-42.39
-25.77
-10.22
3.43
15.06
24.93
33.37
40.56
46.49
51.06
54.23
56.05
56.76
56.64
55.96
54.90
53.53
51.87
49.93
47.81
45.63
43.52
41.45
39.36
37.03
34.25
30.80
26.54
21.41
15.44
8.75
1.61
-5.61
-12.52
-18.86
-24.59
-29.95
-35.47
-41.73
-49.31
-58.42
-68.76
-79.34
-88.59
-94.64
-95.84
-91.31
-81.26
-66.96
-50.34
-33.40
-17.63
-3.78
8.05
18.18
26.97
34.65
41.29
46.89
51.42
54.80
56.96
57.84
57.50
56.13
54.14
51.91
49.79
47.96
46.33
44.74
42.92
40.71
38.03
34.93
31.46
27.69
23.53
18.83
13.48
7.46
0.97
-5.66
-12.08
-18.07
-23.65
-29.06
-34.66
-40.81
-47.86
-55.98
-65.13
-74.84
-84.02
-91.06
-94.15
-91.92
-83.98
-71.19
-55.40
-38.78
-23.18
-9.58
1.88
11.64
20.23
27.97
34.86
40.63
45.06
48.08
49.82
50.58
50.68
50.34
49.64
48.52
46.91
44.84
42.45
40.00
37.71
35.64
33.66
31.47
28.72
25.11
20.58
15.27
9.48
3.59
-2.13
-7.55
-12.77
-17.96
-23.36
-29.15
-35.54
-42.70
-50.76
-59.62
-68.65
-76.67
-81.99
-83.01
-78.77
-69.44
-56.32
-41.37
-26.51
-13.05
-1.41
8.64
17.58
25.72
33.10
39.46
44.55
48.15
50.25
51.02
50.76
49.84
48.61
47.33
46.08
44.81
43.46
41.98
40.39
38.67
36.71
34.28
31.13
27.15
22.41
17.19
11.82
6.52
1.31
-3.92
-9.29
-14.85
-20.61
-26.56
-32.86
-39.86
-47.90
-57.12
-67.12
-76.86
-84.74
-89.00
-88.34
-82.34
-71.67
-57.83
-42.64
-27.71
-14.06
-2.04
8.45
17.73
26.02
33.38
39.71
44.86
48.72
51.32
52.73
53.10
52.54
51.18
49.17
46.73
44.15
41.69
39.50
37.51
35.54
33.33
30.74
27.72
24.28
20.40
15.94
10.74
4.67
-2.16
-9.51
-16.96
-24.15
-30.84
-37.03
-42.91
-48.86
-55.40
-63.05
-72.16
-82.58
-93.46
-103.20
-109.81
-111.43
-106.98
-96.58
-81.50
-63.84
-45.83
-29.19
-14.84
-2.81
7.41
16.52
24.96
32.83
39.84
45.56
49.64
52.03
52.98
52.89
52.15
51.01
49.57
47.85
45.88
43.78
41.62
39.45
37.17
34.64
31.70
28.20
24.05
19.17
13.45
6.83
-0.64
-8.71
-16.96
-24.92
-32.27
-38.96
-45.31
-51.88
-59.34
-68.23
-78.64
-90.02
-101.08
-109.90
-114.41
-113.00
-105.09
-91.41
-73.79
-54.52
-35.68
-18.51
-3.39
9.97
22.09
33.22
43.22
51.60
57.90
61.86
63.69
63.91
63.19
62.05
60.75
59.28
57.53
55.48
53.22
50.97
48.85
46.83
44.62
41.79
37.89
32.62
25.90
17.95
9.19
0.13
-8.76
-17.24
-25.25
-32.97
-40.80
-49.28
-58.98
-70.24
-82.89
-95.91
-107.39
-114.95
-116.39
-110.50
-97.52
-79.11
-57.77
-35.97
-15.46
3.01
19.46
34.26
47.61
59.38
69.20
76.72
81.84
84.75
85.86
85.66
84.51
82.67
80.25
77.36
74.04
70.45
66.76
63.19
59.89
56.79
53.59
49.71
44.51
37.48
28.51
18.02
6.77
-4.39
-14.79
-24.18
-32.72
-40.92
-49.45
-59.02
-70.26
-83.44
-98.16
-113.07
-125.86
-133.76
-134.33
-126.37
-110.44
-88.67
-64.07
-39.47
-16.81
3.18
20.68
36.23
50.21
62.63
73.20
81.55
87.48
91.02
92.46
92.20
90.67
88.26
85.23
81.80
78.10
74.26
70.41
66.67
63.11
59.64
55.99
51.70
46.26
39.31
30.87
21.32
11.36
1.68
-7.29
-15.51
-23.32
-31.28
-40.00
-50.02
-61.73
-75.14
-89.70
-103.94
-115.60
-122.01
-120.89
-111.19
-93.56
-70.19
-44.12
-18.22
5.50
26.26
44.20
59.88
73.74
85.79
95.68
102.94
107.26
108.70
107.69
104.94
101.11
96.65
91.64
85.92
79.29
71.70
63.35
54.59
45.82
37.22
28.77
20.24
11.41
2.18
-7.29
-16.65
-25.43
-33.31
-40.20
-46.28
-52.00
-57.89
-64.53
-72.46
-82.08
-93.49
-106.14
-118.61
-128.63
-133.55
-131.13
-120.47
-102.38
-79.18
-53.92
-29.33
-7.15
12.05
28.45
42.46
54.23
63.60
70.31
74.28
75.84
75.64
74.40
72.69
70.79
68.69
66.28
63.50
60.47
57.45
54.69
52.31
50.15
47.75
44.48
39.76
33.23
24.97
15.49
5.61
-3.83
-12.33
-19.83
-26.83
-34.16
-42.76
-53.30
-65.90
-79.84
-93.55
-104.74
-111.00
-110.41
-102.31
-87.51
-68.12
-46.75
-25.69
-6.37
10.78
25.91
39.28
50.93
60.62
68.08
73.27
76.41
77.92
78.16
77.37
75.64
73.00
69.56
65.58
61.40
57.35
53.67
50.44
47.50
44.54
41.08
36.62
30.78
23.45
14.88
5.60
-3.70
-12.46
-20.44
-27.78
-34.96
-42.69
-51.64
-62.21
-74.18
-86.56
-97.54
-104.88
-106.50
-101.25
-89.38
-72.47
-52.91
-33.12
-14.78
1.41
15.57
28.17
39.51
49.54
57.88
64.14
68.10
69.85
69.82
68.59
66.66
64.38
61.88
59.13
56.11
52.89
49.63
46.57
43.81
41.23
38.46
35.00
30.39
24.40
17.17
9.11
0.84
-7.11
-14.40
-21.04
-27.29
-33.65
-40.62
-48.65
-58.05
-68.80
-80.36
-91.48
-100.24
-104.50
-102.58
-93.93
-79.48
-61.35
-42.08
-23.80
-7.69
6.03
17.74
27.88
36.64
43.99
49.82
54.08
56.83
58.23
58.46
57.74
56.31
54.41
52.22
49.86
47.35
44.72
42.06
39.50
37.21
35.24
33.42
31.36
28.56
24.57
19.25
12.81
5.75
-1.33
-7.92
-13.83
-19.13
-24.10
-29.15
-34.74
-41.30
-49.21
-58.46
-68.44
-77.78
-84.58
-86.90
-83.46
-74.18
-60.21
-43.59
-26.54
-10.83
2.59
13.52
22.28
29.27
34.79
38.95
41.75
43.27
43.70
43.25
42.14
40.45
38.20
35.43
32.26
28.86
25.39
21.91
18.33
14.52
10.32
5.68
0.63
-4.83
-10.61
-16.53
-22.18
-27.07
-30.81
-33.32
-35.00
-36.53
-38.63
-41.80
-46.23
-51.75
-57.97
-64.15
-69.18
-71.67
-70.20
-63.91
-52.80
-37.96
-21.26
-4.76
9.90
21.88
31.13
38.24
43.96
48.90
53.27
56.92
59.40
60.33
59.63
57.55
54.55
50.99
46.91
42.20
36.81
31.06
25.69
21.53
19.05
18.03
17.58
16.53
14.08
10.07
5.04
-0.18
-4.92
-8.98
-12.62
-16.39
-20.78
-26.14
-32.68
-40.50
-49.59
-59.68
-70.10
-79.70
-87.13
-91.11
-90.92
-86.66
-79.15
-69.54
-58.91
-47.95
-36.95
-26.09
-15.63
-6.07
2.02
8.11
12.02
13.95
14.51
14.51
14.78
15.95
18.31
21.78
25.91
30.02
33.43
35.61
36.31
35.56
33.52
30.46
26.58
22.07
16.99
11.31
5.02
-1.69
-8.30
-14.04
-18.21
-20.54
-21.46
-21.99
-23.29
-26.13
-30.52
-35.66
-40.27
-43.01
-42.87
-39.36
-32.57
-23.06
-11.71
0.48
12.55
23.63
32.94
39.77
43.62
44.31
42.20
38.11
33.04
27.69
22.19
16.24
9.45
1.97
-5.38
-11.40
-15.09
-16.23
-15.43
-13.86
-12.62
-12.34
-13.06
-14.57
-16.67
-19.39
-22.84
-26.97
-31.42
-35.66
-39.34
-42.60
-46.06
-50.55
-56.70
-64.70
-74.33
-85.32
-97.57
-111.01
-125.15
-138.64
-149.21
-154.21
-151.64
-140.98
-123.53
-101.90
-79.06
-57.35
-38.02
-21.22
-6.53
6.50
18.00
27.77
35.48
40.90
44.07
45.29
45.02
43.66
41.42
38.37
34.50
29.97
25.15
20.63
16.93
14.27
12.38
10.50
7.78
3.59
-2.09
-8.68
-15.22
-20.87
-25.26
-28.74
-32.08
-36.22
-41.84
-49.18
-57.86
-66.95
-75.05
-80.47
-81.66
-77.55
-68.04
-54.03
-37.16
-19.31
-2.07
13.47
26.67
37.13
44.58
48.89
50.32
49.64
47.98
46.54
46.11
46.92
48.64
50.78
52.94
54.91
56.54
57.46
56.88
53.73
47.09
36.62
22.97
7.60
-7.60
-20.89
-31.10
-37.66
-40.43
-39.49
-35.09
-27.89
-19.17
-10.79
-4.75
-2.42
-3.89
-7.79
-11.80
-13.63
-11.97
-6.98
-0.08
6.88
12.54
16.56
19.60
22.78
26.90
32.07
37.59
42.43
45.65
46.87
46.26
44.40
41.94
39.34
36.91
34.86
33.43
32.85
33.20
34.25
35.36
35.70
34.42
31.08
25.71
18.78
11.01
3.06
-4.71
-12.23
-19.71
-27.49
-35.86
-45.00
-54.87
-65.08
-74.89
-83.23
-88.86
-90.61
-87.63
-79.65
-67.12
-51.14
-33.29
-15.29
1.47
16.21
28.94
40.31
51.20
62.38
74.08
85.93
96.99
106.13
112.21
114.38
112.21
105.87
96.25
84.88
73.76
64.73
59.01
56.74
57.02
58.15
58.35
56.41
52.08
46.13
39.90
34.66
30.91
28.08
24.68
19.00
9.91
-2.55
-17.07
-31.64
-44.45
-54.55
-62.00
-67.21
-70.08
-69.51
-63.67
-51.10
-31.86
-8.08
16.57
38.24
54.39
64.62
70.28
73.38
75.37
76.46
75.97
73.04
67.55
60.27
52.52
45.54
39.86
35.23
30.86
25.92
20.00
13.30
6.50
0.41
-4.40
-7.94
-10.85
-14.11
-18.56
-24.48
-31.33
-37.83
-42.40
-43.64
-40.82
-34.03
-24.08
-12.27
-0.04
11.41
21.19
28.93
34.72
39.03
42.51
45.74
48.97
52.06
54.54
55.76
55.22
52.72
48.47
43.06
37.31
32.10
28.24
26.39
26.92
29.84
34.69
40.51
45.91
49.30
49.34
45.28
37.28
26.41
14.34
2.89
-6.52
-13.32
-17.88
-21.31
-25.05
-30.30
-37.56
-46.37
-55.43
-62.90
-67.03
-66.71
-61.76
-52.99
-41.83
-29.83
-18.22
-7.66
1.63
9.68
16.53
22.09
26.21
28.78
29.87
29.77
28.85
27.54
26.12
24.73
23.37
21.94
20.40
18.79
17.20
15.65
14.05
12.08
9.38
5.71
1.10
-4.11
-9.44
-14.45
-18.98
-23.19
-27.52
-32.46
-38.43
-45.53
-53.40
-61.09
-67.27
-70.45
-69.51
-64.18
-55.12
-43.77
-31.76
-20.48
-10.63
-2.29
4.77
10.84
15.99
20.17
23.32
25.48
26.82
27.52
27.69
27.34
26.36
24.72
22.50
19.99
17.59
15.65
14.36
13.49
12.55
10.91
8.07
3.97
-1.06
-6.40
-11.45
-15.85
-19.66
-23.27
-27.20
-31.92
-37.70
-44.39
-51.36
-57.55
-61.61
-62.31
-59.00
-51.95
-42.29
-31.69
-21.70
-13.22
-6.37
-0.65
4.61
9.79
14.82
19.28
22.66
24.68
25.40
25.20
24.49
23.58
22.53
21.20
19.43
17.20
14.72
12.38
10.52
9.27
8.33
7.18
5.24
2.18
-1.92
-6.62
-11.30
-15.45
-18.87
-21.67
-24.23
-27.03
-30.50
-34.95
-40.47
-46.82
-53.31
-58.79
-61.91
-61.50
-57.10
-49.20
-39.08
-28.36
-18.39
-9.86
-2.74
3.35
8.77
13.61
17.73
20.89
23.03
24.27
24.85
25.01
24.89
24.51
23.86
22.88
21.51
19.72
17.59
15.31
13.18
11.50
10.35
9.55
8.63
7.10
4.60
1.13
-3.05
-7.47
-11.71
-15.56
-19.05
-22.40
-25.98
-30.20
-35.40
-41.64
-48.59
-55.37
-60.75
-63.41
-62.44
-57.66
-49.75
-39.95
-29.64
-19.86
-11.12
-3.46
3.33
9.40
14.71
19.09
22.36
24.50
25.66
26.11
26.13
25.90
25.45
24.70
23.56
22.02
20.19
18.31
16.66
15.40
14.49
13.67
12.52
10.66
7.83
4.01
-0.58
-5.55
-10.49
-15.06
-19.12
-22.79
-26.44
-30.54
-35.56
-41.71
-48.77
-56.02
-62.34
-66.41
-67.15
-64.03
-57.30
-47.90
-37.18
-26.39
-16.41
-7.58
0.17
7.04
13.13
18.38
22.56
25.49
27.13
27.65
27.42
26.86
26.37
26.17
26.35
26.78
27.28
27.64
27.73
27.52
26.94
25.85
23.94
20.89
16.48
10.79
4.24
-2.57
-9.08
-14.95
-20.23
-25.24
-30.43
-36.24
-42.93
-50.62
-59.06
-67.61
-75.10
-80.06
-81.07
-77.28
-68.80
-56.78
-42.95
-29.03
-16.20
-4.83
5.27
14.45
22.78
30.02
35.74
39.66
41.83
42.65
42.66
42.34
41.88
41.27
40.39
39.11
37.48
35.65
33.85
32.25
30.92
29.70
28.27
26.16
22.97
18.42
12.57
5.76
-1.46
-8.53
-15.07
-21.01
-26.59
-32.26
-38.57
-45.99
-54.74
-64.63
-74.91
-84.30
-91.14
-93.87
-91.42
-83.63
-71.32
-56.02
-39.48
-23.24
-8.26
5.08
16.78
27.02
35.92
43.54
49.85
54.78
58.28
60.37
61.18
60.95
59.99
58.59
56.92
55.06
53.00
50.78
48.48
46.17
43.84
41.29
38.23
34.36
29.50
23.74
17.36
10.71
4.08
-2.36
-8.64
-14.90
-21.33
-28.13
-35.54
-43.78
-53.04
-63.22
-73.77
-83.47
-90.61
-93.41
-90.56
-81.77
-67.96
-50.92
-32.81
-15.40
0.28
14.02
26.08
36.79
46.21
54.12
60.16
64.08
65.90
65.99
64.91
63.28
61.52
59.84
58.20
56.41
54.32
51.90
49.27
46.64
44.12
41.64
38.82
35.16
30.23
23.91
16.50
8.61
0.94
-6.02
-12.17
-17.78
-23.38
-29.56
-36.76
-45.19
-54.74
-64.87
-74.53
-82.20
-86.23
-85.20
-78.49
-66.52
-50.67
-32.82
-14.83
1.89
16.56
28.92
38.97
46.83
52.61
56.45
58.57
59.27
58.91
57.89
56.59
55.28
54.03
52.70
51.06
48.94
46.41
43.79
41.45
39.57
37.91
35.90
32.87
28.35
22.27
15.02
7.23
-0.49
-7.70
-14.26
-20.36
-26.42
-32.98
-40.59
-49.50
-59.46
-69.59
-78.39
-84.08
-85.03
-80.36
-70.17
-55.66
-38.73
-21.48
-5.57
8.06
19.31
28.62
36.56
43.49
49.41
54.11
57.34
59.02
59.34
58.61
57.17
55.24
52.87
50.14
47.17
44.18
41.42
39.06
37.08
35.26
33.20
30.46
26.62
21.43
14.87
7.23
-0.98
-9.07
-16.47
-22.91
-28.52
-33.79
-39.44
-46.12
-54.13
-63.26
-72.68
-80.98
-86.52
-87.76
-83.80
-74.65
-61.32
-45.47
-28.98
-13.35
0.55
12.51
22.75
31.56
39.09
45.30
50.04
53.21
54.89
55.36
54.97
54.02
52.69
50.98
48.85
46.29
43.40
40.44
37.71
35.41
33.51
31.69
29.46
26.36
22.10
16.70
10.48
3.91
-2.54
-8.58
-14.13
-19.33
-24.45
-29.87
-35.99
-43.17
-51.58
-60.92
-70.35
-78.42
-83.43
-83.91
-79.20
-69.70
-56.77
-42.23
-27.79
-14.51
-2.79
7.51
16.65
24.73
31.67
37.26
41.37
44.03
45.45
45.98
45.88
45.40
44.59
43.39
41.70
39.45
36.76
33.93
31.29
29.05
27.16
25.28
22.91
19.63
15.28
10.02
4.28
-1.48
-6.91
-11.84
-16.33
-20.57
-24.94
-29.91
-35.94
-43.31
-51.84
-60.69
-68.42
-73.31
-73.97
-69.75
-61.10
-49.34
-36.24
-23.34
-11.59
-1.24
7.89
15.99
23.05
28.76
32.78
34.97
35.61
35.24
34.47
33.64
32.75
31.51
29.62
27.09
24.18
21.36
18.99
17.09
15.35
13.29
10.49
6.77
2.20
-2.99
-8.54
-14.26
-20.04
-25.89
-31.99
-38.66
-46.29
-55.29
-65.88
-77.95
-90.89
-103.61
-114.70
-122.75
-126.79
-126.60
-122.80
-116.64
-109.57
-102.78
-97.07
-92.81
-90.19
-89.34
-90.27
-92.75
-96.34
-100.52
-105.13
-110.42
-116.62
-123.26
-128.42
-128.70
-120.04
-99.01
-63.91
-15.11
45.29
113.92
186.17
256.13
316.76
360.98
383.69
383.70
364.51
333.16
297.59
263.82
234.31
208.34
183.67
158.58
132.72
106.99
82.48
59.68
38.43
18.39
-0.26
-16.69
-29.64
-38.19
-42.32
-42.99
-41.68
-39.90
-38.54
-37.86
-37.66
-37.49
-36.89
-35.39
-32.55
-28.18
-22.55
-16.53
-11.38
-8.20
-7.45
-8.69
-10.77
-12.53
-13.29
-13.19
-12.81
-12.78
-13.40
-14.56
-16.16
-18.28
-21.34
-25.84
-31.95
-39.31
-47.20
-54.89
-62.05
-69.00
-76.54
-85.55
-96.50
-109.12
-122.29
-134.28
-143.24
-147.74
-147.13
-141.70
-132.39
-120.42
-106.84
-92.35
-77.31
-62.00
-46.79
-32.26
-19.00
-7.38
2.64
11.55
19.98
28.40
36.87
44.99
52.13
57.80
61.85
64.42
65.74
65.92
64.93
62.82
59.96
57.08
54.96
54.09
54.34
54.95
54.98
53.66
50.69
46.20
40.45
33.56
25.42
15.91
5.27
-5.63
-15.31
-21.97
-24.12
-21.18
-13.76
-3.57
7.15
16.45
23.18
27.06
28.33
27.28
24.19
19.57
14.43
10.35
8.96
11.13
16.32
22.61
27.41
28.72
26.01
20.36
13.86
8.44
5.02
3.23
2.01
0.51
-1.26
-2.34
-1.75
0.38
2.24
1.14
-4.92
-15.80
-29.13
-41.71
-51.24
-57.57
-62.18
-66.58
-70.74
-72.87
-70.65
-63.33
-52.78
-42.71
-36.41
-34.55
-34.53
-32.07
-23.87
-9.60
7.86
24.05
35.14
39.34
37.18
30.41
20.74
9.25
-3.42
-16.56
-28.90
-38.92
-45.40
-47.94
-47.03
-43.60
-38.49
-32.25
-25.37
-18.61
-13.06
-9.86
-9.62
-12.13
-16.49
-21.69
-27.16
-32.96
-39.35
-45.91
-51.02
-51.99
-46.12
-32.15
-11.18
13.42
37.41
57.38
71.97
82.00
89.49
96.34
103.39
110.28
116.06
119.89
121.54
121.34
119.83
117.47
114.43
110.70
106.26
101.29
96.11
91.08
86.39
81.81
76.75
70.29
61.50
49.74
34.96
17.64
-1.38
-21.23
-41.32
-61.42
-81.40
-100.94
-119.18
-134.68
-145.75
-150.86
-149.21
-141.07
-127.69
-111.05
-93.26
-76.03
-60.32
-46.35
-33.86
-22.49
-12.14
-2.99
4.55
10.20
13.94
16.05
17.03
17.37
17.40
17.28
17.07
16.78
16.42
15.90
15.03
13.49
10.99
7.40
2.82
-2.43
-8.01
-13.67
-19.48
-25.87
-33.45
-42.75
-53.88
-66.23
-78.27
-87.92
-92.97
-91.86
-84.18
-70.80
-53.61
-34.81
-16.31
0.68
15.69
28.72
40.00
49.66
57.73
64.18
68.91
71.84
72.92
72.15
69.67
65.76
60.91
55.68
50.62
46.15
42.41
39.17
35.92
31.97
26.69
19.76
11.30
1.82
-7.96
-17.48
-26.56
-35.49
-45.00
-55.94
-68.97
-84.12
-100.49
-116.25
-128.89
-135.90
-135.62
-127.76
-113.62
-95.64
-76.58
-58.75
-43.46
-31.04
-21.14
-13.20
-6.78
-1.65
2.28
5.16
7.24
8.88
10.50
12.44
15.00
18.40
22.88
28.54
35.33
42.85
50.31
56.71
61.03
62.66
61.59
58.39
54.00
49.33
44.86
40.55
35.85
30.02
22.44
12.98
2.31
-8.08
-16.10
-19.45
-16.28
-5.75
11.64
34.22
59.51
84.95
108.35
128.19
143.58
154.12
159.63
160.08
155.65
146.81
134.48
119.97
104.85
90.64
78.45
68.74
61.36
55.71
51.13
47.12
43.41
39.78
35.89
31.19
25.17
17.62
8.88
-0.21
-8.67
-15.90
-21.97
-27.66
-34.18
-42.63
-53.50
-66.38
-79.90
-92.00
-100.30
-102.79
-98.33
-86.97
-70.01
-49.56
-28.01
-7.33
11.30
27.44
41.17
52.67
61.91
68.60
72.43
73.25
71.21
66.83
60.81
53.87
46.66
39.67
33.26
27.65
22.86
18.64
14.49
9.76
3.83
-3.65
-12.64
-22.67
-33.02
-43.04
-52.36
-61.05
-69.72
-79.19
-90.19
-102.80
-116.10
-128.15
-136.46
-138.76
-133.79
-121.75
-104.16
-83.22
-61.05
-39.15
-18.24
1.33
19.32
35.37
48.99
59.88
67.99
73.54
76.83
78.13
77.58
75.37
71.84
67.51
62.96
58.61
54.56
50.50
45.94
40.41
33.66
25.75
16.94
7.61
-1.87
-11.25
-20.43
-29.54
-38.99
-49.34
-61.06
-74.19
-88.06
-101.21
-111.71
-117.72
-118.12
-112.86
-102.93
-90.03
-76.01
-62.34
-49.95
-39.16
-29.87
-21.77
-14.54
-8.02
-2.20
2.77
6.70
9.53
11.40
12.67
13.83
15.31
17.34
19.83
22.44
24.67
26.04
26.26
25.29
23.40
21.07
18.86
17.19
16.20
15.67
15.06
13.71
11.03
6.80
1.32
-4.48
-9.29
-11.73
-10.80
-6.27
1.23
10.46
20.07
29.08
37.11
44.38
51.34
58.37
65.52
72.56
79.10
84.79
89.44
93.08
95.91
98.16
99.98
101.37
102.18
102.18
101.18
99.00
95.54
90.67
84.25
76.20
66.58
55.63
43.74
31.33
18.70
5.96
-6.96
-20.19
-33.78
-47.47
-60.63
-72.19
-80.80
-85.16
-84.50
-78.92
-69.49
-57.96
-46.24
-35.71
-27.02
-20.00
-14.14
-8.94
-4.25
-0.32
2.40
3.51
2.91
0.81
-2.30
-5.74
-8.91
-11.37
-12.90
-13.52
-13.44
-13.00
-12.59
-12.61
-13.39
-15.02
-17.25
-19.43
-20.64
-20.05
-17.22
-12.43
-6.80
-1.98
0.30
-0.88
-5.13
-10.53
-14.22
-13.49
-6.91
5.02
20.02
34.97
46.99
54.23
56.13
53.10
46.08
36.23
24.94
13.93
5.14
0.19
-0.06
3.96
10.73
18.04
23.84
26.86
27.03
25.26
22.95
21.28
20.64
20.58
20.00
17.84
13.62
7.69
1.10
-5.01
-9.97
-14.02
-18.05
-22.99
-29.01
-35.11
-39.46
-40.21
-36.35
-28.18
-17.15
-5.05
6.73
17.55
27.37
36.30
44.15
50.41
54.65
56.81
57.45
57.46
57.54
57.76
57.36
54.99
49.16
38.89
24.18
6.05
-13.73
-33.15
-50.48
-64.66
-75.38
-82.92
-87.96
-91.26
-93.47
-95.09
-96.47
-97.91
-99.73
-102.27
-105.69
-109.82
-113.97
-117.05
-117.88
-115.55
-109.69
-100.61
-89.17
-76.56
-64.04
-52.75
-43.43
-36.30
-31.07
-27.00
-23.21
-19.07
-14.40
-9.49
-4.77
-0.59
2.99
6.15
9.12
11.99
14.72
17.19
19.26
20.77
21.51
21.22
19.65
16.72
12.66
8.01
3.38
-0.74
-4.23
-7.42
-10.93
-15.45
-21.39
-28.80
-37.17
-45.60
-52.94
-58.01
-59.95
-58.43
-53.72
-46.68
-38.43
-30.09
-22.43
-15.74
-9.91
-4.60
0.43
5.13
9.21
12.19
13.67
13.49
11.82
9.04
5.68
2.27
-0.76
-3.07
-4.51
-5.11
-5.11
-4.95
-5.12
-5.99
-7.68
-10.04
-12.79
-15.62
-18.40
-21.18
-24.22
-27.89
-32.55
-38.35
-44.94
-51.49
-56.67
-59.06
-57.65
-52.26
-43.65
-33.20
-22.48
-12.66
-4.25
2.78
8.81
14.18
19.05
23.31
26.72
29.04
30.20
30.30
29.63
28.52
27.26
26.03
24.98
24.19
23.74
23.66
23.84
24.04
23.88
23.05
21.35
18.85
15.79
12.44
8.91
5.04
0.34
-5.72
-13.45
-22.57
-32.01
-40.06
-44.83
-44.88
-39.72
-29.92
-16.85
-2.20
12.50
26.21
38.32
48.57
56.95
63.57
68.65
72.45
75.25
77.19
78.27
78.47
77.85
76.65
75.25
73.94
72.81
71.63
69.98
67.54
64.12
59.84
54.94
49.69
44.21
38.57
32.83
27.00
21.15
15.19
8.84
1.63
-6.95
-17.08
-28.41
-40.01
-50.59
-58.85
-63.85
-65.28
-63.36
-58.70
-52.11
-44.26
-35.74
-27.01
-18.49
-10.63
-3.84
1.52
5.25
7.26
7.65
6.65
4.65
2.13
-0.47
-2.79
-4.61
-5.81
-6.33
-6.19
-5.55
-4.75
-4.28
-4.62
-6.02
-8.40
-11.37
-14.45
-17.30
-19.87
-22.33
-25.00
-28.12
-31.74
-35.72
-39.72
-43.17
-45.35
-45.45
-42.81
-37.15
-28.67
-18.06
-6.28
5.69
17.05
27.26
36.09
43.59
50.04
55.83
61.35
66.78
72.12
77.20
81.85
86.01
89.76
93.26
96.55
99.50
101.83
103.32
103.89
103.67
102.87
101.59
99.71
97.00
93.30
88.70
83.59
78.47
73.58
68.76
63.35
56.58
47.85
37.08
24.81
12.07
0.20
-9.54
-16.11
-19.05
-18.55
-15.44
-10.92
-6.23
-2.22
0.82
3.03
4.72
6.08
7.06
7.45
7.03
5.77
3.81
1.41
-1.17
-3.71
-6.08
-8.13
-9.80
-11.05
-11.95
-12.65
-13.41
-14.51
-16.27
-18.90
-22.39
-26.49
-30.70
-34.52
-37.62
-40.10
-42.35
-44.90
-48.26
-52.58
-57.65
-62.92
-67.57
-70.71
-71.59
-69.82
-65.54
-59.40
-52.35
-45.32
-38.90
-33.30
-28.42
-24.15
-20.50
-17.56
-15.47
-14.20
-13.68
-13.88
-14.85
-16.70
-19.43
-22.76
-26.21
-29.27
-31.61
-33.18
-34.06
-34.31
-33.94
-32.96
-31.65
-30.50
-30.05
-30.60
-31.97
-33.58
-34.78
-35.22
-35.08
-34.90
-35.32
-36.78
-39.36
-42.80
-46.62
-50.06
-52.24
-52.17
-49.08
-42.70
-33.42
-22.23
-10.40
0.95
11.12
19.91
27.45
33.98
39.64
44.47
48.42
51.52
53.89
55.75
57.27
58.47
59.18
59.10
57.99
55.81
52.78
49.23
45.45
41.57
37.47
32.87
27.45
21.02
13.52
5.13
-3.77
-12.70
-21.18
-28.87
-35.68
-41.84
-47.84
-54.18
-61.14
-68.51
-75.51
-81.00
-83.80
-83.14
-78.93
-71.82
-62.97
-53.66
-44.89
-37.17
-30.54
-24.72
-19.44
-14.52
-9.94
-5.73
-1.87
1.74
5.23
8.67
12.04
15.23
18.18
20.97
23.87
27.24
31.30
36.06
41.25
46.37
50.90
54.40
56.53
57.12
56.15
53.76
50.31
46.29
42.19
38.27
34.44
30.26
25.14
18.67
10.89
2.49
-5.20
-10.55
-12.05
-8.90
-1.40
8.95
19.85
28.89
34.37
35.72
33.57
29.35
24.71
21.16
19.79
21.36
26.24
34.37
45.16
57.45
69.76
80.72
89.51
96.07
101.08
105.46
109.75
113.60
115.57
113.60
105.66
90.65
68.86
42.02
12.69
-16.47
-43.36
-66.76
-86.27
-102.17
-115.17
-126.30
-136.65
-147.01
-157.48
-167.21
-174.73
-178.51
-177.57
-171.87
-162.18
-149.64
-135.44
-120.65
-106.21
-93.01
-81.71
-72.50
-64.96
-58.31
-51.84
-45.33
-39.11
-33.76
-29.56
-26.24
-23.03
-19.17
-14.22
-8.25
-1.61
5.34
12.45
19.72
27.15
34.59
41.72
48.24
53.92
58.76
62.97
66.86
70.71
74.47
77.56
78.83
76.98
71.10
61.38
49.43
37.97
30.08
28.25
33.62
45.85
63.40
84.04
105.30
124.69
139.90
148.97
150.70
144.98
132.93
116.63
98.46
80.43
63.67
48.33
33.97
20.12
6.69
-5.92
-17.10
-26.31
-33.42
-38.74
-42.81
-46.17
-49.04
-51.37
-52.89
-53.33
-52.73
-51.34
-49.67
-48.29
-47.75
-48.50
-50.88
-55.22
-61.69
-70.13
-79.77
-89.05
-95.81
-97.88
-93.90
-83.96
-69.65
-53.38
-37.40
-22.95
-10.06
1.87
13.30
23.96
32.91
39.06
41.78
41.08
37.48
31.61
24.05
15.40
6.48
-1.68
-8.06
-12.13
-14.13
-15.09
-16.33
-18.93
-23.33
-29.28
-36.06
-42.87
-49.08
-54.28
-58.25
-60.86
-62.11
-62.18
-61.63
-61.32
-62.23
-64.99
-69.45
-74.58
-78.67
-79.79
-76.48
-68.11
-55.10
-38.66
-20.59
-2.73
13.32
26.58
36.72
44.08
49.33
53.15
55.94
57.74
58.40
57.85
56.26
54.04
51.56
49.07
46.54
43.78
40.57
36.73
32.07
26.29
19.02
10.02
-0.49
-11.57
-21.73
-29.39
-33.59
-34.52
-33.56
-32.72
-33.79
-37.53
-43.30
-49.42
-53.78
-54.53
-50.60
-41.79
-28.72
-12.61
4.93
22.21
37.82
50.90
61.21
68.95
74.41
77.69
78.71
77.49
74.41
70.26
65.93
62.00
58.45
54.80
50.60
45.81
40.92
36.67
33.57
31.48
29.69
27.24
23.46
18.24
12.02
5.48
-0.91
-7.01
-13.10
-19.61
-26.93
-35.18
-44.05
-52.79
-60.19
-64.82
-65.42
-61.34
-52.82
-41.00
-27.50
-13.95
-1.51
9.30
18.54
26.53
33.57
39.81
45.12
49.31
52.17
53.58
53.67
52.77
51.31
49.72
48.25
46.90
45.47
43.68
41.30
38.25
34.57
30.41
25.90
21.22
16.56
12.06
7.81
3.65
-0.83
-6.28
-13.35
-22.35
-32.95
-44.02
-53.90
-60.82
-63.62
-62.10
-57.02
-49.76
-41.67
-33.64
-26.00
-18.65
-11.41
-4.14
3.12
10.17
16.75
22.45
26.97
30.16
32.22
33.67
35.22
37.43
40.53
44.39
48.72
53.33
58.14
63.02
67.51
70.69
71.48
69.10
63.56
55.65
46.58
37.36
28.32
19.11
9.16
-1.81
-13.36
-24.42
-33.78
-40.65
-45.06
-47.69
-49.47
-51.05
-52.62
-53.96
-54.64
-54.37
-52.98
-50.46
-46.91
-42.51
-37.60
-32.60
-27.94
-23.91
-20.53
-17.65
-15.02
-12.40
-9.76
-7.16
-4.80
-2.92
-1.76
-1.51
-2.26
-3.98
-6.53
-9.79
-13.67
-18.21
-23.51
-29.77
-37.27
-46.23
-56.69
-68.20
-79.66
-89.34
-95.27
-95.77
-89.88
-77.51
-59.34
-36.50
-10.37
17.38
44.81
69.64
89.59
102.91
108.99
108.63
103.80
96.94
90.12
84.42
79.82
75.53
70.67
64.84
58.24
51.44
44.92
38.68
32.29
25.27
17.58
9.81
3.02
-1.85
-4.47
-5.47
-6.21
-8.35
-13.25
-21.54
-32.99
-46.64
-60.98
-74.24
-84.59
-90.51
-91.03
-86.14
-76.82
-64.82
-52.19
-40.69
-31.35
-24.33
-19.16
-15.08
-11.40
-7.73
-3.90
0.13
4.38
8.89
13.68
18.65
23.56
28.11
32.01
35.09
37.23
38.38
38.49
37.54
35.55
32.68
29.18
25.43
21.85
18.78
16.40
14.54
12.62
9.73
4.95
-2.13
-10.97
-20.07
-27.36
-30.97
-30.03
-24.96
-17.24
-8.69
-0.75
5.94
11.47
16.29
20.75
24.92
28.74
32.12
35.08
37.57
39.30
39.73
38.13
33.99
27.35
18.91
9.83
1.35
-5.73
-11.22
-15.59
-19.60
-24.00
-29.19
-35.16
-41.55
-47.85
-53.67
-58.80
-63.31
-67.50
-71.80
-76.67
-82.36
-88.75
-95.23
-100.64
-103.63
-103.00
-98.17
-89.47
-78.01
-65.28
-52.61
-40.77
-29.92
-19.81
-10.21
-1.11
7.23
14.47
20.35
24.81
27.90
29.75
30.51
30.40
29.74
28.95
28.39
28.21
28.34
28.58
28.66
28.43
27.77
26.55
24.53
21.46
17.21
11.99
6.30
0.76
-4.15
-8.33
-12.05
-15.81
-20.15
-25.53
-32.12
-39.76
-47.86
-55.32
-60.75
-62.83
-60.76
-54.62
-45.30
-34.17
-22.59
-11.49
-1.26
8.12
16.88
25.22
33.24
40.90
47.98
54.22
59.30
63.00
65.34
66.54
66.92
66.86
66.61
66.34
66.19
66.31
66.78
67.51
68.16
68.15
66.81
63.59
58.20
50.62
41.03
29.77
17.26
4.10
-9.04
-21.41
-32.38
-41.62
-49.14
-55.28
-60.59
-65.73
-71.23
-77.40
-84.10
-90.71
-96.14
-99.06
-98.32
-93.34
-84.35
-72.41
-58.98
-45.51
-32.98
-21.79
-11.79
-2.62
6.09
14.41
22.19
29.08
34.79
39.18
42.31
44.39
45.68
46.42
46.78
46.89
46.83
46.69
46.49
46.19
45.67
44.79
43.41
41.48
39.02
36.06
32.65
28.76
24.37
19.45
14.11
8.52
2.97
-2.34
-7.32
-12.06
-16.75
-21.59
-26.79
-32.50
-38.90
-45.90
-53.11
-59.55
-63.81
-64.42
-60.39
-51.80
-39.76
-25.97
-11.99
1.34
14.01
26.48
39.00
51.38
62.83
72.48
79.66
84.22
86.32
86.25
84.19
80.23
74.56
67.65
60.24
53.23
47.34
42.93
39.88
37.64
35.50
32.93
29.76
26.20
22.66
19.47
16.62
13.78
10.49
6.48
1.88
-2.76
-6.72
-9.53
-11.20
-12.26
-13.59
-16.08
-20.35
-26.56
-34.29
-42.70
-50.62
-56.83
-60.29
-60.33
-56.79
-49.97
-40.62
-29.81
-18.69
-8.33
0.50
7.47
12.73
16.79
20.29
23.80
27.54
31.35
34.73
37.03
37.74
36.71
34.14
30.69
27.14
24.26
22.49
21.85
21.97
22.25
22.12
21.22
19.53
17.23
14.64
11.97
9.23
6.22
2.70
-1.51
-6.35
-11.55
-16.75
-21.65
-26.16
-30.35
-34.48
-38.84
-43.65
-49.10
-55.19
-61.68
-67.91
-72.84
-75.23
-74.05
-68.85
-59.98
-48.48
-35.73
-22.96
-10.96
0.00
9.90
18.75
26.43
32.73
37.51
40.85
43.05
44.51
45.60
46.48
47.08
47.24
46.81
45.83
44.55
43.35
42.56
42.33
42.52
42.80
42.70
41.66
39.19
34.88
28.57
20.44
11.11
1.46
-7.66
-15.68
-22.47
-28.25
-33.36
-38.02
-42.30
-46.20
-49.83
-53.53
-57.82
-63.14
-69.58
-76.67
-83.33
-88.14
-89.63
-86.84
-79.59
-68.62
-55.40
-41.60
-28.64
-17.37
-7.95
-0.18
6.30
11.75
16.28
19.91
22.72
24.82
26.34
27.33
27.86
27.98
27.81
27.57
27.44
27.52
27.78
28.09
28.30
28.27
27.88
27.01
25.54
23.34
20.36
16.68
12.51
8.07
3.60
-0.77
-4.99
-9.02
-12.86
-16.57
-20.31
-24.33
-29.03
-34.69
-41.39
-48.74
-55.76
-61.09
-63.26
-61.25
-54.85
-44.81
-32.56
-19.70
-7.47
3.50
13.21
22.00
30.18
37.89
44.96
51.04
55.65
58.37
58.96
57.46
54.24
49.95
45.35
41.02
37.27
34.05
31.08
27.99
24.57
20.76
16.77
12.94
9.64
7.16
5.54
4.42
3.03
0.37
-4.49
-11.89
-21.31
-31.33
-40.01
-45.55
-46.94
-44.42
-39.41
-34.09
-30.66
-30.72
-34.76
-42.15
-51.37
-60.48
-67.69
-71.74
-72.19
-69.31
-63.95
-57.11
-49.64
-42.09
-34.72
-27.67
-21.10
-15.15
-9.92
-5.41
-1.49
2.05
5.35
8.45
11.26
13.68
15.61
17.03
17.87
18.11
17.69
16.58
14.85
12.64
10.13
7.38
4.37
1.01
-2.75
-6.86
-11.18
-15.55
-19.81
-23.85
-27.61
-31.12
-34.52
-38.13
-42.41
-47.74
-54.21
-61.29
-67.88
-72.43
-73.46
-70.00
-61.96
-50.11
-35.82
-20.65
-5.83
7.91
20.40
31.76
42.06
51.12
58.52
63.85
66.98
68.26
68.40
68.16
68.03
68.02
67.75
66.79
64.92
62.35
59.61
57.25
55.58
54.51
53.60
52.29
50.12
46.95
43.03
38.91
35.25
32.65
31.43
31.54
32.58
33.88
34.64
33.99
31.16
25.59
17.13
6.22
-6.00
-17.87
-27.53
-33.43
-34.69
-31.28
-23.95
-13.85
-2.28
9.57
20.67
30.23
37.66
42.71
45.46
46.28
45.68
44.09
41.79
38.96
35.76
32.49
29.46
26.94
24.95
23.28
21.66
19.87
17.84
15.54
12.89
9.55
5.11
-0.65
-7.52
-14.69
-20.86
-24.59
-24.76
-20.97
-13.76
-4.50
4.81
11.97
14.98
12.51
4.36
-8.32
-23.02
-36.36
-44.83
-45.80
-38.25
-23.13
-3.20
17.76
35.97
48.73
55.05
55.71
52.68
48.31
44.51
42.21
41.44
41.74
42.62
43.87
45.55
47.76
50.52
53.85
57.89
62.97
69.52
77.78
87.35
97.11
105.20
109.41
107.71
98.87
83.09
62.16
39.07
17.18
-1.01
-14.71
-25.10
-34.56
-45.55
-59.34
-75.43
-91.83
-105.97
-115.70
-120.00
-119.00
-113.56
-104.79
-93.74
-81.22
-67.97
-54.70
-42.08
-30.67
-20.92
-13.09
-7.30
-3.56
-1.68
-1.32
-2.05
-3.43
-5.16
-7.20
-9.70
-12.75
-16.21
-19.61
-22.35
-24.00
-24.56
-24.55
-24.86
-26.40
-29.68
-34.67
-40.76
-47.05
-52.72
-57.28
-60.74
-63.59
-66.62
-70.67
-76.38
-83.79
-92.06
-99.40
-103.48
-102.16
-94.37
-80.71
-63.32
-45.21
-29.00
-16.04
-6.10
2.15
10.19
18.82
27.80
36.18
42.88
47.34
49.64
50.34
50.01
48.98
47.18
44.42
40.65
36.22
31.83
28.27
26.09
25.30
25.30
25.08
23.63
20.33
15.15
8.61
1.47
-5.57
-12.15
-18.28
-24.26
-30.54
-37.56
-45.68
-54.95
-64.96
-74.84
-83.30
-88.95
-90.72
-88.24
-81.88
-72.66
-61.84
-50.56
-39.54
-29.12
-19.27
-9.88
-0.88
7.62
15.34
21.97
27.24
31.12
33.73
35.29
36.01
36.01
35.42
34.38
33.16
32.01
31.15
30.62
30.28
29.84
28.97
27.28
24.45
20.29
14.88
8.60
2.06
-4.09
-9.49
-14.19
-18.59
-23.27
-28.76
-35.42
-43.39
-52.52
-62.28
-71.67
-79.23
-83.45
-83.17
-78.04
-68.64
-56.27
-42.51
-28.69
-15.66
-3.75
7.08
17.02
26.22
34.69
42.28
48.75
53.87
57.52
59.84
61.12
61.69
61.80
61.56
60.98
60.03
58.75
57.23
55.52
53.62
51.45
48.89
45.80
42.04
37.54
32.26
26.26
19.66
12.71
5.64
-1.36
-8.16
-14.78
-21.27
-27.81
-34.71
-42.34
-51.06
-61.05
-71.94
-82.68
-91.58
-96.71
-96.52
-90.43
-79.05
-63.99
-47.26
-30.60
-15.12
-1.17
11.31
22.53
32.56
41.31
48.57
54.24
58.30
60.89
62.23
62.60
62.27
61.47
60.35
58.99
57.46
55.82
54.14
52.42
50.51
48.14
45.00
40.94
36.01
30.43
24.49
18.33
11.95
5.26
-1.80
-9.10
-16.43
-23.60
-30.57
-37.55
-45.01
-53.42
-63.11
-73.94
-85.10
-95.15
-102.23
-104.57
-101.01
-91.45
-76.85
-58.93
-39.67
-20.74
-3.19
12.56
26.56
39.05
50.19
60.00
68.30
74.84
79.45
82.17
83.30
83.28
82.60
81.58
80.42
79.20
77.93
76.63
75.24
73.55
71.25
68.04
63.77
58.54
52.60
46.21
39.49
32.35
24.63
16.26
7.34
-1.85
-10.93
-19.59
-27.65
-35.12
-42.19
-49.26
-56.95
-65.92
-76.53
-88.43
-100.22
-109.68
-114.27
-112.05
-102.46
-86.52
-66.52
-45.10
-24.49
-5.92
10.31
24.57
37.32
48.74
58.74
67.08
73.54
78.14
81.09
82.68
83.16
82.66
81.23
78.94
76.05
72.98
70.26
68.26
67.01
66.10
64.81
62.43
58.57
53.29
47.09
40.62
34.39
28.53
22.79
16.67
9.70
1.70
-7.13
-16.24
-25.00
-32.92
-39.87
-46.12
-52.24
-58.97
-66.95
-76.49
-87.28
-98.22
-107.52
-113.03
-112.84
-106.03
-92.95
-75.26
-55.27
-35.24
-16.79
-0.61
13.28
25.25
35.61
44.58
52.25
58.64
63.78
67.66
70.27
71.56
71.60
70.58
68.80
66.62
64.39
62.36
60.64
59.15
57.67
55.82
53.20
49.49
44.63
38.82
32.46
26.03
19.83
13.91
8.05
1.96
-4.58
-11.53
-18.67
-25.66
-32.24
-38.36
-44.19
-50.13
-56.65
-64.15
-72.71
-81.81
-90.29
-96.40
-98.36
-94.92
-85.84
-72.07
-55.41
-37.90
-21.18
-6.18
6.86
18.10
27.79
36.05
42.84
48.12
51.85
54.11
55.04
54.86
53.86
52.36
50.69
49.14
47.91
47.05
46.45
45.85
44.92
43.37
40.98
37.73
33.73
29.20
24.33
19.20
13.74
7.87
1.57
-5.05
-11.76
-18.32
-24.60
-30.60
-36.47
-42.42
-48.73
-55.72
-63.59
-72.12
-80.50
-87.33
-90.86
-89.60
-82.96
-71.51
-56.91
-41.32
-26.66
-14.10
-3.88
4.51
11.81
18.62
25.14
31.12
36.12
39.75
41.90
42.76
42.77
42.35
41.77
41.09
40.30
39.41
38.50
37.64
36.78
35.71
34.08
31.72
28.64
25.11
21.47
17.91
14.40
10.65
6.41
1.53
-3.83
-9.42
-14.94
-20.18
-25.11
-29.81
-34.47
-39.45
-45.18
-52.02
-59.90
-68.13
-75.35
-79.84
-80.15
-75.62
-66.69
-54.64
-41.15
-27.76
-15.48
-4.77
4.36
12.10
18.70
24.37
29.26
33.47
37.04
39.98
42.26
43.84
44.65
44.60
43.73
42.17
40.21
38.19
36.38
34.82
33.36
31.72
29.64
26.98
23.74
19.96
15.73
11.13
6.25
1.21
-3.86
-8.85
-13.73
-18.54
-23.28
-27.94
-32.48
-36.97
-41.63
-46.82
-52.83
-59.69
-66.89
-73.33
-77.64
-78.58
-75.50
-68.56
-58.74
-47.36
-35.72
-24.70
-14.68
-5.69
2.38
9.60
15.97
21.40
25.85
29.33
31.91
33.64
34.57
34.71
34.14
33.03
31.72
30.56
29.84
29.57
29.53
29.26
28.31
26.42
23.62
20.18
16.41
12.53
8.51
4.22
-0.52
-5.78
-11.46
-17.37
-23.20
-28.69
-33.70
-38.27
-42.68
-47.38
-52.89
-59.53
-67.13
-74.88
-81.44
-85.19
-84.81
-79.77
-70.55
-58.52
-45.42
-32.83
-21.69
-12.23
-4.15
2.99
9.47
15.27
20.20
24.04
26.69
28.22
28.82
28.63
27.78
26.38
24.51
22.32
19.91
17.35
14.62
11.69
8.55
5.21
1.72
-1.95
-5.94
-10.53
-15.96
-22.30
-29.35
-36.67
-43.84
-50.64
-57.19
-63.88
-71.22
-79.63
-89.37
-100.46
-112.56
-124.75
-135.32
-141.71
-141.12
-131.37
-111.95
-84.56
-52.81
-21.06
6.94
29.15
45.47
57.20
66.08
73.44
79.98
85.82
90.96
95.52
99.75
103.84
107.71
110.92
112.76
112.58
110.01
105.21
98.83
91.82
85.20
79.70
75.58
72.60
70.09
67.27
63.50
58.57
52.70
46.46
40.56
35.74
32.78
32.55
35.98
43.54
54.59
66.86
76.68
80.02
73.97
57.97
34.14
6.53
-20.48
-43.49
-60.85
-72.38
-78.55
-79.94
-76.99
-70.30
-60.96
-50.51
-40.60
-32.42
-26.39
-22.35
-19.78
-18.30
-17.86
-18.69
-21.02
-24.79
-29.46
-34.16
-37.81
-39.53
-38.91
-36.25
-32.48
-28.78
-26.15
-25.01
-25.09
-25.71
-26.07
-25.69
-24.53
-23.01
-21.83
-21.83
-23.76
-28.08
-34.79
-43.44
-53.13
-62.87
-71.89
-79.90
-87.05
-93.65
-99.80
-105.00
-108.24
-108.30
-104.30
-96.11
-84.44
-70.64
-56.11
-41.92
-28.53
-16.01
-4.34
6.27
15.42
22.65
27.77
31.01
32.92
34.13
35.09
36.00
36.80
37.36
37.55
37.31
36.60
35.44
33.87
31.98
29.92
27.80
25.54
22.91
19.57
15.29
10.08
4.21
-1.89
-7.85
-13.42
-18.62
-23.57
-28.49
-33.65
-39.40
-46.03
-53.70
-62.17
-70.58
-77.54
-81.35
-80.60
-74.65
-63.96
-50.00
-34.74
-20.05
-7.23
3.27
11.67
18.49
24.23
29.12
33.13
36.15
38.14
39.22
39.62
39.60
39.33
38.89
38.30
37.66
37.15
36.92
37.12
37.65
38.22
38.36
37.55
35.41
31.84
27.06
21.55
15.95
10.81
6.54
3.24
0.76
-1.17
-2.89
-4.69
-6.85
-9.60
-13.06
-17.03
-20.89
-23.53
-23.65
-20.17
-12.69
-1.71
11.51
25.30
38.04
48.48
55.78
59.51
59.72
57.08
53.03
49.67
49.28
53.64
63.41
77.86
95.15
112.85
128.59
140.50
147.40
148.83
145.01
136.81
125.58
112.94
100.37
88.90
78.99
70.57
63.26
56.54
50.04
43.54
37.02
30.67
24.71
19.31
14.29
9.15
3.12
-4.50
-13.97
-24.78
-35.62
-44.69
-50.19
-50.93
-46.76
-38.61
-28.25
-17.81
-9.07
-2.97
0.62
2.70
4.68
7.84
12.85
19.64
27.61
36.03
44.38
52.57
60.93
69.90
79.79
90.63
102.18
114.12
126.28
138.62
151.22
164.03
176.81
189.13
200.43
210.00
216.92
219.96
217.76
209.14
193.65
171.91
145.51
116.56
86.96
57.93
29.85
2.68
-23.54
-48.26
-70.40
-88.70
-102.17
-110.45
-113.91
-113.48
-110.32
-105.55
-100.03
-94.36
-88.94
-84.09
-80.06
-77.09
-75.30
-74.62
-74.79
-75.32
-75.67
-75.26
-73.68
-70.75
-66.61
-61.69
-56.64
-52.17
-48.83
-46.85
-45.99
-45.69
-45.35
-44.63
-43.67
-43.04
-43.37
-45.02
-47.85
-51.23
-54.34
-56.53
-57.57
-57.68
-57.39
-57.31
-57.98
-59.74
-62.69
-66.48
-70.33
-73.00
-73.22
-70.07
-63.40
-53.96
-43.16
-32.70
-23.99
-17.80
-14.18
-12.65
-12.52
-13.22
-14.39
-15.89
-17.61
-19.33
-20.69
-21.26
-20.72
-19.02
-16.48
-13.70
-11.29
-9.67
-8.84
-8.48
-8.10
-7.34
-6.14
-4.83
-3.89
-3.81
-4.77
-6.54
-8.66
-10.55
-11.85
-12.35
-12.08
-11.16
-9.87
-8.78
-8.66
-10.24
-13.73
-18.50
-23.15
-25.99
-25.78
-22.27
-16.31
-9.35
-2.75
2.82
7.62
12.62
18.98
27.40
37.66
48.46
57.77
63.53
64.61
61.32
55.27
48.66
43.21
39.49
36.88
34.19
30.50
25.76
20.63
16.03
12.49
9.93
7.79
5.51
2.83
-0.15
-3.16
-6.08
-9.14
-12.79
-17.47
-23.36
-30.22
-37.49
-44.46
-50.57
-55.56
-59.60
-63.18
-66.87
-70.99
-75.32
-79.03
-80.90
-79.77
-75.14
-67.41
-57.80
-47.89
-39.05
-32.01
-26.78
-22.87
-19.71
-16.91
-14.37
-12.23
-10.66
-9.74
-9.37
-9.35
-9.41
-9.37
-9.17
-8.89
-8.65
-8.58
-8.71
-9.03
-9.49
-10.03
-10.68
-11.49
-12.64
-14.30
-16.61
-19.65
-23.36
-27.59
-32.11
-36.66
-41.01
-45.02
-48.71
-52.28
-56.16
-60.87
-66.81
-73.97
-81.63
-88.44
-92.66
-92.81
-88.19
-79.16
-66.94
-53.19
-39.35
-26.31
-14.33
-3.29
6.91
16.17
24.09
30.23
34.29
36.29
36.51
35.40
33.35
30.63
27.34
23.61
19.68
15.94
12.92
11.05
10.48
10.93
11.73
11.95
10.70
7.46
2.31
-4.04
-10.58
-16.38
-21.03
-24.81
-28.60
-33.81
-41.96
-54.32
-71.30
-91.80
-113.02
-130.80
-140.78
-139.79
-127.03
-104.20
-74.81
-42.76
-11.28
17.56
42.63
63.25
78.95
89.60
95.70
98.38
98.99
98.59
97.42
94.96
90.25
82.63
72.12
59.66
46.75
34.93
25.38
18.51
14.09
11.44
9.74
8.15
5.90
2.46
-2.10
-6.89
-10.27
-10.47
-6.58
0.80
9.51
16.65
19.71
17.53
10.34
-0.94
-15.51
-33.11
-53.57
-75.93
-97.88
-115.93
-126.50
-127.34
-118.44
-101.95
-81.34
-60.00
-40.20
-22.70
-7.23
6.86
19.85
31.54
41.40
49.04
54.48
58.16
60.76
62.82
64.61
66.10
67.07
67.39
67.15
66.70
66.53
66.98
68.00
69.04
69.16
67.36
62.95
55.86
46.66
36.37
26.14
16.81
8.76
1.80
-4.76
-11.86
-20.46
-31.21
-44.12
-58.33
-72.09
-82.98
-88.58
-87.13
-78.17
-62.72
-42.97
-21.54
-0.64
18.36
35.07
49.65
62.33
73.11
81.72
87.88
91.55
93.08
93.09
92.21
90.96
89.51
87.79
85.65
82.95
79.75
76.25
72.75
69.39
66.10
62.53
58.17
52.62
45.68
37.51
28.51
19.18
9.91
0.95
-7.59
-15.78
-23.83
-32.11
-41.15
-51.48
-63.37
-76.42
-89.35
-100.07
-106.19
-105.74
-97.84
-83.12
-63.52
-41.65
-20.02
-0.39
16.44
30.47
42.04
51.43
58.74
63.89
66.84
67.75
67.05
65.38
63.37
61.47
59.82
58.29
56.57
54.43
51.82
48.92
46.02
43.27
40.57
37.51
33.52
28.17
21.35
13.41
5.04
-3.03
-10.34
-16.85
-22.93
-29.16
-36.19
-44.54
-54.42
-65.59
-77.12
-87.38
-94.24
-95.65
-90.34
-78.35
-61.13
-41.07
-20.65
-1.72
14.88
29.07
41.16
51.34
59.54
65.56
69.31
70.97
71.01
69.99
68.42
66.64
64.76
62.78
60.59
58.18
55.61
52.98
50.44
47.99
45.49
42.55
38.71
33.60
27.15
19.64
11.66
3.83
-3.41
-9.95
-16.01
-22.06
-28.54
-35.93
-44.49
-54.26
-64.85
-75.21
-83.77
-88.65
-88.27
-81.94
-70.19
-54.68
-37.58
-20.93
-6.00
6.78
17.62
26.97
35.12
42.11
47.80
52.13
55.13
57.00
57.89
57.88
56.96
55.14
52.55
49.49
46.38
43.61
41.39
39.67
38.16
36.40
33.91
30.33
25.49
19.47
12.58
5.28
-1.88
-8.50
-14.44
-19.87
-25.22
-30.94
-37.43
-44.84
-53.17
-62.07
-70.92
-78.68
-84.00
-85.53
-82.34
-74.36
-62.50
-48.43
-33.99
-20.64
-9.05
0.80
9.32
16.93
23.81
29.86
34.84
38.53
40.82
41.82
41.88
41.41
40.83
40.34
39.88
39.22
38.14
36.56
34.62
32.53
30.40
28.17
25.63
22.49
18.58
13.89
8.61
3.00
-2.68
-8.21
-13.45
-18.37
-23.04
-27.63
-32.47
-37.94
-44.38
-51.96
-60.36
-68.78
-75.88
-80.12
-80.28
-75.85
-67.35
-56.13
-43.88
-32.04
-21.43
-12.15
-3.87
3.84
11.10
17.75
23.40
27.72
30.57
32.10
32.67
32.72
32.62
32.55
32.54
32.47
32.14
31.41
30.24
28.68
26.85
24.88
22.79
20.46
17.71
14.30
10.10
5.14
-0.32
-5.97
-11.42
-16.42
-20.89
-24.94
-28.86
-33.02
-37.79
-43.41
-49.87
-56.79
-63.40
-68.55
-70.98
-69.65
-64.16
-54.93
-43.19
-30.63
-18.83
-8.75
-0.61
6.02
11.79
17.13
22.04
26.19
29.17
30.83
31.32
31.05
30.50
30.01
29.70
29.57
29.55
29.52
29.37
28.97
28.22
27.06
25.52
23.63
21.44
18.91
15.95
12.45
8.37
3.78
-1.15
-6.14
-10.94
-15.39
-19.47
-23.39
-27.45
-32.10
-37.72
-44.49
-52.19
-60.11
-67.07
-71.68
-72.76
-69.76
-63.08
-53.94
-43.96
-34.53
-26.38
-19.40
-13.07
-6.91
-0.90
4.37
8.14
9.86
9.65
8.28
6.95
6.83
8.79
13.25
20.20
29.20
39.55
50.28
60.41
69.18
76.32
82.01
86.62
90.29
92.60
92.54
88.97
81.25
69.73
55.83
41.57
28.81
18.62
10.96
4.87
-0.84
-7.06
-13.99
-21.33
-28.59
-35.50
-41.93
-47.68
-52.04
-53.78
-51.56
-44.58
-33.21
-19.07
-4.45
8.56
18.73
25.83
30.16
32.04
31.49
28.35
22.68
15.13
6.81
-1.02
-7.32
-11.55
-13.51
-13.23
-10.85
-6.68
-1.38
3.94
8.03
9.81
8.81
5.31
0.19
-5.45
-10.70
-15.09
-18.63
-21.70
-24.75
-28.12
-31.90
-35.95
-40.05
-43.97
-47.57
-50.88
-54.02
-57.27
-61.03
-65.75
-71.68
-78.62
-85.61
-91.03
-93.01
-90.09
-81.89
-69.32
-54.27
-38.89
-24.86
-12.93
-2.99
5.49
13.00
19.67
25.33
29.71
32.68
34.36
35.06
35.09
34.71
34.08
33.35
32.61
31.92
31.25
30.51
29.57
28.41
27.03
25.43
23.49
20.90
17.25
12.20
5.70
-1.93
-10.07
-18.02
-25.22
-31.43
-36.76
-41.55
-46.28
-51.48
-57.62
-64.87
-72.90
-80.72
-86.70
-89.07
-86.41
-78.32
-65.63
-50.11
-33.88
-18.72
-5.55
5.54
15.00
23.33
30.74
37.09
42.06
45.41
47.21
47.82
47.77
47.53
47.37
47.26
47.00
46.40
45.34
43.85
42.05
39.99
37.63
34.82
31.31
26.91
21.52
15.17
8.07
0.61
-6.80
-13.78
-20.17
-26.09
-31.92
-38.13
-45.19
-53.41
-62.86
-73.25
-83.72
-92.90
-98.97
-100.23
-95.64
-85.32
-70.59
-53.51
-36.16
-19.93
-5.32
7.89
20.12
31.58
42.06
51.12
58.33
63.49
66.67
68.15
68.35
67.71
66.66
65.49
64.33
63.13
61.75
60.06
58.02
55.69
53.09
50.19
46.88
42.94
38.15
32.33
25.45
17.65
9.29
0.86
-7.19
-14.59
-21.45
-28.20
-35.46
-43.81
-53.60
-64.70
-76.48
-87.70
-96.64
-101.42
-100.45
-93.08
-79.88
-62.64
-43.76
-25.49
-9.20
4.79
16.96
27.98
38.25
47.68
55.84
62.25
66.64
69.02
69.66
68.97
67.42
65.44
63.37
61.41
59.53
57.62
55.47
52.96
50.06
46.80
43.17
39.06
34.28
28.58
21.87
14.19
5.82
-2.84
-11.31
-19.23
-26.40
-32.91
-39.20
-45.91
-53.77
-63.29
-74.47
-86.54
-97.93
-106.52
-110.18
-107.41
-97.86
-82.53
-63.50
-43.25
-23.93
-6.83
7.68
19.91
30.37
39.36
46.91
52.88
57.17
59.82
61.10
61.33
60.83
59.84
58.47
56.84
55.01
53.10
51.19
49.32
47.42
45.35
42.85
39.59
35.30
29.84
23.30
16.02
8.51
1.27
-5.46
-11.74
-17.92
-24.49
-31.88
-40.40
-50.16
-61.08
-72.76
-84.28
-94.15
-100.51
-101.63
-96.55
-85.55
-70.08
-52.28
-34.21
-17.25
-2.00
11.57
23.66
34.42
43.78
51.60
57.74
62.17
64.94
66.20
66.21
65.36
64.11
62.84
61.79
60.92
60.02
58.77
56.89
54.23
50.84
46.84
42.40
37.59
32.37
26.62
20.25
13.29
5.90
-1.68
-9.24
-16.70
-24.09
-31.51
-39.17
-47.32
-56.29
-66.29
-77.13
-87.94
-97.10
-102.61
-102.66
-96.37
-84.19
-67.71
-49.14
-30.54
-13.28
2.10
15.66
27.64
38.21
47.33
54.85
60.67
64.80
67.36
68.54
68.54
67.57
65.93
63.94
61.89
60.02
58.37
56.89
55.42
53.71
51.51
48.59
44.77
39.96
34.15
27.47
20.12
12.39
4.55
-3.19
-10.67
-17.84
-24.71
-31.35
-37.96
-44.86
-52.51
-61.23
-70.91
-80.70
-88.99
-93.75
-93.24
-86.64
-74.48
-58.45
-40.82
-23.59
-8.07
5.33
16.79
26.73
35.39
42.78
48.74
53.12
55.96
57.44
57.89
57.62
56.84
55.66
54.13
52.31
50.31
48.23
46.08
43.81
41.33
38.60
35.60
32.36
28.81
24.82
20.20
14.79
8.67
2.06
-4.75
-11.48
-17.97
-24.15
-30.07
-35.81
-41.62
-47.92
-55.20
-63.80
-73.43
-83.01
-90.69
-94.41
-92.57
-84.71
-71.73
-55.57
-38.54
-22.55
-8.68
2.93
12.74
21.29
28.89
35.52
40.87
44.69
46.88
47.64
47.39
46.57
45.55
44.43
43.15
41.57
39.63
37.49
35.42
33.66
32.25
30.96
29.35
26.93
23.34
18.46
12.43
5.60
-1.63
-8.82
-15.65
-21.94
-27.73
-33.26
-38.92
-45.20
-52.52
-61.01
-70.26
-79.22
-86.31
-89.78
-88.27
-81.29
-69.47
-54.37
-38.05
-22.36
-8.52
3.03
12.55
20.61
27.72
34.10
39.69
44.16
47.25
48.88
49.23
48.71
47.75
46.65
45.54
44.36
42.98
41.33
39.40
37.29
35.05
32.70
30.10
27.04
23.30
18.77
13.48
7.64
1.54
-4.51
-10.38
-16.07
-21.68
-27.37
-33.23
-39.37
-45.96
-53.29
-61.61
-70.83
-80.23
-88.34
-93.29
-93.37
-87.73
-76.76
-62.00
-45.62
-29.64
-15.37
-3.22
7.11
16.13
24.25
31.50
37.72
42.67
46.25
48.56
49.83
50.32
50.25
49.75
48.94
47.90
46.71
45.42
44.02
42.46
40.68
38.59
36.12
33.22
29.83
25.84
21.19
15.86
9.97
3.78
-2.43
-8.39
-13.99
-19.29
-24.52
-29.96
-35.94
-42.71
-50.46
-59.19
-68.56
-77.70
-85.24
-89.54
-89.09
-83.18
-72.19
-57.55
-41.33
-25.55
-11.56
0.11
9.70
17.75
24.81
31.12
36.71
41.43
45.12
47.68
49.05
49.26
48.43
46.81
44.75
42.66
40.86
39.52
38.57
37.76
36.75
35.22
32.97
30.03
26.55
22.77
18.82
14.66
10.06
4.75
-1.39
-8.19
-15.20
-21.84
-27.72
-32.83
-37.54
-42.52
-48.41
-55.64
-64.13
-73.19
-81.54
-87.49
-89.35
-86.00
-77.32
-64.29
-48.77
-32.82
-18.11
-5.49
4.98
13.71
21.14
27.54
32.85
36.93
39.68
41.16
41.60
41.32
40.67
39.90
39.15
38.39
37.54
36.50
35.22
33.77
32.19
30.52
28.67
26.46
23.71
20.19
15.78
10.49
4.51
-1.85
-8.20
-14.16
-19.57
-24.50
-29.23
-34.26
-40.04
-46.98
-55.19
-64.35
-73.58
-81.43
-86.23
-86.49
-81.49
-71.56
-57.98
-42.61
-27.19
-12.97
-0.49
10.25
19.49
27.50
34.37
40.08
44.58
47.83
49.83
50.66
50.42
49.34
47.69
45.76
43.82
42.09
40.67
39.53
38.54
37.51
36.19
34.38
31.88
28.55
24.27
19.03
12.89
6.13
-0.85
-7.64
-13.88
-19.49
-24.68
-29.86
-35.54
-42.15
-49.97
-58.89
-68.42
-77.50
-84.66
-88.27
-87.00
-80.34
-68.85
-54.03
-37.86
-22.21
-8.27
3.59
13.60
22.28
30.05
37.01
42.98
47.69
50.93
52.68
53.12
52.59
51.48
50.13
48.84
47.69
46.68
45.65
44.46
43.00
41.25
39.19
36.75
33.77
30.02
25.35
19.77
13.48
6.84
0.19
-6.23
-12.30
-18.06
-23.61
-29.09
-34.71
-40.76
-47.58
-55.47
-64.36
-73.69
-82.23
-88.33
-90.33
-87.10
-78.54
-65.60
-50.04
-33.82
-18.50
-4.93
6.76
16.84
25.70
33.53
40.38
46.04
50.31
52.99
54.03
53.67
52.36
50.69
49.18
48.04
47.22
46.49
45.62
44.55
43.34
42.02
40.48
38.43
35.55
31.67
26.85
21.26
15.17
8.76
2.11
-4.69
-11.50
-18.07
-24.19
-29.73
-34.75
-39.57
-44.72
-50.85
-58.41
-67.39
-76.95
-85.45
-90.81
-91.15
-85.53
-74.35
-59.21
-42.33
-25.80
-10.99
1.60
12.10
20.91
28.37
34.66
39.84
43.90
46.80
48.59
49.40
49.45
49.03
48.47
47.95
47.47
46.81
45.74
44.12
42.02
39.66
37.31
35.11
32.89
30.27
26.83
22.23
16.45
9.78
2.73
-4.16
-10.52
-16.21
-21.32
-26.11
-30.90
-36.12
-42.23
-49.62
-58.42
-68.15
-77.60
-84.91
-88.10
-85.75
-77.53
-64.42
-48.35
-31.56
-15.87
-2.29
8.99
18.31
26.18
33.03
39.04
44.20
48.42
51.59
53.63
54.59
54.59
53.88
52.76
51.49
50.30
49.26
48.32
47.30
46.00
44.21
41.84
38.93
35.61
32.00
28.18
24.03
19.36
13.96
7.72
0.80
-6.46
-13.56
-20.05
-25.73
-30.75
-35.58
-40.90
-47.35
-55.24
-64.39
-73.95
-82.50
-88.31
-89.77
-85.94
-76.87
-63.65
-48.07
-32.08
-17.17
-4.07
7.16
16.85
25.34
32.76
39.07
44.16
48.06
50.90
52.85
54.03
54.39
53.87
52.47
50.41
48.13
46.17
44.89
44.33
44.17
43.81
42.66
40.34
36.79
32.28
27.26
22.17
17.27
12.61
7.97
3.04
-2.42
-8.42
-14.73
-20.93
-26.66
-31.81
-36.64
-41.73
-47.80
-55.33
-64.35
-74.14
-83.28
-89.98
-92.50
-89.74
-81.63
-69.19
-54.20
-38.61
-23.99
-11.20
-0.36
8.81
16.64
23.38
29.10
33.82
37.63
40.64
42.92
44.45
45.13
44.91
43.96
42.65
41.45
40.76
40.65
40.88
40.94
40.34
38.75
36.12
32.64
28.65
24.44
20.18
15.80
11.15
6.01
0.30
-5.86
-12.20
-18.35
-24.05
-29.23
-34.05
-38.82
-44.00
-49.99
-57.00
-64.91
-73.01
-80.06
-84.43
-84.61
-79.68
-69.77
-56.04
-40.36
-24.70
-10.59
1.25
10.83
18.63
25.19
30.88
35.79
39.83
42.86
44.86
45.94
46.32
46.25
45.90
45.37
44.67
43.80
42.77
41.62
40.33
38.83
36.99
34.62
31.62
27.95
23.75
19.13
14.24
9.17
3.92
-1.46
-6.91
-12.28
-17.43
-22.26
-26.87
-31.48
-36.45
-42.21
-49.08
-57.13
-65.91
-74.30
-80.67
-83.25
-80.74
-72.92
-60.79
-46.24
-31.34
-17.64
-5.80
4.34
13.26
21.38
28.73
35.12
40.32
44.22
46.90
48.49
49.11
48.91
48.07
46.89
45.68
44.73
44.10
43.65
43.13
42.25
40.74
38.48
35.46
31.79
27.63
23.14
18.42
13.43
8.10
2.32
-3.88
-10.33
-16.76
-22.85
-28.41
-33.44
-38.20
-43.16
-48.93
-56.05
-64.62
-74.06
-83.01
-89.52
-91.65
-88.19
-79.11
-65.64
-49.83
-33.81
-19.18
-6.69
3.66
12.33
19.83
26.48
32.37
37.46
41.66
44.93
47.25
48.61
49.06
48.68
47.71
46.48
45.35
44.60
44.27
44.12
43.71
42.56
40.37
37.09
32.99
28.44
23.82
19.34
14.98
10.62
6.01
0.94
-4.68
-10.80
-17.22
-23.70
-30.00
-36.03
-41.94
-48.09
-54.92
-62.71
-71.30
-79.90
-87.12
-91.31
-91.09
-85.81
-75.86
-62.52
-47.53
-32.57
-18.78
-6.66
3.88
13.13
21.40
28.71
34.89
39.67
42.87
44.60
45.18
45.04
44.62
44.12
43.61
43.04
42.33
41.45
40.33
38.89
37.01
34.58
31.56
28.00
23.94
19.43
14.43
8.91
2.92
-3.30
-9.46
-15.29
-20.69
-25.77
-30.79
-36.05
-41.86
-48.54
-56.30
-65.11
-74.35
-82.73
-88.43
-89.61
-85.15
-75.10
-60.77
-44.30
-27.83
-12.92
-0.22
10.41
19.49
27.51
34.68
40.91
46.00
49.77
52.19
53.41
53.74
53.47
52.88
52.04
50.93
49.50
47.74
45.80
43.83
41.94
40.09
38.10
35.70
32.67
28.84
24.14
18.59
12.30
5.51
-1.45
-8.25
-14.69
-20.75
-26.63
-32.64
-39.13
-46.39
-54.60
-63.63
-72.85
-81.00
-86.36
-87.21
-82.49
-72.32
-58.02
-41.69
-25.39
-10.54
2.31
13.33
22.90
31.29
38.52
44.49
49.08
52.34
54.42
55.53
55.84
55.48
54.50
53.04
51.23
49.26
47.31
45.45
43.69
41.90
39.92
37.57
34.74
31.31
27.18
22.24
16.47
9.98
3.08
-3.86
-10.56
-16.92
-23.11
-29.45
-36.27
-43.81
-52.19
-61.36
-70.94
-80.12
-87.56
-91.64
-90.92
-84.73
-73.55
-58.88
-42.73
-26.95
-12.65
-0.09
11.02
21.06
30.18
38.22
44.92
50.11
53.83
56.27
57.64
58.08
57.69
56.55
54.86
52.92
50.99
49.30
47.82
46.37
44.71
42.63
40.10
37.13
33.74
29.84
25.19
19.57
12.94
5.54
-2.08
-9.31
-15.76
-21.38
-26.51
-31.70
-37.50
-44.34
-52.39
-61.56
-71.28
-80.43
-87.41
-90.48
-88.37
-80.76
-68.50
-53.37
-37.43
-22.35
-9.06
2.33
12.17
20.89
28.69
35.45
40.89
44.74
46.96
47.74
47.53
46.80
45.91
44.96
43.87
42.49
40.77
38.83
36.90
35.14
33.55
31.92
29.93
27.25
23.68
19.15
13.78
7.78
1.51
-4.70
-10.50
-15.74
-20.50
-25.11
-30.03
-35.72
-42.49
-50.46
-59.32
-68.36
-76.31
-81.64
-82.87
-79.12
-70.42
-57.85
-43.12
-28.07
-14.05
-1.69
9.00
18.33
26.54
33.73
39.79
44.62
48.21
50.60
51.88
52.17
51.68
50.65
49.37
48.08
46.91
45.81
44.61
43.16
41.35
39.21
36.77
34.03
30.86
27.06
22.43
16.97
10.87
4.47
-1.86
-7.88
-13.52
-18.92
-24.34
-30.12
-36.57
-44.03
-52.68
-62.35
-72.30
-81.12
-87.00
-88.22
-83.80
-73.97
-60.12
-44.37
-28.80
-14.80
-2.85
7.36
16.45
24.90
32.83
39.98
45.97
50.48
53.34
54.63
54.56
53.49
51.84
50.00
48.29
46.85
45.67
44.61
43.47
42.08
40.30
38.01
35.12
31.61
27.46
22.75
17.59
12.09
6.34
0.43
-5.58
-11.57
-17.40
-23.01
-28.44
-33.92
-39.82
-46.54
-54.32
-63.06
-72.08
-80.07
-85.37
-86.34
-82.02
-72.53
-59.13
-43.79
-28.55
-14.86
-3.23
6.50
14.87
22.27
28.82
34.35
38.71
41.87
43.99
45.34
46.10
46.34
46.06
45.26
44.03
42.55
41.02
39.56
38.15
36.65
34.87
32.64
29.90
26.66
23.00
18.97
14.53
9.62
4.14
-1.87
-8.26
-14.68
-20.83
-26.51
-31.79
-37.00
-42.66
-49.22
-56.95
-65.59
-74.32
-81.76
-86.27
-86.40
-81.46
-71.75
-58.57
-43.79
-29.25
-16.18
-5.01
4.51
12.86
20.41
27.16
32.86
37.21
40.09
41.64
42.17
42.04
41.55
40.87
40.13
39.39
38.68
37.94
37.06
35.92
34.45
32.56
30.24
27.41
23.99
19.88
15.10
9.78
4.15
-1.49
-6.91
-12.02
-16.93
-21.85
-27.11
-32.97
-39.68
-47.36
-55.84
-64.62
-72.73
-78.85
-81.56
-79.79
-73.18
-62.31
-48.56
-33.71
-19.40
-6.72
3.97
12.87
20.42
26.98
32.75
37.70
41.71
44.63
46.40
47.07
46.83
45.96
44.75
43.47
42.25
41.06
39.78
38.29
36.53
34.51
32.28
29.78
26.90
23.39
19.07
13.87
7.87
1.33
-5.41
-11.98
-18.10
-23.68
-28.83
-33.88
-39.34
-45.71
-53.33
-62.11
-71.42
-80.06
-86.46
-89.05
-86.76
-79.39
-67.75
-53.41
-38.23
-23.79
-10.97
0.06
9.65
18.22
25.99
32.89
38.62
42.90
45.62
46.91
47.05
46.40
45.33
44.13
43.00
42.06
41.30
40.64
39.96
39.06
37.76
35.89
33.29
29.84
25.48
20.30
14.50
8.41
2.36
-3.38
-8.69
-13.67
-18.51
-23.55
-29.15
-35.64
-43.28
-52.11
-61.73
-71.23
-79.16
-83.91
-84.19
-79.42
-70.04
-57.33
-42.99
-28.59
-15.25
-3.42
6.96
16.15
24.37
31.62
37.78
42.64
46.05
48.08
48.92
48.91
48.37
47.55
46.50
45.20
43.62
41.76
39.71
37.58
35.41
33.13
30.53
27.38
23.48
18.72
13.12
6.86
0.20
-6.57
-13.14
-19.32
-25.08
-30.59
-36.21
-42.37
-49.48
-57.74
-67.02
-76.64
-85.39
-91.63
-93.77
-90.70
-82.28
-69.40
-53.77
-37.34
-21.75
-7.94
3.88
13.97
22.77
30.49
37.12
42.37
46.03
48.05
48.66
48.31
47.50
46.57
45.58
44.44
43.02
41.37
39.63
38.04
36.67
35.38
33.77
31.34
27.67
22.55
16.10
8.71
0.99
-6.47
-13.25
-19.26
-24.73
-30.12
-36.01
-42.92
-51.18
-60.75
-71.01
-80.72
-88.09
-91.25
-88.85
-80.62
-67.53
-51.49
-34.66
-18.76
-4.66
7.58
18.36
28.06
36.79
44.39
50.50
54.90
57.61
58.90
59.27
59.21
59.03
58.73
58.07
56.75
54.63
51.87
48.90
46.18
43.87
41.74
39.17
35.50
30.31
23.64
15.98
8.00
0.31
-6.75
-13.19
-19.30
-25.45
-32.09
-39.68
-48.52
-58.65
-69.50
-79.83
-87.80
-91.52
-89.61
-81.79
-69.05
-53.29
-36.72
-21.07
-7.25
4.71
15.29
25.02
34.10
42.39
49.48
55.04
58.98
61.42
62.70
63.10
62.78
61.79
60.12
57.83
55.11
52.24
49.46
46.93
44.56
42.08
39.11
35.29
30.36
24.33
17.46
10.18
2.97
-3.85
-10.20
-16.21
-22.15
-28.30
-34.89
-42.14
-50.21
-59.15
-68.66
-77.86
-85.29
-89.19
-88.09
-81.36
-69.59
-54.41
-37.86
-21.76
-7.18
5.62
16.88
26.97
36.09
44.21
51.10
56.57
60.47
62.78
63.63
63.23
61.90
59.97
57.77
55.51
53.32
51.22
49.16
47.03
44.68
41.93
38.69
34.96
30.81
26.32
21.48
16.18
10.28
3.72
-3.36
-10.61
-17.59
-23.87
-29.29
-33.99
-38.49
-43.53
-49.83
-57.79
-67.12
-76.74
-84.87
-89.53
-89.16
-83.19
-72.23
-57.89
-42.16
-26.86
-13.17
-1.46
8.50
17.21
25.11
32.31
38.67
43.81
47.44
49.45
49.97
49.41
48.19
46.73
45.29
44.05
43.06
42.26
41.50
40.53
39.12
37.04
34.31
31.03
27.39
23.50
19.33
14.74
9.62
4.00
-1.90
-7.77
-13.38
-18.66
-23.77
-29.00
-34.69
-41.14
-48.53
-56.75
-65.31
-73.20
-78.99
-81.16
-78.61
-71.10
-59.43
-45.23
-30.45
-16.67
-4.76
5.26
13.85
21.57
28.76
35.38
41.16
45.78
49.00
50.79
51.27
50.68
49.30
47.46
45.49
43.68
42.24
41.20
40.38
39.50
38.23
36.35
33.78
30.62
27.00
23.05
18.82
14.30
9.44
4.24
-1.27
-6.94
-12.61
-18.09
-23.24
-28.06
-32.71
-37.56
-43.12
-49.86
-57.92
-66.78
-75.21
-81.46
-83.78
-81.10
-73.41
-61.79
-47.99
-33.83
-20.63
-8.99
1.10
9.95
17.83
24.89
31.03
36.12
40.01
42.62
44.03
44.38
43.92
42.92
41.66
40.36
39.17
38.17
37.33
36.54
35.59
34.27
32.37
29.82
26.70
23.22
19.65
16.20
12.95
9.76
6.35
2.41
-2.30
-7.81
-13.85
-20.03
-25.90
-31.16
-35.85
-40.33
-45.22
-51.15
-58.36
-66.46
-74.30
-80.23
-82.55
-80.15
-72.85
-61.53
-47.81
-33.50
-20.15
-8.61
0.88
8.57
14.91
20.33
25.10
29.29
32.84
35.64
37.57
38.56
38.64
37.88
36.47
34.61
32.60
30.70
29.13
27.97
27.12
26.30
25.16
23.43
20.98
17.90
14.38
10.59
6.57
2.22
-2.57
-7.86
-13.49
-19.16
-24.49
-29.21
-33.24
-36.80
-40.36
-44.56
-50.02
-57.02
-65.30
-73.81
-80.90
-84.78
-84.05
-78.23
-67.93
-54.62
-40.14
-26.17
-13.86
-3.67
4.51
11.16
16.88
22.15
27.12
31.63
35.30
37.75
38.80
38.61
37.61
36.33
35.25
34.56
34.23
34.04
33.67
32.89
31.59
29.79
27.60
25.07
22.16
18.74
14.68
9.96
4.72
-0.79
-6.27
-11.52
-16.45
-21.11
-25.66
-30.35
-35.52
-41.58
-48.90
-57.54
-66.99
-76.06
-83.06
-86.21
-84.24
-76.92
-65.11
-50.60
-35.42
-21.27
-9.06
1.09
9.62
17.10
23.88
30.02
35.35
39.67
42.84
44.82
45.69
45.61
44.76
43.43
41.93
40.56
39.46
38.60
37.77
36.71
35.21
33.14
30.50
27.32
23.65
19.51
14.92
9.93
4.58
-1.09
-7.04
-13.21
-19.49
-25.78
-32.04
-38.34
-44.97
-52.33
-60.75
-70.25
-80.19
-89.28
-95.81
-98.05
-94.96
-86.51
-73.77
-58.47
-42.44
-27.05
-13.02
-0.49
10.65
20.53
29.13
36.40
42.29
46.81
50.06
52.12
53.13
53.25
52.73
51.87
50.96
50.23
49.73
49.36
48.86
47.96
46.38
43.97
40.71
36.74
32.24
27.38
22.18
16.56
10.38
3.57
-3.76
-11.33
-18.78
-25.81
-32.35
-38.61
-45.05
-52.25
-60.66
-70.37
-80.91
-91.08
-99.13
-103.15
-101.60
-93.87
-80.55
-63.31
-44.36
-25.80
-9.08
5.19
17.12
27.16
35.78
43.19
49.35
54.13
57.39
59.15
59.64
59.22
58.23
56.96
55.53
53.96
52.26
50.44
48.59
46.77
44.92
42.88
40.38
37.17
33.04
27.93
21.87
15.00
7.54
-0.22
-8.00
-15.50
-22.58
-29.27
-35.76
-42.51
-50.00
-58.71
-68.78
-79.79
-90.51
-99.05
-103.31
-101.56
-93.16
-78.83
-60.41
-40.32
-20.80
-3.30
11.60
24.05
34.51
43.33
50.64
56.37
60.45
62.93
64.09
64.32
64.02
63.40
62.49
61.20
59.39
57.12
54.55
51.94
49.49
47.27
45.11
42.64
39.43
35.09
29.46
22.61
14.94
6.93
-0.92
-8.35
-15.34
-22.16
-29.26
-37.13
-46.22
-56.73
-68.45
-80.51
-91.35
-98.98
-101.43
-97.46
-86.98
-71.16
-52.03
-31.87
-12.61
4.57
19.22
31.47
41.64
50.06
56.93
62.30
66.13
68.42
69.24
68.81
67.49
65.68
63.67
61.55
59.28
56.76
53.97
51.02
48.13
45.44
42.92
40.29
37.04
32.61
26.63
19.16
10.68
1.97
-6.16
-13.26
-19.36
-24.89
-30.49
-36.73
-44.03
-52.60
-62.45
-73.26
-84.15
-93.53
-99.29
-99.37
-92.50
-78.76
-59.62
-37.38
-14.33
7.97
28.89
48.34
66.26
82.22
95.42
104.96
110.31
111.51
109.17
104.31
98.04
91.38
85.05
79.47
74.69
70.58
66.90
63.49
60.30
57.28
54.34
51.19
47.40
42.52
36.26
28.61
19.85
10.51
1.10
-7.97
-16.55
-24.70
-32.57
-40.35
-48.17
-56.15
-64.52
-73.49
-83.07
-92.71
-101.15
-106.60
-107.31
-102.27
-91.66
-76.86
-59.94
-42.84
-26.86
-12.51
0.29
11.73
21.69
29.75
35.26
37.77
37.28
34.37
30.04
25.33
20.98
17.14
13.51
9.65
5.34
0.81
-3.38
-6.63
-8.64
-9.59
-10.01
-10.50
-11.46
-13.02
-15.10
-17.60
-20.45
-23.62
-27.02
-30.47
-33.74
-36.78
-39.84
-43.50
-48.41
-54.94
-62.74
-70.63
-76.79
-79.38
-77.13
-69.87
-58.55
-44.86
-30.69
-17.53
-6.16
3.29
11.06
17.48
22.70
26.67
29.26
30.43
30.28
29.08
27.14
24.76
22.21
19.67
17.29
15.15
13.20
11.26
9.12
6.57
3.61
0.42
-2.71
-5.49
-7.80
-9.65
-11.12
-12.35
-13.47
-14.63
-16.10
-18.19
-21.26
-25.66
-31.55
-38.81
-46.80
-54.30
-59.71
-61.41
-58.39
-50.65
-39.29
-26.17
-13.14
-1.41
8.74
17.66
25.83
33.29
39.57
44.12
46.82
48.26
49.60
52.01
56.09
61.61
67.79
73.79
79.12
83.78
87.96
91.63
94.28
94.99
92.74
86.90
77.46
65.08
50.89
36.07
21.61
8.23
-3.63
-13.63
-21.58
-27.51
-31.82
-35.33
-39.04
-43.70
-49.27
-54.81
-58.69
-59.28
-55.70
-48.23
-38.17
-27.30
-17.11
-8.41
-1.17
5.13
11.02
16.75
22.12
26.65
29.87
31.58
31.85
31.03
29.51
27.63
25.55
23.31
20.93
18.49
16.22
14.37
13.17
12.63
12.51
12.32
11.53
9.73
6.88
3.32
-0.36
-3.51
-5.74
-7.02
-7.75
-8.63
-10.49
-14.02
-19.53
-26.73
-34.59
-41.62
-46.19
-47.12
-44.09
-37.68
-29.19
-20.06
-11.46
-4.05
2.06
7.19
11.85
16.51
21.36
26.08
29.97
32.18
32.16
29.89
26.00
21.38
16.78
12.54
8.60
4.85
1.35
-1.57
-3.59
-4.66
-5.27
-6.26
-8.41
-12.12
-17.18
-22.96
-28.64
-33.66
-37.83
-41.38
-44.89
-49.06
-54.46
-61.23
-68.90
-76.32
-81.93
-84.18
-82.09
-75.60
-65.56
-53.35
-40.43
-27.86
-16.17
-5.49
4.21
12.95
20.68
27.32
32.83
37.23
40.53
42.72
43.82
43.89
43.03
41.41
39.22
36.66
33.94
31.33
29.07
27.29
25.85
24.39
22.36
19.26
14.88
9.38
3.25
-2.88
-8.51
-13.46
-17.85
-22.15
-26.95
-32.85
-40.18
-48.86
-58.16
-66.70
-72.79
-74.87
-72.04
-64.39
-52.99
-39.51
-25.63
-12.59
-0.97
9.17
18.02
25.75
32.34
37.66
41.63
44.28
45.82
46.55
46.75
46.57
46.00
44.92
43.21
40.91
38.28
35.72
33.67
32.28
31.38
30.45
28.77
25.75
21.13
15.12
8.27
1.29
-5.22
-11.00
-16.15
-21.00
-26.04
-31.76
-38.55
-46.57
-55.66
-65.21
-74.09
-80.78
-83.76
-81.91
-74.97
-63.62
-49.39
-34.11
-19.47
-6.53
4.39
13.58
21.55
28.75
35.31
41.05
45.60
48.66
50.18
50.45
49.89
48.95
47.91
46.84
45.69
44.45
43.17
41.95
40.84
39.73
38.36
36.42
33.65
29.92
25.27
19.83
13.80
7.41
0.95
-5.36
-11.33
-16.95
-22.39
-27.97
-34.08
-41.14
-49.43
-58.88
-68.92
-78.32
-85.43
-88.54
-86.46
-78.99
-67.00
-52.14
-36.32
-21.11
-7.49
4.25
14.24
22.80
30.19
36.48
41.59
45.33
47.59
48.44
48.16
47.21
46.05
44.94
43.97
43.04
42.02
40.79
39.34
37.67
35.80
33.69
31.26
28.39
24.93
20.70
15.62
9.72
3.16
-3.74
-10.62
-17.22
-23.44
-29.37
-35.28
-41.53
-48.54
-56.60
-65.67
-75.18
-83.93
-90.27
-92.59
-89.85
-81.94
-69.78
-54.98
-39.34
-24.38
-11.05
0.20
9.35
16.58
22.09
26.10
28.80
30.38
31.02
31.02
30.65
30.22
29.85
29.46
28.80
27.63
25.87
23.72
21.54
19.65
18.16
16.88
15.47
13.64
11.33
8.72
6.06
3.52
1.05
-1.50
-4.38
-7.68
-11.44
-15.60
-20.18
-25.24
-30.98
-37.49
-44.61
-51.74
-57.79
-61.29
-60.85
-55.60
-45.56
-31.71
-15.66
0.85
16.51
30.70
43.42
55.00
65.78
75.95
85.43
94.02
101.43
107.43
111.74
114.02
113.83
110.72
104.51
95.50
84.62
73.20
62.59
53.70
46.61
40.68
34.92
28.54
21.25
13.33
5.30
-2.55
-10.27
-18.23
-26.65
-35.31
-43.39
-49.83
-53.79
-55.20
-54.92
-54.45
-55.25
-58.05
-62.46
-67.03
-69.89
-69.44
-64.96
-56.65
-45.37
-32.20
-18.17
-4.20
8.66
19.07
25.59
27.19
23.72
16.25
6.74
-2.63
-10.23
-15.45
-18.66
-20.78
-22.75
-25.08
-27.83
-30.64
-32.88
-33.91
-33.15
-30.46
-26.18
-21.23
-16.84
-14.11
-13.66
-15.46
-19.04
-23.70
-28.83
-33.96
-38.73
-42.83
-46.02
-48.28
-49.95
-51.70
-54.18
-57.61
-61.48
-64.62
-65.68
-63.64
-58.24
-49.91
-39.39
-27.36
-14.15
-0.00
14.70
29.15
42.16
52.56
59.71
63.75
65.53
66.14
66.43
66.63
66.36
65.03
62.23
58.08
53.26
48.81
45.69
44.51
45.31
47.54
50.18
51.83
50.89
45.91
36.07
21.57
3.76
-15.18
-32.99
-48.07
-59.91
-69.06
-76.59
-83.44
-89.99
-95.90
-100.29
-102.12
-100.53
-95.08
-85.84
-73.41
-58.76
-43.01
-27.32
-12.68
0.16
10.79
19.16
25.57
30.59
34.83
38.73
42.47
45.95
48.95
51.30
52.97
54.10
54.88
55.58
56.39
57.55
59.24
61.60
64.64
68.23
72.16
76.16
80.04
83.66
86.93
89.75
91.89
92.93
92.28
89.22
83.20
74.03
62.10
48.34
34.07
20.68
9.36
0.92
-4.34
-6.52
-6.11
-3.87
-0.66
2.66
5.34
6.81
6.69
4.81
1.12
-4.17
-10.56
-17.33
-23.69
-29.02
-33.05
-35.90
-37.91
-39.35
-40.33
-40.69
-40.19
-38.69
-36.30
-33.34
-30.25
-27.45
-25.23
-23.67
-22.68
-21.95
-21.10
-19.76
-17.82
-15.53
-13.50
-12.63
-13.72
-17.21
-22.88
-29.82
-36.61
-41.62
-43.49
-41.39
-35.28
-25.80
-14.09
-1.45
11.00
22.63
33.36
43.56
53.73
64.05
74.14
82.99
89.37
92.31
91.59
87.77
81.90
75.03
67.89
60.83
54.13
48.18
43.49
40.41
38.81
38.03
37.13
35.37
32.50
28.77
24.57
20.14
15.33
9.78
3.18
-4.56
-13.30
-22.78
-32.62
-42.24
-50.68
-56.63
-58.74
-56.21
-49.28
-39.38
-28.64
-19.17
-12.32
-8.33
-6.57
-6.15
-6.47
-7.41
-9.15
-11.82
-15.13
-18.51
-21.31
-23.19
-24.27
-24.99
-25.83
-26.99
-28.28
-29.29
-29.66
-29.34
-28.64
-28.03
-27.87
-28.10
-28.25
-27.59
-25.44
-21.52
-16.09
-9.93
-4.09
0.42
2.91
3.28
2.06
0.25
-0.89
-0.28
2.67
7.88
14.74
22.35
29.88
36.81
42.86
47.91
51.75
54.05
54.45
52.77
49.17
44.21
38.62
33.03
27.70
22.41
16.61
9.72
1.48
-7.86
-17.51
-26.49
-34.02
-39.90
-44.61
-49.08
-54.28
-60.78
-68.40
-76.23
-82.81
-86.52
-85.94
-80.30
-69.70
-55.35
-39.38
-24.43
-12.88
-6.08
-3.84
-4.41
-5.18
-3.71
1.44
10.13
20.98
32.03
41.71
49.34
55.19
59.96
64.28
68.33
71.89
74.69
76.66
78.02
79.01
79.59
79.31
77.55
73.90
68.50
62.05
55.47
49.50
44.38
39.85
35.36
30.31
24.33
17.49
10.35
3.78
-1.29
-4.40
-5.95
-7.27
-10.19
-16.29
-26.04
-38.44
-51.29
-62.05
-68.85
-71.07
-69.36
-65.10
-59.77
-54.46
-49.77
-45.96
-43.16
-41.53
-41.12
-41.84
-43.33
-44.99
-46.22
-46.62
-46.15
-45.11
-43.96
-43.09
-42.55
-42.07
-41.18
-39.52
-37.08
-34.30
-31.88
-30.44
-30.27
-31.14
-32.54
-33.89
-34.84
-35.42
-35.90
-36.64
-37.98
-40.20
-43.50
-47.97
-53.43
-59.25
-64.28
-67.10
-66.45
-61.72
-53.27
-42.22
-30.15
-18.43
-7.94
1.05
8.70
15.28
20.95
25.70
29.43
32.06
33.68
34.51
34.86
35.00
35.01
34.84
34.34
33.44
32.21
30.91
29.80
28.99
28.28
27.23
25.35
22.29
18.03
12.87
7.31
1.88
-3.12
-7.60
-11.81
-16.19
-21.26
-27.44
-34.86
-43.14
-51.33
-58.09
-61.91
-61.72
-57.15
-48.68
-37.53
-25.17
-12.93
-1.64
8.37
17.20
25.10
32.25
38.65
44.13
48.52
51.71
53.75
54.80
55.02
54.43
52.90
50.30
46.61
42.08
37.22
32.66
28.81
25.73
23.11
20.45
17.28
13.36
8.71
3.61
-1.64
-6.74
-11.57
-16.13
-20.55
-25.04
-29.92
-35.52
-42.15
-49.82
-58.08
-65.90
-71.83
-74.38
-72.56
-66.23
-56.20
-43.91
-30.89
-18.35
-6.89
3.39
12.63
20.95
28.32
34.57
39.51
43.07
45.26
46.22
46.20
45.50
44.38
43.10
41.80
40.54
39.28
37.98
36.60
35.13
33.55
31.78
29.69
27.15
24.05
20.35
16.01
11.07
5.52
-0.52
-6.85
-13.18
-19.28
-25.09
-30.81
-36.86
-43.69
-51.52
-60.05
-68.47
-75.47
-79.58
-79.64
-75.04
-66.07
-53.77
-39.68
-25.37
-12.04
-0.29
9.79
18.40
25.74
31.87
36.74
40.35
42.82
44.41
45.46
46.25
46.92
47.52
48.02
48.38
48.56
48.52
48.22
47.60
46.60
45.16
43.19
40.57
37.16
32.89
27.79
21.98
15.72
9.31
3.07
-2.79
-8.18
-13.28
-18.44
-24.15
-30.90
-38.92
-47.98
-57.27
-65.47
-70.95
-72.28
-68.63
-60.02
-47.45
-32.53
-17.11
-2.69
9.81
20.14
28.55
35.53
41.50
46.65
50.97
54.32
56.63
57.92
58.44
58.53
58.52
58.65
58.97
59.40
59.73
59.74
59.28
58.28
56.76
54.81
52.51
49.94
47.16
44.14
40.77
36.83
32.01
26.06
18.87
10.55
1.45
-8.05
-17.68
-27.45
-37.63
-48.62
-60.60
-73.27
-85.64
-96.17
-103.11
-105.03
-101.27
-92.23
-79.23
-64.12
-48.76
-34.47
-21.90
-11.06
-1.63
6.73
14.17
20.67
26.10
30.31
33.24
35.02
35.95
36.40
36.71
37.06
37.50
37.87
38.02
37.81
37.25
36.36
35.20
33.72
31.81
29.31
26.11
22.22
17.70
12.65
7.15
1.25
-4.91
-11.11
-17.08
-22.58
-27.60
-32.31
-37.16
-42.67
-49.20
-56.75
-64.73
-71.95
-76.75
-77.55
-73.25
-63.75
-50.05
-33.97
-17.65
-2.84
9.42
18.87
25.74
30.42
33.15
34.05
33.33
31.37
28.73
26.01
23.70
21.96
20.68
19.63
18.57
17.43
16.27
15.21
14.28
13.39
12.29
10.72
8.47
5.49
1.88
-2.15
-6.46
-10.93
-15.49
-20.08
-24.55
-28.70
-32.40
-35.71
-38.87
-42.35
-46.65
-52.12
-58.80
-66.24
-73.48
-79.17
-81.84
-80.23
-73.77
-62.78
-48.45
-32.55
-16.88
-2.79
9.06
18.69
26.48
32.87
38.11
42.30
45.41
47.47
48.63
49.10
49.14
48.94
48.57
48.02
47.24
46.13
44.63
42.79
40.73
38.67
36.77
34.98
33.02
30.47
26.95
22.31
16.77
10.74
4.69
-1.08
-6.52
-11.77
-17.06
-22.62
-28.70
-35.52
-43.20
-51.53
-59.80
-66.75
-70.89
-70.88
-66.07
-56.77
-44.20
-30.09
-16.15
-3.66
6.81
15.29
22.15
27.81
32.51
36.28
39.03
40.66
41.21
40.92
40.13
39.17
38.25
37.42
36.59
35.65
34.52
33.16
31.58
29.79
27.73
25.32
22.42
18.95
14.80
10.00
4.61
-1.12
-6.93
-12.60
-18.00
-23.23
-28.49
-34.08
-40.25
-47.17
-54.86
-63.05
-71.09
-77.86
-81.98
-82.16
-77.65
-68.62
-56.15
-41.85
-27.38
-13.98
-2.24
7.78
16.31
23.62
29.88
35.14
39.35
42.47
44.51
45.55
45.83
45.62
45.17
44.53
43.63
42.30
40.44
38.19
35.80
33.56
31.54
29.56
27.19
24.00
19.69
14.23
7.85
0.93
-6.09
-12.89
-19.27
-25.18
-30.74
-36.17
-41.80
-47.99
-55.04
-62.96
-71.29
-79.06
-84.82
-87.07
-84.68
-77.37
-65.84
-51.59
-36.40
-21.78
-8.63
2.76
12.50
20.81
27.74
33.24
37.23
39.76
41.04
41.37
41.09
40.48
39.73
38.94
38.12
37.24
36.20
34.93
33.42
31.75
29.97
28.06
25.90
23.22
19.77
15.40
10.18
4.35
-1.77
-7.82
-13.58
-18.94
-23.97
-28.85
-33.93
-39.61
-46.24
-53.98
-62.53
-70.96
-77.87
-81.58
-80.74
-74.74
-64.01
-49.91
-34.28
-18.88
-4.88
7.22
17.47
26.18
33.57
39.73
44.61
48.17
50.48
51.75
52.22
52.14
51.65
50.79
49.59
48.06
46.30
44.48
42.78
41.33
40.12
38.86
37.06
34.22
29.96
24.27
17.49
10.20
3.02
-3.63
-9.62
-15.09
-20.40
-26.05
-32.57
-40.38
-49.54
-59.53
-69.14
-76.65
-80.31
-78.88
-72.17
-61.01
-47.06
-32.13
-17.69
-4.58
6.93
16.90
25.37
32.24
37.37
40.74
42.60
43.49
44.03
44.65
45.43
46.09
46.17
45.32
43.51
41.03
38.35
35.87
33.77
31.95
30.08
27.70
24.34
19.73
13.82
6.87
-0.60
-8.01
-14.88
-21.02
-26.64
-32.19
-38.22
-45.25
-53.61
-63.26
-73.70
-83.80
-91.91
-96.20
-95.27
-88.65
-76.99
-61.94
-45.45
-29.27
-14.44
-1.31
10.23
20.39
29.22
36.58
42.27
46.17
48.38
49.25
49.32
49.12
48.98
48.92
48.70
47.99
46.60
44.58
42.24
39.94
37.85
35.89
33.68
30.73
26.62
21.11
14.24
6.24
-2.43
-11.27
-19.75
-27.53
-34.54
-41.01
-47.53
-54.82
-63.45
-73.51
-84.32
-94.40
-101.81
-104.65
-101.76
-93.05
-79.55
-63.07
-45.50
-28.40
-12.62
1.56
14.26
25.61
35.57
43.86
50.13
54.17
56.11
56.42
55.84
55.04
54.40
53.94
53.36
52.29
50.53
48.17
45.52
42.95
40.58
38.24
35.48
31.78
26.76
20.36
12.86
4.81
-3.19
-10.70
-17.56
-23.92
-30.19
-36.86
-44.38
-53.05
-62.85
-73.26
-83.12
-90.79
-94.37
-92.35
-84.09
-70.17
-52.31
-32.81
-13.89
2.97
17.28
29.32
39.68
48.79
56.71
63.17
67.89
70.79
72.16
72.49
72.28
71.83
71.16
70.07
68.37
65.99
63.10
60.04
57.10
54.44
51.92
49.06
45.30
40.12
33.32
25.09
15.99
6.73
-2.04
-9.97
-17.08
-23.72
-30.47
-37.97
-46.77
-57.19
-69.07
-81.66
-93.48
-102.52
-106.68
-104.43
-95.30
-80.13
-60.84
-39.90
-19.60
-1.53
13.67
26.16
36.54
45.43
53.23
59.94
65.33
69.12
71.18
71.70
71.07
69.80
68.29
66.73
65.08
63.24
61.06
58.50
55.58
52.33
48.72
44.63
39.89
34.32
27.87
20.63
12.86
4.88
-3.06
-10.82
-18.37
-25.73
-32.94
-40.11
-47.42
-55.27
-64.13
-74.23
-85.24
-95.98
-104.54
-108.72
-106.76
-98.00
-83.14
-64.09
-43.32
-23.14
-5.17
9.98
22.49
32.93
41.87
49.56
55.93
60.74
63.83
65.25
65.30
64.40
62.90
61.06
58.99
56.75
54.42
52.05
49.65
47.17
44.48
41.48
38.09
34.29
30.07
25.36
20.07
14.11
7.49
0.33
-7.14
-14.64
-21.90
-28.75
-35.12
-41.15
-47.26
-54.07
-62.11
-71.53
-81.72
-91.20
-97.90
-99.74
-95.36
-84.58
-68.54
-49.34
-29.34
-10.60
5.71
19.24
30.32
39.48
47.13
53.44
58.40
61.97
64.21
65.39
65.82
65.77
65.38
64.60
63.34
61.52
59.17
56.43
53.52
50.59
47.65
44.62
41.27
37.37
32.68
27.09
20.61
13.43
5.91
-1.58
-8.62
-14.98
-20.62
-25.83
-31.17
-37.37
-45.02
-54.29
-64.62
-74.72
-82.80
-87.00
-86.01
-79.48
-68.08
-53.29
-36.93
-20.70
-5.85
6.97
17.66
26.43
33.68
39.80
45.03
49.41
52.82
55.08
56.09
55.91
54.81
53.17
51.36
49.61
47.99
46.40
44.66
42.61
40.15
37.29
34.06
30.45
26.36
21.64
16.22
10.13
3.58
-3.10
-9.60
-15.75
-21.56
-27.15
-32.71
-38.47
-44.67
-51.59
-59.39
-67.93
-76.55
-84.04
-88.84
-89.50
-85.23
-76.17
-63.45
-48.82
-34.05
-20.47
-8.76
1.03
9.15
15.91
21.53
26.04
29.45
31.78
33.16
33.78
33.86
33.58
33.10
32.54
31.95
31.38
30.78
30.08
29.12
27.77
25.90
23.45
20.47
17.02
13.17
8.97
4.38
-0.64
-6.08
-11.85
-17.77
-23.63
-29.20
-34.39
-39.18
-43.72
-48.24
-53.10
-58.65
-65.04
-72.02
-78.75
-83.86
-85.77
-83.24
-75.85
-64.28
-50.05
-35.03
-20.86
-8.54
1.68
10.07
17.09
23.12
28.37
32.85
36.50
39.24
41.10
42.19
42.76
43.14
43.67
44.58
45.94
47.54
48.98
49.76
49.36
47.46
43.91
38.89
32.71
25.80
18.61
11.52
4.85
-1.19
-6.49
-11.13
-15.36
-19.58
-24.19
-29.49
-35.64
-42.66
-50.35
-58.27
-65.56
-71.03
-73.33
-71.38
-64.78
-54.04
-40.47
-25.73
-11.36
1.62
12.81
22.30
30.36
37.26
43.14
48.03
51.88
54.58
56.15
56.64
56.25
55.23
53.76
51.97
49.89
47.52
44.88
42.10
39.29
36.45
33.49
30.22
26.40
21.92
16.77
11.18
5.46
-0.04
-5.00
-9.21
-12.60
-15.32
-17.75
-20.50
-24.32
-29.83
-37.35
-46.63
-56.88
-66.94
-75.59
-81.87
-85.30
-85.82
-83.71
-79.36
-73.24
-65.85
-57.76
-49.52
-41.62
-34.38
-27.86
-21.98
-16.67
-11.92
-7.86
-4.68
-2.47
-1.17
-0.54
-0.21
0.12
0.60
1.20
1.79
2.26
2.60
2.96
3.44
4.05
4.61
4.75
4.05
2.22
-0.80
-4.83
-9.50
-14.46
-19.42
-24.26
-29.03
-33.88
-39.08
-44.95
-51.71
-59.32
-67.27
-74.46
-79.35
-80.42
-76.61
-67.82
-55.02
-39.93
-24.46
-10.13
2.30
12.80
21.78
29.68
36.78
43.11
48.63
53.46
57.88
62.22
66.73
71.36
75.75
79.35
81.62
82.18
80.87
77.81
73.33
67.91
62.09
56.25
50.54
44.76
38.55
31.61
23.91
15.77
7.55
-0.61
-9.01
-18.31
-29.13
-41.73
-55.80
-70.64
-85.43
-99.33
-111.51
-120.90
-126.22
-126.22
-120.12
-108.10
-91.35
-71.77
-51.42
-31.92
-14.24
1.27
14.62
25.96
35.41
43.03
48.85
52.89
55.25
56.17
56.04
55.39
54.67
54.25
54.26
54.65
55.15
55.32
54.58
52.31
47.95
41.23
32.24
21.52
9.93
-1.66
-12.52
-22.24
-30.69
-38.00
-44.51
-50.77
-57.45
-65.21
-74.37
-84.66
-95.00
-103.70
-108.79
-108.60
-102.38
-90.50
-74.37
-56.00
-37.40
-20.09
-4.93
7.88
18.50
27.21
34.25
39.71
43.67
46.22
47.58
48.00
47.76
46.98
45.70
43.78
41.08
37.62
33.64
29.58
25.94
23.01
20.63
18.20
14.81
9.68
2.40
-6.81
-17.14
-27.55
-37.07
-45.18
-51.91
-57.82
-63.80
-70.80
-79.42
-89.57
-100.12
-108.95
-113.41
-111.00
-100.29
-81.55
-56.80
-29.32
-2.67
20.33
38.30
51.33
60.64
67.81
74.12
80.22
86.17
91.67
96.43
100.32
103.37
105.60
106.88
106.92
105.53
102.71
98.79
94.31
89.81
85.59
81.63
77.61
73.10
67.74
61.35
54.02
46.13
38.16
30.67
24.03
18.36
13.33
8.36
2.72
-4.09
-12.05
-20.47
-28.07
-33.30
-34.72
-31.52
-23.68
-12.04
1.95
16.63
30.47
42.32
51.53
57.90
61.58
63.00
62.67
61.12
58.74
55.82
52.64
49.52
46.86
44.91
43.58
42.32
40.30
36.86
31.90
26.10
20.61
16.46
13.97
12.55
11.00
8.16
3.49
-2.70
-9.54
-16.11
-21.97
-27.30
-32.78
-39.26
-47.34
-57.11
-68.03
-78.90
-88.07
-93.62
-93.91
-88.09
-76.47
-60.56
-42.62
-25.02
-9.49
3.14
12.90
20.16
25.28
28.42
29.72
29.52
28.44
27.12
25.82
24.24
21.61
17.23
11.01
3.64
-3.60
-9.52
-13.61
-16.26
-18.48
-21.40
-25.66
-31.18
-37.31
-43.18
-48.14
-51.95
-54.82
-57.25
-59.83
-63.00
-66.88
-71.15
-74.94
-76.99
-75.91
-70.59
-60.57
-46.24
-28.90
-10.63
6.21
19.52
28.09
31.98
32.42
31.23
29.96
29.27
28.72
27.40
24.67
20.85
17.18
15.16
15.78
18.91
23.50
28.15
31.82
34.04
34.84
34.28
32.34
28.84
23.63
16.90
9.17
1.14
-6.53
-13.46
-19.71
-25.74
-32.28
-40.07
-49.54
-60.39
-71.43
-80.77
-86.34
-86.55
-80.93
-70.25
-56.21
-40.88
-26.06
-12.90
-1.86
7.13
14.39
20.19
24.66
27.75
29.34
29.44
28.25
26.26
24.09
22.33
21.34
21.10
21.31
21.50
21.17
19.95
17.64
14.23
9.92
5.07
0.14
-4.46
-8.55
-12.27
-15.96
-20.09
-25.02
-30.94
-37.79
-45.22
-52.54
-58.70
-62.43
-62.57
-58.52
-50.52
-39.69
-27.64
-15.90
-5.44
3.47
11.09
17.79
23.75
28.85
32.83
35.47
36.79
37.02
36.50
35.57
34.45
33.28
32.15
31.15
30.37
29.89
29.69
29.58
29.15
27.86
25.25
21.06
15.40
8.74
1.68
-5.24
-11.78
-18.09
-24.62
-31.86
-40.04
-48.87
-57.37
-64.09
-67.48
-66.52
-61.09
-52.10
-41.08
-29.63
-18.93
-9.42
-0.99
6.67
13.70
20.01
25.36
29.60
32.83
35.26
37.11
38.43
39.13
39.04
38.13
36.58
34.80
33.18
32.01
31.25
30.55
29.44
27.40
24.19
19.91
14.92
9.75
4.84
0.37
-3.77
-7.96
-12.76
-18.68
-26.04
-34.68
-43.80
-52.03
-57.73
-59.45
-56.57
-49.40
-39.14
-27.33
-15.31
-3.89
6.69
16.46
25.43
33.43
40.23
45.67
49.75
52.61
54.46
55.41
55.48
54.70
53.12
50.93
48.41
45.89
43.61
41.62
39.76
37.67
34.92
31.22
26.56
21.18
15.59
10.25
5.47
1.19
-2.93
-7.42
-12.88
-19.70
-27.88
-36.89
-45.66
-52.70
-56.53
-56.07
-51.06
-42.11
-30.56
-18.01
-5.85
5.05
14.39
22.28
28.94
34.52
38.95
42.13
43.94
44.42
43.81
42.53
41.01
39.54
38.25
37.08
35.85
34.44
32.81
30.96
28.88
26.40
23.29
19.32
14.46
8.88
3.00
-2.74
-8.05
-12.86
-17.35
-21.87
-26.74
-32.22
-38.31
-44.66
-50.50
-54.79
-56.38
-54.49
-48.97
-40.40
-29.94
-18.90
-8.34
1.16
9.47
16.70
22.93
28.20
32.43
35.54
37.52
38.46
38.48
37.74
36.38
34.53
32.30
29.79
27.08
24.30
21.58
19.04
16.66
14.38
12.00
9.34
6.33
3.10
-0.12
-3.11
-5.75
-8.14
-10.54
-13.34
-16.93
-21.60
-27.38
-33.93
-40.45
-45.84
-48.94
-48.91
-45.53
-39.29
-31.18
-22.37
-13.83
-6.17
0.37
5.73
9.90
12.80
14.35
14.59
13.71
12.09
10.16
8.23
6.36
4.45
2.27
-0.33
-3.37
-6.73
-10.23
-13.74
-17.24
-20.70
-24.04
-27.07
-29.53
-31.22
-32.10
-32.27
-31.86
-30.92
-29.49
-27.67
-25.78
-24.34
-23.88
-24.57
-26.08
-27.47
-27.57
-25.33
-20.31
-12.82
-3.83
5.40
13.78
20.62
25.72
29.25
31.50
32.74
33.13
32.82
32.00
30.99
30.07
29.40
28.93
28.43
27.61
26.26
24.36
22.07
19.62
17.27
15.22
13.52
12.06
10.57
8.76
6.44
3.63
0.55
-2.56
-5.55
-8.61
-12.08
-16.41
-21.90
-28.54
-36.03
-43.80
-50.99
-56.66
-59.87
-59.96
-56.74
-50.69
-42.77
-34.21
-26.04
-18.87
-12.80
-7.61
-2.95
1.36
5.38
9.02
12.26
15.16
17.91
20.69
23.61
26.57
29.28
31.43
32.82
33.47
33.67
33.79
34.06
34.42
34.54
33.93
32.22
29.27
25.15
20.09
14.36
8.22
1.97
-4.08
-9.66
-14.64
-19.01
-22.83
-25.99
-28.18
-28.90
-27.70
-24.34
-18.95
-11.99
-4.07
4.21
12.42
20.32
27.82
34.84
41.19
46.53
50.32
52.04
51.39
48.47
43.89
38.46
32.91
27.62
22.56
17.46
12.19
6.86
1.83
-2.54
-6.18
-9.44
-12.94
-17.22
-22.51
-28.55
-34.76
-40.57
-45.63
-49.94
-53.79
-57.50
-61.25
-65.10
-69.08
-73.29
-77.87
-82.78
-87.59
-91.44
-93.17
-91.79
-86.86
-78.71
-68.27
-56.84
-45.60
-35.33
-26.42
-18.89
-12.57
-7.25
-2.68
1.36
5.01
8.33
11.19
13.36
14.60
14.77
13.99
12.60
11.09
9.90
9.34
9.42
9.83
10.07
9.56
7.86
4.85
0.84
-3.54
-7.57
-10.73
-12.99
-14.82
-17.02
-20.36
-25.21
-31.25
-37.49
-42.42
-44.43
-42.25
-35.33
-24.06
-9.75
5.71
20.16
31.75
39.39
42.95
43.15
41.21
38.37
35.52
33.05
31.02
29.30
27.92
27.02
26.81
27.37
28.62
30.22
31.81
33.09
33.90
34.19
33.96
33.05
31.18
27.95
22.96
16.19
8.04
-0.66
-8.94
-16.13
-22.08
-27.25
-32.53
-38.80
-46.63
-55.94
-65.94
-75.20
-82.01
-84.78
-82.51
-75.13
-63.49
-49.14
-33.80
-18.95
-5.50
6.14
15.93
23.99
30.43
35.35
38.90
41.23
42.53
43.02
42.89
42.31
41.36
40.04
38.32
36.17
33.61
30.78
27.86
25.08
22.60
20.47
18.67
17.04
15.40
13.61
11.57
9.27
6.71
3.78
0.14
-4.73
-11.32
-19.77
-29.52
-39.20
-46.92
-50.81
-49.70
-43.43
-32.95
-19.82
-5.80
7.78
20.08
30.71
39.55
46.54
51.66
54.94
56.53
56.71
55.87
54.39
52.57
50.65
48.67
46.62
44.47
42.33
40.40
38.93
37.99
37.37
36.51
34.70
31.43
26.57
20.50
13.92
7.54
1.81
-3.29
-8.15
-13.51
-20.05
-28.21
-37.87
-48.18
-57.64
-64.41
-66.84
-64.01
-56.07
-44.16
-30.06
-15.59
-2.13
9.58
19.33
27.22
33.41
37.99
41.05
42.76
43.39
43.25
42.61
41.60
40.28
38.70
36.90
35.03
33.30
31.89
30.85
30.04
29.14
27.68
25.24
21.61
16.91
11.56
6.09
0.92
-3.82
-8.31
-12.97
-18.23
-24.38
-31.41
-38.96
-46.25
-52.16
-55.42
-54.95
-50.20
-41.41
-29.60
-16.28
-3.10
8.63
18.19
25.49
30.97
35.31
39.16
42.88
46.44
49.50
51.69
52.81
52.99
52.60
52.14
52.11
53.11
56.05
62.04
71.96
85.70
101.58
116.52
127.11
130.97
127.84
119.60
109.14
98.78
89.25
79.61
68.25
54.12
37.40
19.38
1.68
-14.53
-28.81
-41.26
-51.96
-60.73
-67.12
-70.67
-71.32
-69.48
-66.03
-61.94
-58.03
-54.73
-52.02
-49.59
-47.06
-44.27
-41.36
-38.70
-36.67
-35.45
-34.88
-34.55
-33.94
-32.63
-30.46
-27.54
-24.16
-20.73
-17.60
-15.09
-13.39
-12.47
-12.14
-12.05
-11.88
-11.48
-10.97
-10.67
-10.99
-12.30
-14.74
-18.31
-22.79
-27.84
-32.88
-37.13
-39.73
-39.92
-37.37
-32.29
-25.38
-17.62
-9.89
-2.88
2.94
7.28
9.96
10.99
10.72
9.86
9.35
9.98
11.99
14.89
17.61
18.95
18.28
15.89
13.12
11.78
13.39
18.38
25.82
33.64
39.51
41.74
40.11
35.93
31.50
29.15
30.15
34.19
39.48
43.61
44.44
41.07
34.07
25.22
17.25
13.17
15.64
26.04
43.38
63.46
79.27
83.04
69.55
39.12
-1.82
-43.11
-75.43
-94.55
-102.77
-106.73
-112.99
-124.16
-137.87
-148.86
-152.61
-147.87
-136.83
-123.05
-108.92
-94.50
-78.19
-58.64
-36.45
-14.35
3.97
15.39
18.86
15.71
8.84
1.54
-3.75
-6.10
-6.10
-5.34
-5.56
-7.96
-12.78
-19.42
-26.77
-33.67
-39.22
-42.80
-44.10
-43.05
-39.95
-35.53
-30.98
-27.62
-26.45
-27.83
-31.30
-35.91
-40.63
-44.76
-47.94
-50.07
-51.13
-51.23
-50.64
-49.79
-48.90
-47.65
-45.04
-39.81
-31.19
-19.52
-6.32
6.33
16.68
24.12
29.15
32.96
36.73
41.10
45.87
50.15
52.46
51.29
45.53
35.08
20.95
4.96
-10.95
-25.40
-37.74
-47.84
-55.40
-59.68
-59.77
-55.26
-46.82
-36.32
-26.11
-18.14
-13.39
-11.90
-13.20
-16.67
-21.60
-26.88
-30.91
-31.77
-27.85
-18.62
-4.98
10.97
26.67
39.83
48.95
53.41
53.19
48.67
40.50
29.62
17.21
4.63
-6.96
-16.71
-24.28
-29.71
-33.33
-35.70
-37.41
-39.10
-41.35
-44.65
-49.37
-55.74
-63.71
-72.76
-81.78
-89.06
-92.61
-90.70
-82.43
-68.02
-48.85
-27.05
-4.79
16.14
34.76
50.86
64.62
76.39
86.28
94.18
99.85
103.14
104.08
102.80
99.38
93.57
84.99
73.46
59.47
44.42
30.32
19.08
11.74
7.98
6.34
4.89
2.01
-3.03
-10.02
-18.13
-26.38
-34.04
-40.77
-46.72
-52.44
-58.76
-66.58
-76.55
-88.68
-102.05
-114.82
-124.61
-129.16
-127.05
-118.16
-103.66
-85.54
-65.93
-46.50
-28.30
-11.89
2.31
13.81
22.19
27.39
29.97
31.04
31.80
32.89
33.99
33.91
31.27
25.37
17.01
8.44
2.52
1.58
6.11
14.59
23.94
31.02
34.01
33.27
31.16
31.42
38.19
55.15
84.39
125.25
173.32
220.21
254.99
267.34
251.45
208.98
149.29
86.51
34.52
2.09
-9.45
-5.22
6.64
18.98
27.99
33.32
36.40
38.64
40.25
40.57
39.04
36.11
33.16
31.73
32.40
34.39
36.04
35.65
32.49
27.05
20.49
13.71
6.80
-1.12
-11.28
-24.49
-40.45
-57.52
-72.99
-83.94
-88.12
-84.75
-74.88
-60.93
-46.04
-33.03
-23.75
-18.80
-17.93
-20.45
-25.56
-32.43
-39.98
-46.99
-52.37
-55.58
-56.61
-55.52
-51.67
-43.46
-28.91
-6.78
22.23
55.11
87.19
113.55
130.35
135.56
129.25
113.37
91.65
69.17
51.59
43.64
47.56
61.96
82.06
101.39
114.22
117.66
112.27
101.17
88.18
76.14
66.15
57.87
50.67
44.64
41.09
42.10
49.12
61.52
75.90
86.74
88.42
77.63
55.13
25.67
-3.70
-26.36
-38.35
-39.46
-32.55
-22.05
-12.18
-5.92
-4.60
-7.90
-14.17
-20.90
-25.56
-26.65
-24.58
-21.83
-22.11
-28.85
-43.49
-64.63
-88.37
-109.73
-124.37
-129.86
-126.21
-115.44
-100.51
-84.39
-69.21
-56.01
-44.83
-35.07
-25.92
-16.68
-6.84
4.04
16.45
30.92
47.67
66.28
85.29
102.19
114.15
118.84
115.38
104.81
89.80
73.75
59.59
48.65
40.28
32.10
21.11
4.95
-17.01
-43.19
-70.38
-94.62
-112.53
-122.14
-123.37
-117.88
-108.35
-97.44
-86.66
-75.90
-63.57
-47.75
-27.52
-3.71
21.35
45.13
66.27
84.94
102.09
117.82
130.10
135.13
129.06
110.31
80.79
45.33
9.69
-21.56
-46.19
-64.01
-75.88
-82.90
-86.51
-88.89
-93.14
-102.38
-118.28
-139.78
-163.04
-182.65
-193.53
-192.49
-178.80
-154.01
-121.26
-84.91
-49.99
-21.45
-2.98
4.17
1.72
-6.31
-15.18
-21.14
-22.38
-18.80
-11.14
-0.13
13.60
29.13
44.81
58.41
67.83
72.07
71.63
68.25
63.86
59.59
55.17
49.15
39.55
24.76
4.35
-20.65
-47.77
-73.58
-94.45
-107.43
-111.03
-105.53
-92.66
-74.87
-54.40
-32.77
-10.74
11.23
32.43
51.66
67.38
78.12
82.81
80.90
72.34
57.76
38.83
18.50
0.84
-9.81
-10.14
0.87
21.48
47.65
74.36
97.03
112.43
119.04
116.85
106.98
91.38
72.49
52.93
34.94
19.94
8.34
-0.21
-6.47
-11.19
-14.99
-18.43
-22.19
-27.16
-34.24
-44.01
-56.33
-70.10
-83.36
-93.67
-98.75
-97.17
-88.92
-75.43
-59.11
-42.69
-28.42
-17.66
-10.87
-8.03
-8.90
-13.22
-20.63
-30.43
-41.48
-52.40
-61.90
-69.08
-73.71
-76.26
-77.65
-78.95
-80.99
-84.19
-88.48
-93.45
-98.60
-103.55
-108.22
-112.79
-117.82
-124.24
-133.07
-144.88
-159.08
-173.30
-183.49
-184.84
-173.25
-146.64
-105.51
-52.82
6.85
68.15
125.72
174.87
212.18
236.17
247.52
248.78
243.32
234.15
223.14
210.99
197.88
184.21
170.73
158.23
147.01
136.65
126.30
115.26
103.48
91.54
80.29
70.43
62.08
54.94
48.49
42.27
36.12
30.05
24.18
18.57
13.14
7.73
2.12
-3.83
-10.15
-16.77
-23.62
-30.71
-38.20
-46.26
-54.86
-63.57
-71.39
-76.98
-78.96
-76.41
-69.23
-58.18
-44.71
-30.47
-16.91
-5.03
4.77
12.46
18.23
22.35
25.05
26.60
27.26
27.31
26.97
26.38
25.56
24.51
23.21
21.76
20.27
18.85
17.56
16.32
14.98
13.28
11.02
8.00
4.19
-0.33
-5.35
-10.60
-15.90
-21.19
-26.68
-32.72
-39.69
-47.69
-56.34
-64.58
-70.88
-73.57
-71.39
-64.06
-52.38
-38.07
-23.11
-9.16
2.92
13.08
21.65
29.02
35.29
40.30
43.83
45.88
46.66
46.52
45.83
44.80
43.49
41.95
40.19
38.32
36.44
34.60
32.74
30.69
28.20
25.03
21.04
16.20
10.70
4.88
-0.91
-6.42
-11.62
-16.70
-22.11
-28.37
-35.91
-44.74
-54.33
-63.40
-70.25
-73.16
-71.04
-63.84
-52.63
-39.26
-25.70
-13.42
-3.10
5.31
12.20
17.94
22.67
26.37
28.97
30.50
31.12
31.01
30.34
29.19
27.53
25.38
22.83
20.23
18.10
17.02
17.42
19.37
22.57
26.58
31.19
36.40
42.21
47.92
51.81
51.29
43.95
28.73
6.86
-18.23
-41.86
-59.62
-68.52
-67.52
-57.26
-39.51
-16.50
9.46
36.17
61.66
84.37
103.16
117.39
126.82
131.48
131.56
127.30
118.93
106.74
91.23
73.15
53.57
33.47
13.29
-7.40
-29.74
-54.83
-82.63
-111.39
-137.88
-158.59
-171.38
-176.93
-178.95
-182.87
-193.34
-211.60
-234.01
-252.81
-258.65
-243.95
-205.78
-147.16
-76.51
-5.37
54.69
95.21
113.09
111.00
96.24
78.00
64.31
59.66
64.33
75.36
88.53
100.23
108.33
111.79
110.22
103.50
91.82
75.96
57.30
37.42
17.69
-0.87
-17.62
-32.03
-43.54
-51.59
-55.68
-55.43
-50.55
-40.97
-26.97
-9.53
9.55
27.81
42.69
52.08
54.81
50.70
40.14
23.90
2.97
-20.85
-44.55
-63.85
-73.84
-70.60
-52.88
-23.17
12.47
46.21
70.96
82.66
81.41
70.94
56.78
44.03
35.77
32.40
32.17
32.26
29.94
23.35
11.82
-4.19
-23.38
-43.91
-63.66
-80.62
-93.13
-100.20
-101.63
-98.00
-90.54
-80.92
-70.98
-62.55
-57.17
-55.79
-58.57
-64.76
-72.92
-81.27
-88.12
-92.09
-92.10
-87.09
-75.99
-58.04
-33.28
-3.12
29.64
61.39
88.76
109.46
122.78
129.34
130.45
127.40
121.07
112.00
100.66
87.79
74.49
62.01
51.40
43.16
37.25
33.26
30.74
29.46
29.37
30.33
31.87
33.12
33.11
31.13
27.06
21.29
14.38
6.48
-2.79
-14.33
-29.10
-47.55
-69.31
-93.03
-116.54
-137.24
-152.63
-160.93
-161.59
-155.50
-144.78
-132.16
-120.13
-110.02
-101.55
-92.84
-81.18
-64.13
-40.70
-11.92
19.30
49.08
73.85
91.32
100.89
103.44
100.76
95.07
88.63
83.65
82.14
85.55
94.31
107.57
123.19
138.22
149.54
154.51
151.50
140.12
121.25
96.83
69.51
42.08
16.99
-4.13
-20.54
-32.24
-39.69
-43.47
-44.16
-42.37
-38.77
-34.12
-29.15
-24.39
-19.98
-15.74
-11.32
-6.45
-1.16
4.18
8.90
12.21
13.46
12.39
9.22
4.76
0.12
-3.62
-5.77
-6.26
-5.65
-4.73
-4.22
-4.35
-4.90
-5.43
-5.71
-5.95
-6.75
-8.81
-12.51
-17.79
-24.23
-31.42
-39.14
-47.32
-55.75
-63.68
-69.77
-72.41
-70.35
-63.28
-52.03
-38.25
-23.88
-10.44
1.23
11.02
19.16
25.92
31.36
35.35
37.83
39.07
39.68
40.40
41.83
44.12
46.87
49.38
50.98
51.37
50.64
49.13
47.18
44.85
41.93
38.09
33.14
27.16
20.46
13.50
6.66
0.09
-6.38
-13.11
-20.54
-28.95
-38.25
-47.78
-56.40
-62.63
-65.11
-62.98
-56.26
-45.85
-33.28
-20.22
-8.00
2.67
11.69
19.26
25.58
30.66
34.36
36.56
37.32
36.96
35.96
34.73
33.45
32.05
30.31
28.09
25.47
22.66
19.95
17.44
15.00
12.31
9.04
5.00
0.23
-5.00
-10.37
-15.52
-20.26
-24.57
-28.67
-32.97
-37.98
-44.09
-51.35
-59.28
-66.82
-72.56
-75.12
-73.56
-67.79
-58.66
-47.69
-36.60
-26.63
-18.14
-10.50
-2.50
7.07
18.74
32.07
45.61
57.33
65.10
67.33
63.31
53.48
39.43
23.54
8.41
-3.63
-11.11
-13.52
-11.29
-5.65
1.55
8.09
11.74
10.86
5.02
-4.71
-15.92
-25.75
-31.96
-33.79
-32.12
-28.93
-26.41
-26.06
-28.22
-32.14
-36.25
-38.55
-37.20
-30.79
-18.83
-1.84
18.60
40.29
60.90
78.43
91.53
99.38
101.61
98.05
88.83
74.44
55.84
34.51
12.20
-9.28
-28.38
-43.99
-55.40
-62.29
-64.58
-62.41
-56.11
-46.32
-34.01
-20.42
-6.89
5.42
15.75
23.83
29.83
34.18
37.24
39.24
40.04
39.38
37.03
33.01
27.74
21.97
16.57
12.34
9.72
8.81
9.27
10.39
11.21
10.70
8.25
4.01
-0.91
-4.83
-6.19
-4.38
-0.21
4.44
7.40
7.30
4.16
-0.74
-5.63
-9.10
-10.73
-10.99
-10.73
-10.54
-10.53
-10.36
-9.49
-7.42
-3.81
1.54
8.58
16.91
25.63
33.24
38.01
38.44
33.85
24.77
12.90
0.61
-9.77
-16.67
-19.83
-20.42
-20.71
-23.35
-30.49
-43.06
-60.35
-80.10
-99.05
-113.70
-121.18
-119.87
-109.74
-92.28
-70.03
-46.00
-22.96
-2.95
12.88
24.21
31.30
34.72
35.38
34.53
33.77
34.67
38.21
44.30
51.47
57.38
59.48
56.15
47.29
34.38
19.89
6.36
-4.45
-12.02
-16.88
-20.18
-23.07
-26.30
-30.01
-33.86
-37.27
-39.70
-40.87
-40.69
-39.35
-37.16
-34.60
-32.34
-31.12
-31.62
-33.97
-37.69
-41.53
-44.00
-43.84
-40.54
-34.50
-26.75
-18.51
-10.74
-3.93
1.87
6.75
10.89
14.37
17.23
19.47
21.15
22.34
23.12
23.56
23.65
23.27
22.26
20.52
18.20
15.78
13.84
12.83
12.75
13.03
12.74
11.00
7.33
1.85
-4.77
-11.62
-17.96
-23.43
-28.20
-32.85
-38.13
-44.74
-53.09
-63.12
-74.19
-85.00
-93.77
-98.57
-97.91
-91.38
-80.01
-66.12
-52.61
-41.92
-35.08
-31.38
-28.70
-24.50
-16.81
-5.00
10.15
26.91
43.26
57.53
68.81
76.89
82.08
84.87
85.74
85.04
83.17
80.66
78.32
77.04
77.39
79.33
82.00
83.93
83.56
79.80
72.37
61.67
48.28
32.47
14.03
-7.35
-31.46
-56.99
-81.56
-102.47
-117.64
-126.38
-129.52
-128.68
-125.29
-119.94
-112.27
-101.58
-87.68
-71.38
-54.39
-38.63
-25.46
-15.17
-7.03
0.17
7.46
15.16
22.87
29.77
35.15
38.79
41.02
42.51
43.94
45.64
47.63
49.71
51.68
53.52
55.21
56.63
57.35
56.66
53.75
48.03
39.47
28.62
16.52
4.42
-6.63
-16.01
-23.69
-30.15
-36.23
-42.86
-50.75
-60.18
-70.72
-81.22
-89.89
-94.73
-94.09
-87.22
-74.58
-57.72
-38.80
-19.91
-2.51
12.68
25.58
36.31
45.02
51.71
56.46
59.48
61.18
62.03
62.38
62.37
61.99
61.20
60.00
58.48
56.78
55.03
53.28
51.51
49.65
47.52
44.84
41.30
36.64
30.82
24.04
16.78
9.58
2.86
-3.31
-9.22
-15.47
-22.72
-31.36
-41.26
-51.63
-60.97
-67.44
-69.37
-65.77
-56.83
-43.80
-28.65
-13.37
0.62
12.73
23.04
31.90
39.52
45.86
50.66
53.79
55.29
55.53
54.99
54.09
53.06
51.94
50.62
49.10
47.46
45.96
44.86
44.21
43.75
42.87
40.87
37.22
31.81
25.03
17.57
10.18
3.39
-2.61
-7.93
-12.89
-17.91
-23.51
-30.17
-38.17
-47.23
-56.37
-63.95
-68.04
-67.16
-60.86
-49.96
-36.29
-21.98
-8.78
2.44
11.70
19.59
26.67
33.21
39.06
43.87
47.36
49.53
50.63
51.06
51.17
51.07
50.65
49.76
48.30
46.41
44.38
42.46
40.75
39.07
37.02
34.20
30.34
25.42
19.69
13.58
7.57
2.06
-2.72
-6.77
-10.37
-14.00
-18.27
-23.66
-30.29
-37.76
-45.07
-50.84
-53.69
-52.72
-47.82
-39.75
-29.81
-19.43
-9.66
-0.96
6.72
13.67
20.06
25.84
30.70
34.34
36.67
37.86
38.29
38.31
38.11
37.68
36.86
35.53
33.73
31.71
29.80
28.28
27.24
26.49
25.63
24.20
21.82
18.38
14.02
9.12
4.13
-0.60
-4.91
-8.86
-12.72
-16.77
-21.27
-26.35
-32.00
-38.01
-43.88
-48.88
-52.12
-52.71
-50.09
-44.36
-36.23
-26.95
-17.81
-9.87
-3.53
1.30
5.07
8.17
10.75
12.68
13.76
13.95
13.54
13.04
12.88
13.22
13.79
14.04
13.45
11.86
9.55
7.20
5.47
4.73
4.90
5.43
5.53
4.43
1.65
-2.86
-8.67
-15.02
-20.97
-25.72
-28.77
-30.10
-30.13
-29.64
-29.49
-30.37
-32.46
-35.37
-38.15
-39.67
-38.97
-35.65
-29.99
-22.75
-14.85
-6.97
0.62
7.96
15.21
22.39
29.25
35.29
39.97
42.95
44.18
43.95
42.73
41.05
39.21
37.32
35.29
33.01
30.46
27.76
25.12
22.70
20.52
18.38
15.96
12.92
9.06
4.43
-0.69
-5.88
-10.71
-14.96
-18.62
-21.90
-25.17
-28.86
-33.36
-38.86
-45.31
-52.28
-58.96
-64.18
-66.80
-66.01
-61.66
-54.36
-45.29
-35.80
-26.95
-19.26
-12.73
-7.03
-1.80
3.10
7.59
11.46
14.54
16.77
18.25
19.17
19.73
20.12
20.38
20.50
20.38
19.86
18.91
17.59
16.08
14.57
13.16
11.70
9.90
7.47
4.25
0.32
-4.00
-8.35
-12.43
-16.11
-19.39
-22.38
-25.27
-28.38
-32.15
-37.00
-43.14
-50.31
-57.61
-63.71
-67.11
-66.72
-62.23
-54.24
-44.11
-33.35
-23.19
-14.25
-6.51
0.40
6.86
12.99
18.57
23.27
26.75
28.89
29.83
29.91
29.58
29.21
29.06
29.14
29.28
29.19
28.63
27.49
25.82
23.78
21.49
18.96
16.13
12.88
9.20
5.15
0.83
-3.68
-8.37
-13.23
-18.23
-23.22
-28.02
-32.58
-36.99
-41.62
-46.88
-53.03
-59.83
-66.45
-71.57
-73.83
-72.19
-66.45
-57.25
-45.87
-33.82
-22.30
-12.02
-3.14
4.48
11.09
16.80
21.58
25.37
28.17
30.08
31.38
32.31
33.08
33.75
34.24
34.45
34.32
33.89
33.31
32.74
32.21
31.62
30.74
29.31
27.13
24.05
20.08
15.33
10.06
4.58
-0.78
-5.84
-10.62
-15.40
-20.56
-26.49
-33.43
-41.41
-50.16
-59.05
-66.99
-72.61
-74.49
-71.72
-64.30
-53.25
-40.30
-27.35
-15.77
-6.16
1.64
8.15
13.95
19.34
24.31
28.59
31.78
33.57
33.81
32.76
30.96
29.20
28.14
28.01
28.55
28.97
28.44
26.39
22.85
18.46
14.36
11.96
12.71
17.89
28.19
43.35
61.71
80.42
96.01
105.44
107.11
101.30
89.89
75.36
59.78
44.04
28.05
11.38
-5.98
-23.10
-38.40
-50.19
-57.43
-59.97
-58.36
-53.31
-45.16
-33.99
-20.04
-4.12
12.17
26.75
37.85
44.49
46.78
45.54
41.97
37.21
32.29
28.00
24.98
23.45
23.22
23.72
24.31
24.59
24.61
24.66
24.93
25.36
25.53
24.86
22.64
18.14
10.69
-0.07
-13.88
-29.65
-45.68
-60.17
-71.90
-80.67
-87.19
-92.63
-98.01
-103.70
-109.41
-114.29
-117.29
-117.35
-113.65
-105.79
-93.92
-78.87
-61.99
-44.83
-28.79
-14.81
-3.35
5.54
12.12
16.92
20.84
25.01
30.63
38.52
48.67
60.12
71.21
80.20
85.93
88.22
87.69
85.33
81.78
77.07
70.72
62.17
51.23
38.37
24.52
10.87
-1.51
-11.87
-19.88
-25.72
-29.96
-33.56
-37.62
-43.10
-50.48
-59.51
-69.19
-77.95
-83.98
-85.82
-82.76
-75.04
-63.80
-50.73
-37.51
-25.42
-15.12
-6.63
0.53
7.28
15.05
25.59
40.64
61.12
86.33
113.66
138.93
157.63
166.43
164.34
152.95
135.60
116.13
97.45
80.93
66.48
53.26
40.47
27.84
15.68
4.58
-4.87
-12.49
-18.49
-23.37
-27.79
-32.28
-37.23
-42.78
-48.84
-55.09
-61.07
-66.16
-69.71
-71.16
-70.22
-66.99
-62.06
-56.37
-51.01
-46.89
-44.47
-43.55
-43.42
-43.11
-41.77
-39.05
-35.13
-30.62
-26.18
-22.21
-18.77
-15.70
-12.81
-10.03
-7.45
-5.21
-3.34
-1.85
-0.77
-0.28
-0.74
-2.41
-5.35
-9.17
-13.19
-16.72
-19.39
-21.44
-23.66
-27.06
-32.46
-40.11
-49.39
-58.94
-66.97
-71.67
-71.74
-66.78
-57.39
-45.02
-31.54
-18.69
-7.55
1.65
9.36
16.37
23.27
30.21
36.91
42.78
47.31
50.21
51.48
51.50
50.96
50.91
52.46
56.48
63.11
71.48
79.78
85.81
87.61
84.20
75.77
63.47
48.91
33.65
18.82
5.04
-7.53
-19.04
-29.87
-40.47
-51.08
-61.65
-71.62
-80.08
-85.95
-88.38
-86.87
-81.55
-73.04
-62.35
-50.67
-39.15
-28.60
-19.33
-11.13
-3.43
4.41
12.73
21.39
29.73
36.84
41.88
44.36
44.27
42.07
38.48
34.24
29.89
25.71
21.72
17.80
13.80
9.64
5.31
0.93
-3.31
-7.12
-10.12
-11.97
-12.56
-12.13
-11.29
-10.76
-10.95
-11.53
-11.27
-8.37
-1.19
10.96
27.33
45.88
64.00
79.40
90.78
97.95
101.47
102.06
100.30
96.68
91.84
86.79
82.71
80.40
79.81
79.80
78.56
74.31
66.08
53.99
39.07
22.70
6.14
-9.78
-24.46
-37.31
-47.70
-55.07
-59.29
-60.78
-60.43
-59.31
-58.39
-58.37
-59.73
-62.65
-66.87
-71.48
-74.88
-75.24
-71.15
-62.35
-49.95
-36.06
-22.94
-12.29
-4.82
-0.43
1.33
0.80
-1.85
-6.47
-12.59
-19.32
-25.52
-30.15
-32.64
-33.06
-31.96
-30.04
-27.88
-25.72
-23.59
-21.47
-19.47
-17.82
-16.73
-16.24
-16.16
-16.22
-16.18
-16.09
-16.22
-17.02
-18.90
-22.01
-26.11
-30.48
-33.99
-35.31
-33.38
-27.76
-18.99
-8.40
2.36
11.86
19.41
25.07
29.33
32.63
35.02
36.25
35.96
34.11
31.01
27.24
23.36
19.74
16.48
13.52
10.80
8.34
6.19
4.41
2.95
1.63
0.18
-1.65
-4.02
-6.97
-10.40
-14.19
-18.26
-22.61
-27.38
-32.70
-38.55
-44.60
-50.16
-54.26
-55.83
-54.05
-48.67
-40.08
-29.37
-17.98
-7.28
1.81
8.95
14.30
18.28
21.25
23.40
24.78
25.40
25.32
24.67
23.61
22.31
20.85
19.34
17.89
16.54
15.25
13.89
12.33
10.52
8.44
6.18
3.77
1.17
-1.75
-5.04
-8.69
-12.58
-16.66
-21.00
-25.73
-30.89
-36.09
-40.46
-42.82
-42.09
-37.76
-30.17
-20.40
-9.94
-0.12
8.20
14.79
19.83
23.64
26.47
28.39
29.40
29.53
28.92
27.80
26.41
24.95
23.51
22.12
20.82
19.66
18.67
17.80
16.93
15.83
14.22
11.89
8.80
5.08
1.05
-2.97
-6.75
-10.35
-14.11
-18.53
-24.05
-30.70
-37.94
-44.69
-49.53
-51.20
-48.99
-42.99
-34.07
-23.58
-12.95
-3.31
4.66
10.80
15.25
18.31
20.25
21.31
21.64
21.38
20.60
19.38
17.85
16.14
14.45
12.98
11.86
11.06
10.44
9.71
8.58
6.86
4.47
1.49
-1.92
-5.61
-9.39
-13.13
-16.76
-20.35
-24.10
-28.37
-33.43
-39.21
-45.12
-49.99
-52.43
-51.25
-45.99
-37.09
-25.81
-13.84
-2.70
6.62
13.80
19.06
22.87
25.62
27.50
28.53
28.64
27.92
26.58
24.96
23.35
21.93
20.72
19.67
18.77
18.04
17.46
16.92
16.11
14.73
12.53
9.48
5.79
1.75
-2.40
-6.60
-10.97
-15.85
-21.55
-28.22
-35.61
-42.89
-48.78
-51.81
-50.85
-45.51
-36.35
-24.67
-12.09
-0.04
10.55
19.25
26.04
31.10
34.73
37.23
38.92
40.01
40.57
40.54
39.86
38.58
36.91
35.17
33.67
32.60
31.93
31.45
30.85
29.69
27.61
24.40
20.09
14.98
9.57
4.40
-0.24
-4.35
-8.29
-12.69
-18.16
-25.01
-33.01
-41.27
-48.34
-52.55
-52.58
-47.88
-38.89
-27.00
-13.97
-1.41
9.60
18.62
25.71
31.15
35.18
37.99
39.75
40.68
41.02
40.98
40.61
39.86
38.58
36.77
34.58
32.37
30.49
29.16
28.35
27.77
26.94
25.35
22.57
18.38
12.81
6.13
-1.26
-8.89
-16.39
-23.58
-30.50
-37.42
-44.66
-52.38
-60.27
-67.50
-72.73
-74.55
-71.89
-64.56
-53.35
-39.78
-25.56
-12.09
-0.17
9.97
18.37
25.06
29.94
32.91
34.07
33.80
32.69
31.38
30.28
29.48
28.81
27.99
26.86
25.50
24.13
23.01
22.26
21.71
21.02
19.74
17.57
14.43
10.51
6.25
2.07
-1.69
-5.00
-8.21
-11.89
-16.69
-22.94
-30.46
-38.41
-45.46
-50.12
-51.16
-48.02
-40.92
-30.75
-18.82
-6.48
5.18
15.40
23.88
30.59
35.61
39.07
41.11
41.87
41.59
40.63
39.36
38.13
37.08
36.18
35.30
34.36
33.39
32.52
31.90
31.47
30.92
29.73
27.40
23.68
18.69
12.92
7.05
1.67
-2.92
-6.83
-10.52
-14.63
-19.80
-26.39
-34.26
-42.65
-50.23
-55.37
-56.62
-53.24
-45.43
-34.37
-21.74
-9.22
2.01
11.45
19.15
25.43
30.53
34.53
37.34
38.87
39.16
38.47
37.23
35.90
34.77
33.92
33.19
32.31
31.13
29.72
28.32
27.17
26.27
25.24
23.50
20.51
16.13
10.70
4.88
-0.64
-5.54
-9.91
-14.23
-19.02
-24.68
-31.35
-38.91
-46.90
-54.58
-60.82
-64.34
-64.02
-59.34
-50.67
-39.19
-26.53
-14.24
-3.38
5.68
13.05
19.08
24.04
28.01
30.92
32.74
33.60
33.74
33.51
33.18
32.81
32.24
31.23
29.62
27.51
25.26
23.30
21.90
20.94
19.91
18.12
14.98
10.37
4.56
-1.83
-8.13
-13.86
-18.85
-23.27
-27.48
-31.96
-37.20
-43.49
-50.74
-58.35
-65.18
-69.82
-70.96
-67.89
-60.69
-50.29
-38.10
-25.61
-13.99
-3.92
4.43
11.16
16.50
20.65
23.75
25.88
27.16
27.78
27.98
28.03
28.07
28.08
27.91
27.36
26.36
25.01
23.54
22.20
21.02
19.84
18.30
15.97
12.59
8.18
3.03
-2.38
-7.57
-12.24
-16.37
-20.20
-24.18
-28.80
-34.42
-41.09
-48.36
-55.28
-60.57
-62.91
-61.34
-55.64
-46.40
-34.90
-22.68
-11.14
-1.16
6.97
13.37
18.37
22.25
25.19
27.27
28.63
29.51
30.26
31.20
32.41
33.73
34.71
34.95
34.26
32.86
31.29
30.09
29.56
29.52
29.40
28.52
26.36
22.75
17.96
12.55
7.12
2.11
-2.38
-6.55
-10.84
-15.70
-21.47
-28.17
-35.36
-42.21
-47.60
-50.36
-49.60
-45.06
-37.19
-27.09
-16.18
-5.77
3.34
11.00
17.52
23.33
28.71
33.66
37.97
41.39
43.84
45.39
46.26
46.61
46.53
45.96
44.75
42.77
39.97
36.43
32.39
28.13
23.89
19.74
15.55
11.10
6.15
0.69
-5.10
-10.87
-16.24
-21.01
-25.23
-29.22
-33.38
-38.20
-43.98
-50.78
-58.22
-65.44
-71.19
-74.10
-73.13
-67.88
-58.87
-47.31
-34.83
-22.91
-12.52
-3.96
3.02
8.87
13.93
18.21
21.53
23.60
24.40
24.19
23.48
22.84
22.57
22.64
22.74
22.48
21.65
20.28
18.59
16.84
15.18
13.55
11.71
9.37
6.29
2.37
-2.27
-7.32
-12.41
-17.20
-21.48
-25.16
-28.27
-30.89
-33.15
-35.28
-37.52
-40.02
-42.63
-44.69
-45.15
-42.98
-37.67
-29.57
-19.87
-10.10
-1.50
5.41
10.89
15.59
20.08
24.53
28.74
32.25
34.73
36.07
36.38
35.88
34.77
33.22
31.37
29.39
27.49
25.95
25.03
24.90
25.51
26.56
27.61
28.26
28.34
27.98
27.49
27.17
27.08
27.06
26.72
25.62
23.21
18.87
11.88
1.73
-11.59
-27.16
-43.11
-57.03
-66.72
-70.93
-69.74
-64.43
-56.83
-48.76
-41.53
-35.83
-31.88
-29.58
-28.71
-28.91
-29.79
-30.88
-31.76
-32.07
-31.58
-30.22
-28.02
-25.16
-21.87
-18.45
-15.09
-11.90
-8.86
-5.96
-3.26
-1.01
0.40
0.62
-0.54
-2.91
-6.02
-9.23
-11.95
-13.94
-15.40
-16.94
-19.39
-23.38
-29.11
-36.13
-43.29
-49.04
-51.78
-50.33
-44.30
-34.22
-21.38
-7.41
6.19
18.47
29.17
38.52
46.88
54.44
61.02
66.20
69.62
71.26
71.56
71.33
71.50
72.90
75.96
80.55
85.94
90.77
93.38
92.22
86.37
75.95
62.10
46.53
30.87
16.18
2.82
-9.26
-20.06
-29.35
-36.71
-41.95
-45.51
-48.46
-52.29
-58.28
-66.88
-77.41
-88.18
-96.96
-101.68
-101.05
-94.84
-83.83
-69.46
-53.30
-36.73
-20.73
-5.95
7.25
18.70
28.39
36.53
43.44
49.41
54.62
59.07
62.68
65.42
67.39
68.78
69.81
70.55
70.89
70.59
69.42
67.26
64.24
60.66
56.90
53.33
50.17
47.40
44.67
41.33
36.58
29.69
20.27
8.36
-5.61
-20.94
-36.91
-52.73
-67.41
-79.67
-87.92
-90.69
-87.15
-77.50
-63.09
-45.99
-28.34
-11.77
2.91
15.47
26.03
34.59
41.03
45.17
47.02
46.99
45.76
44.13
42.70
41.70
40.96
40.09
38.75
36.81
34.33
31.53
28.51
25.13
21.05
15.88
9.38
1.70
-6.63
-14.88
-22.40
-28.81
-34.14
-38.70
-42.88
-47.03
-51.48
-56.56
-62.56
-69.55
-77.00
-83.75
-88.10
-88.45
-83.95
-74.91
-62.76
-49.55
-37.16
-26.80
-18.76
-12.68
-7.96
-4.21
-1.30
0.71
1.91
2.68
3.70
5.61
8.71
12.68
16.73
19.99
21.98
22.84
23.25
24.01
25.50
27.49
29.29
30.05
29.21
26.67
22.74
17.90
12.47
6.45
-0.38
-8.44
-18.05
-29.27
-41.73
-54.63
-66.68
-76.30
-81.91
-82.33
-77.14
-66.86
-52.86
-36.93
-20.87
-6.03
6.87
17.67
26.52
33.60
38.97
42.62
44.56
44.93
44.07
42.44
40.45
38.35
36.24
34.09
31.95
29.98
28.45
27.53
27.09
26.64
25.39
22.66
18.09
11.87
4.66
-2.68
-9.36
-14.96
-19.46
-23.23
-26.90
-31.19
-36.71
-43.70
-51.78
-59.84
-66.23
-69.18
-67.38
-60.47
-49.14
-34.94
-19.77
-5.28
7.44
17.98
26.38
32.92
37.82
41.25
43.30
44.13
43.95
43.04
41.63
39.86
37.71
35.21
32.43
29.61
27.05
24.96
23.28
21.63
19.45
16.16
11.52
5.65
-0.93
-7.53
-13.55
-18.70
-23.04
-27.01
-31.20
-36.18
-42.27
-49.28
-56.47
-62.59
-66.20
-66.08
-61.57
-52.93
-41.26
-28.16
-15.29
-3.86
5.55
13.05
19.10
24.21
28.68
32.50
35.48
37.34
37.92
37.24
35.55
33.24
30.74
28.41
26.44
24.84
23.41
21.85
19.88
17.33
14.17
10.51
6.58
2.59
-1.32
-5.06
-8.70
-12.47
-16.72
-21.91
-28.43
-36.33
-45.15
-53.81
-60.77
-64.43
-63.61
-57.97
-48.14
-35.51
-21.79
-8.53
3.26
13.07
20.86
26.80
31.13
34.10
35.88
36.65
36.54
35.68
34.19
32.21
29.94
27.67
25.65
24.12
23.15
22.62
22.22
21.49
20.00
17.45
13.77
9.16
4.00
-1.26
-6.30
-11.06
-15.75
-20.80
-26.64
-33.52
-41.17
-48.74
-54.89
-58.13
-57.29
-51.92
-42.56
-30.48
-17.39
-4.87
6.00
14.77
21.63
27.06
31.58
35.49
38.80
41.33
42.91
43.50
43.26
42.43
41.26
39.93
38.52
37.15
35.90
34.82
33.78
32.49
30.54
27.62
23.66
18.87
13.58
8.15
2.80
-2.38
-7.36
-12.23
-17.13
-22.35
-28.14
-34.49
-40.87
-46.22
-49.15
-48.50
-43.77
-35.38
-24.52
-12.79
-1.67
7.86
15.44
21.20
25.46
28.55
30.62
31.77
32.10
31.82
31.22
30.60
30.07
29.57
28.88
27.85
26.45
24.86
23.28
21.81
20.32
18.47
15.94
12.57
8.42
3.79
-0.96
-5.54
-9.78
-13.72
-17.58
-21.68
-26.38
-31.88
-38.00
-44.08
-48.98
-51.40
-50.37
-45.58
-37.54
-27.38
-16.48
-6.02
3.22
10.94
17.07
21.69
24.85
26.65
27.30
27.09
26.42
25.60
24.83
24.14
23.47
22.81
22.17
21.58
21.03
20.33
19.22
17.40
14.70
11.16
7.01
2.51
-2.11
-6.72
-11.26
-15.73
-20.15
-24.65
-29.47
-34.81
-40.60
-46.29
-50.86
-53.05
-51.82
-46.80
-38.49
-28.10
-17.17
-7.08
1.33
7.84
12.69
16.35
19.21
21.46
23.10
24.02
24.14
23.48
22.22
20.64
19.01
17.55
16.39
15.56
15.01
14.61
14.15
13.35
11.93
9.68
6.52
2.61
-1.74
-6.12
-10.18
-13.82
-17.20
-20.72
-24.86
-29.93
-35.87
-42.09
-47.61
-51.27
-52.07
-49.49
-43.70
-35.43
-25.85
-16.15
-7.30
0.20
6.23
10.95
14.67
17.60
19.89
21.59
22.69
23.18
23.07
22.42
21.36
20.10
18.87
17.94
17.48
17.48
17.72
17.81
17.32
15.93
13.56
10.34
6.64
2.90
-0.53
-3.44
-5.86
-8.02
-10.32
-13.19
-17.00
-21.83
-27.34
-32.67
-36.70
-38.25
-36.60
-31.62
-23.90
-14.45
-4.42
5.21
13.77
20.88
26.43
30.44
33.07
34.63
35.51
36.08
36.65
37.30
37.95
38.34
38.21
37.41
35.98
34.13
32.11
30.09
27.95
25.31
21.63
16.46
9.71
1.65
-7.10
-15.86
-24.15
-31.85
-39.23
-46.80
-55.10
-64.43
-74.63
-85.01
-94.43
-101.48
-104.89
-103.92
-98.61
-89.74
-78.62
-66.68
-55.11
-44.62
-35.50
-27.68
-20.98
-15.23
-10.37
-6.44
-3.49
-1.57
-0.58
-0.35
-0.67
-1.32
-2.10
-2.79
-3.16
-2.95
-1.95
-0.18
2.04
4.14
5.46
5.58
4.43
2.26
-0.43
-3.18
-5.69
-7.84
-9.65
-11.18
-12.58
-14.03
-15.80
-17.99
-20.47
-22.63
-23.52
-22.05
-17.55
-9.95
0.02
11.07
21.81
31.14
38.53
44.04
48.06
51.12
53.69
56.10
58.62
61.43
64.68
68.35
72.20
75.66
77.94
78.18
75.74
70.39
62.36
52.28
40.95
29.11
17.30
5.77
-5.40
-16.16
-26.32
-35.46
-43.06
-48.70
-52.29
-54.19
-55.09
-55.77
-56.78
-58.29
-60.14
-62.00
-63.49
-64.22
-63.70
-61.28
-56.35
-48.57
-38.22
-26.22
-14.01
-3.12
5.22
10.41
12.51
12.09
9.99
7.09
4.08
1.45
-0.46
-1.48
-1.57
-0.92
0.08
0.90
0.98
-0.01
-2.08
-4.86
-7.80
-10.38
-12.35
-13.69
-14.67
-15.61
-16.79
-18.41
-20.59
-23.31
-26.47
-29.86
-33.23
-36.41
-39.35
-42.16
-45.13
-48.65
-53.11
-58.72
-65.34
-72.21
-78.08
-81.30
-80.42
-74.62
-64.15
-50.22
-34.67
-19.29
-5.40
6.46
16.32
24.45
31.05
36.13
39.56
41.37
41.82
41.50
41.10
41.15
41.86
43.05
44.28
45.07
45.18
44.61
43.66
42.63
41.69
40.78
39.65
38.00
35.68
32.70
29.29
25.71
22.21
18.91
15.83
12.85
9.78
6.39
2.35
-2.66
-8.85
-16.12
-23.85
-30.92
-35.85
-37.26
-34.28
-26.98
-16.28
-3.73
9.04
20.78
30.82
39.05
45.63
50.71
54.33
56.44
57.07
56.46
55.14
53.80
53.02
53.09
53.88
54.97
55.81
56.03
55.50
54.37
52.90
51.23
49.31
46.90
43.71
39.55
34.45
28.70
22.76
17.06
11.87
7.24
2.99
-1.19
-5.58
-10.45
-15.95
-22.17
-29.05
-36.22
-42.95
-48.11
-50.45
-49.00
-43.41
-34.22
-22.69
-10.42
1.16
11.11
19.06
25.13
29.67
33.01
35.37
36.87
37.53
37.48
36.91
36.12
35.41
34.96
34.78
34.69
34.43
33.79
32.70
31.29
29.74
28.18
26.57
24.69
22.21
18.87
14.61
9.57
4.07
-1.46
-6.64
-11.22
-15.22
-18.80
-22.33
-26.22
-30.83
-36.35
-42.69
-49.35
-55.45
-59.87
-61.48
-59.54
-53.96
-45.37
-34.96
-24.04
-13.67
-4.39
3.70
10.68
16.60
21.30
24.60
26.47
27.24
27.52
27.91
28.80
30.16
31.64
32.79
33.34
33.28
32.87
32.36
31.88
31.34
30.46
28.87
26.32
22.74
18.38
13.68
9.18
5.30
2.22
-0.29
-2.71
-5.63
-9.53
-14.57
-20.55
-26.87
-32.61
-36.76
-38.42
-37.04
-32.59
-25.62
-17.06
-8.01
0.62
8.22
14.55
19.64
23.59
26.45
28.23
28.93
28.67
27.72
26.48
25.35
24.64
24.40
24.49
24.55
24.30
23.56
22.36
20.91
19.40
17.90
16.29
14.33
11.77
8.55
4.77
0.75
-3.15
-6.64
-9.59
-12.11
-14.48
-17.15
-20.61
-25.20
-30.89
-37.08
-42.67
-46.37
-47.15
-44.61
-39.21
-31.96
-24.08
-16.53
-9.83
-4.06
0.86
5.08
8.58
11.29
13.19
14.35
14.99
15.48
16.26
17.70
19.99
22.97
26.21
29.16
31.34
32.56
32.93
32.70
32.10
31.26
30.15
28.77
27.22
25.72
24.53
23.73
23.19
22.46
21.07
18.60
14.99
10.47
5.54
0.67
-3.75
-7.51
-10.47
-12.38
-12.96
-11.95
-9.32
-5.49
-1.20
2.72
5.70
7.64
8.98
10.38
12.40
15.14
18.16
20.61
21.51
20.17
16.34
10.41
3.18
-4.26
-10.89
-15.95
-19.07
-20.32
-20.06
-18.91
-17.48
-16.24
-15.39
-14.83
-14.20
-13.08
-11.26
-8.83
-6.29
-4.30
-3.55
-4.46
-6.96
-10.54
-14.22
-16.80
-17.25
-15.03
-10.45
-4.76
0.34
3.37
4.00
3.53
4.50
9.50
19.74
34.15
49.51
61.62
66.83
63.25
51.16
32.67
10.84
-11.22
-30.99
-47.04
-59.11
-67.84
-74.20
-78.94
-82.21
-83.59
-82.69
-79.55
-74.71
-68.90
-62.58
-55.94
-49.27
-43.41
-39.74
-39.52
-42.96
-48.73
-54.30
-57.15
-56.00
-51.39
-45.31
-39.95
-36.73
-35.84
-36.63
-38.28
-40.26
-42.28
-43.93
-44.48
-43.00
-38.81
-31.87
-22.89
-12.95
-2.99
6.56
15.64
24.31
32.30
39.03
43.89
46.61
47.49
47.15
46.06
44.18
40.93
35.59
27.82
17.98
7.12
-3.44
-12.61
-19.85
-25.24
-29.12
-31.87
-33.72
-34.79
-35.35
-35.92
-37.31
-40.33
-45.66
-53.41
-63.13
-73.62
-83.09
-89.59
-91.67
-88.90
-82.09
-72.73
-62.16
-50.88
-38.39
-23.78
-6.69
12.10
30.81
47.34
60.23
69.09
74.43
77.16
78.06
77.64
76.37
74.86
73.85
73.85
74.84
76.21
77.00
76.38
73.92
69.68
64.05
57.45
50.21
42.64
35.10
28.11
22.18
17.65
14.48
12.23
10.32
8.25
5.86
3.20
0.43
-2.48
-5.75
-9.64
-14.34
-19.74
-25.49
-31.14
-36.40
-41.21
-45.66
-49.84
-53.60
-56.66
-58.61
-59.22
-58.45
-56.41
-53.27
-49.02
-43.51
-36.50
-27.96
-18.18
-7.81
2.26
11.16
18.28
23.43
26.79
28.83
30.15
31.25
32.43
33.67
34.72
35.17
34.61
32.73
29.47
24.99
19.67
13.93
8.18
2.66
-2.49
-7.19
-11.38
-14.94
-17.79
-20.00
-21.75
-23.30
-24.88
-26.59
-28.36
-30.03
-31.45
-32.53
-33.28
-33.79
-34.22
-34.79
-35.66
-36.83
-38.01
-38.63
-37.97
-35.37
-30.51
-23.60
-15.34
-6.69
1.34
8.08
13.28
17.17
20.22
22.95
25.69
28.46
31.08
33.29
34.90
35.96
36.69
37.32
38.00
38.72
39.29
39.49
39.10
38.02
36.29
34.11
31.72
29.38
27.19
25.02
22.52
19.33
15.33
10.83
6.57
3.37
1.76
1.64
2.26
2.59
1.72
-0.75
-4.60
-9.20
-13.62
-16.77
-17.42
-14.34
-6.64
5.79
21.89
39.58
56.29
69.81
78.94
83.79
85.38
85.18
84.50
84.18
84.60
85.85
87.86
90.44
93.29
95.88
97.59
97.68
95.66
91.38
85.24
78.14
71.23
65.54
61.58
59.18
57.65
56.12
53.98
51.16
48.01
44.94
42.04
38.80
34.28
27.60
18.45
7.48
-3.92
-14.08
-21.81
-26.82
-29.88
-32.34
-35.60
-40.54
-47.28
-55.27
-63.61
-71.42
-77.92
-82.59
-84.98
-84.70
-81.49
-75.31
-66.51
-55.82
-44.25
-32.94
-23.09
-15.81
-12.00
-12.13
-15.95
-22.28
-29.23
-34.70
-37.08
-35.94
-32.10
-27.28
-23.31
-21.36
-21.61
-23.31
-25.36
-26.86
-27.47
-27.43
-27.24
-27.34
-27.96
-29.17
-31.07
-33.82
-37.59
-42.32
-47.56
-52.55
-56.44
-58.58
-58.77
-57.27
-54.70
-51.79
-49.33
-47.90
-47.74
-48.50
-49.20
-48.41
-44.80
-37.69
-27.45
-15.34
-3.01
8.14
17.49
25.07
31.27
36.25
39.72
41.06
39.78
35.93
30.29
24.09
18.54
14.29
11.20
8.54
5.41
1.15
-4.30
-10.38
-16.01
-19.86
-20.68
-17.64
-10.76
-1.05
9.59
18.82
24.52
25.28
20.73
11.50
-1.01
-14.88
-27.98
-38.25
-44.02
-44.35
-39.41
-30.54
-20.04
-10.66
-4.83
-3.99
-8.11
-15.66
-24.10
-30.64
-33.15
-30.77
-23.99
-14.33
-3.66
6.43
15.01
21.81
26.96
30.70
33.09
33.97
33.00
29.95
24.79
17.83
9.70
1.30
-6.50
-12.89
-17.37
-19.75
-20.21
-19.17
-17.21
-14.95
-12.92
-11.59
-11.35
-12.45
-14.94
-18.64
-23.07
-27.62
-31.79
-35.35
-38.37
-41.05
-43.59
-45.96
-48.05
-49.82
-51.54
-53.74
-56.94
-61.31
-66.34
-70.91
-73.67
-73.52
-70.04
-63.62
-55.14
-45.61
-35.80
-26.11
-16.68
-7.58
1.04
8.96
15.93
21.68
25.87
28.01
27.68
24.86
20.31
15.60
12.70
13.30
18.05
26.30
36.33
45.98
53.24
56.73
55.76
50.31
41.05
29.33
17.04
6.20
-1.64
-5.92
-7.28
-7.09
-6.91
-7.66
-9.38
-11.37
-12.69
-12.63
-11.01
-8.09
-4.38
-0.40
3.45
6.94
10.00
12.77
15.57
18.84
22.97
28.13
34.07
40.26
45.98
50.65
54.00
56.12
57.38
58.28
59.30
60.72
62.59
64.63
66.34
67.19
66.80
65.21
62.80
60.13
57.61
55.21
52.44
48.57
43.06
35.93
27.80
19.59
12.01
5.09
-1.95
-10.40
-21.35
-35.16
-51.14
-67.67
-82.72
-94.48
-101.71
-103.95
-101.36
-94.55
-84.35
-71.76
-57.93
-43.97
-30.65
-18.08
-5.63
7.61
22.12
37.16
50.76
60.42
64.30
62.07
54.98
44.95
33.53
21.28
8.05
-6.09
-20.14
-32.22
-40.54
-44.50
-45.23
-45.07
-46.33
-50.06
-55.68
-61.51
-65.84
-68.00
-68.61
-69.23
-71.48
-76.39
-83.95
-93.28
-102.98
-111.54
-117.52
-119.80
-117.60
-110.66
-99.35
-84.67
-68.03
-50.92
-34.58
-19.73
-6.68
4.59
14.22
22.31
28.89
33.99
37.69
40.13
41.58
42.32
42.63
42.65
42.45
41.98
41.28
40.46
39.68
38.99
38.21
36.89
34.41
30.29
24.52
17.65
10.67
4.61
0.18
-2.47
-3.81
-4.66
-5.96
-8.55
-12.90
-19.06
-26.46
-33.95
-40.00
-43.05
-42.07
-36.88
-28.25
-17.54
-6.25
4.51
14.14
22.51
29.66
35.62
40.30
43.66
45.76
46.89
47.45
47.91
48.54
49.45
50.54
51.56
52.27
52.55
52.44
52.11
51.73
51.41
51.04
50.34
48.96
46.60
43.15
38.77
33.86
28.88
24.23
20.11
16.49
13.18
9.87
6.23
1.99
-3.03
-8.74
-14.66
-19.86
-23.08
-23.13
-19.33
-11.88
-1.86
9.13
19.52
28.23
34.83
39.43
42.35
43.92
44.33
43.79
42.59
41.12
39.76
38.76
38.19
37.90
37.69
37.37
36.84
36.12
35.27
34.37
33.44
32.44
31.19
29.51
27.23
24.30
20.83
17.02
13.18
9.59
6.46
3.84
1.64
-0.40
-2.61
-5.31
-8.71
-12.79
-17.27
-21.60
-25.04
-26.75
-26.07
-22.63
-16.56
-8.44
0.75
9.91
18.05
24.50
29.05
31.91
33.59
34.68
35.73
37.12
39.10
41.80
45.25
49.36
53.93
58.53
62.57
65.44
66.71
66.30
64.52
61.95
59.11
56.25
53.20
49.59
45.03
39.45
33.17
26.75
20.60
14.77
8.81
2.06
-6.02
-15.54
-25.99
-36.45
-45.82
-53.15
-57.82
-59.51
-58.25
-54.29
-48.11
-40.38
-31.98
-23.87
-16.96
-11.92
-9.05
-8.25
-9.10
-11.03
-13.47
-15.88
-17.81
-18.90
-18.93
-17.84
-15.83
-13.32
-10.80
-8.68
-7.16
-6.13
-5.29
-4.35
-3.19
-1.94
-0.93
-0.53
-1.01
-2.40
-4.57
-7.23
-10.04
