1556138980.00
64.000000
-0.00
-0.00
-0.00
-0.00
-0.00
-0.00
-0.00
-0.00
-0.00
-0.00
0.00
0.01
0.01
-0.00
-0.03
-0.05
-0.05
0.00
0.13
0.36
0.66
1.01
1.37
1.72
2.06
2.40
2.79
3.24
3.80
4.42
5.06
5.66
6.20
6.68
7.15
7.68
8.31
9.14
10.09
11.04
11.88
12.56
13.14
13.76
14.65
15.96
17.91
20.32
22.90
25.38
27.58
29.57
31.68
34.32
37.81
42.54
48.15
54.10
59.83
64.97
69.58
74.14
79.34
85.71
93.76
103.00
112.62
121.73
129.77
136.75
143.30
150.75
157.77
166.64
177.95
191.79
206.97
220.57
228.25
225.36
208.53
176.87
132.76
80.05
23.07
-34.94
-92.44
-149.16
-205.23
-260.37
-313.74
-363.87
-409.83
-450.91
-486.50
-515.74
-537.23
-549.22
-549.96
-538.37
-514.21
-478.67
-433.88
-382.45
-327.02
-269.84
-212.63
-156.66
-102.95
-52.37
-5.90
35.58
71.43
101.35
125.50
144.38
158.69
169.15
176.37
180.75
182.57
182.07
179.51
175.23
169.65
163.18
156.15
148.81
141.30
133.69
126.02
118.33
110.69
103.16
95.80
88.68
81.83
75.25
68.95
62.95
57.25
51.86
46.78
42.03
37.59
33.45
29.61
26.07
22.81
19.83
17.11
14.67
12.48
10.54
8.83
7.35
6.07
4.97
4.05
3.27
2.62
2.09
1.65
1.30
1.01
0.79
0.61
0.47
0.37
0.28
0.22
0.18
0.14
0.12
0.10
0.10
0.10
0.10
0.12
0.14
0.17
0.20
0.23
0.27
0.33
0.40
0.48
0.53
0.56
0.55
0.50
0.44
0.40
0.42
0.49
0.60
0.71
0.79
0.81
0.77
0.72
0.71
0.80
0.99
1.27
1.56
1.78
1.87
1.85
1.80
1.86
2.12
2.64
3.34
4.01
4.47
4.58
4.39
4.10
4.04
4.47
5.46
6.81
8.11
8.91
8.91
8.22
7.27
6.71
7.10
8.57
10.78
12.91
14.06
13.61
11.58
8.57
5.51
3.15
1.67
0.59
-1.17
-4.66
-10.66
-19.32
-30.21
-42.31
-53.87
-62.56
-66.00
-62.68
-52.84
-38.76
-24.08
-12.39
-5.71
-3.76
-4.40
-4.80
-2.95
1.61
7.89
14.22
19.17
22.08
23.04
22.74
21.96
21.43
21.54
22.14
22.63
22.40
21.07
18.83
16.31
14.25
12.89
11.75
9.74
5.85
-0.16
-7.43
-14.29
-19.04
-20.91
-20.43
-19.28
-19.28
-21.48
-25.45
-29.65
-32.43
-32.98
-31.83
-30.45
-30.28
-31.75
-33.87
-34.60
-31.83
-24.51
-13.01
0.92
14.86
26.61
34.90
38.75
38.54
36.04
33.92
34.69
39.35
46.59
53.02
54.53
48.30
34.47
16.23
-1.66
-14.91
-21.54
-22.47
-20.61
-19.40
-21.22
-26.50
-33.95
-41.42
-47.01
-49.72
-49.71
-47.79
-44.87
-41.30
-36.84
-31.21
-24.74
-18.77
-15.14
-15.19
-18.73
-23.72
-26.91
-25.12
-16.41
-0.65
20.65
45.06
69.71
91.80
108.78
118.84
121.44
117.56
109.38
99.36
89.24
79.59
70.07
60.36
50.83
42.46
36.10
31.46
26.81
19.52
7.31
-10.59
-32.94
-56.76
-78.31
-94.12
-101.76
-100.32
-90.51
-74.67
-56.34
-39.40
-26.75
-19.04
-14.17
-8.22
2.52
19.36
40.13
60.05
74.01
79.28
76.69
70.02
63.76
60.73
61.04
62.74
63.45
61.80
57.66
51.25
42.21
29.51
12.30
-8.77
-31.02
-50.59
-64.12
-70.23
-69.97
-65.98
-60.94
-56.52
-53.17
-50.54
-47.84
-43.86
-36.89
-25.12
-7.68
14.11
36.22
52.95
59.41
54.21
40.47
24.59
13.10
9.54
12.94
18.85
22.18
20.08
13.29
5.26
-0.14
-0.99
1.79
5.14
5.64
1.47
-6.84
-16.92
-25.67
-30.55
-30.31
-25.30
-17.23
-8.76
-2.64
-0.55
-2.30
-5.57
-7.04
-4.13
3.27
12.54
19.51
20.94
16.42
8.81
2.74
2.04
7.75
17.58
27.08
31.84
29.23
19.25
4.00
-13.42
-30.11
-44.19
-55.06
-62.95
-68.33
-71.38
-71.75
-68.86
-62.39
-52.72
-40.85
-27.92
-14.81
-2.02
9.93
19.96
26.25
26.91
21.04
9.65
-4.12
-16.07
-22.47
-21.67
-14.61
-4.24
5.92
13.36
17.50
19.73
22.29
26.98
33.95
41.43
46.26
45.24
36.48
20.16
-1.40
-24.46
-44.77
-58.63
-63.71
-59.56
-48.00
-32.81
-18.65
-9.35
-6.34
-7.99
-10.58
-10.42
-5.96
1.28
7.56
9.05
3.86
-7.05
-20.67
-33.57
-43.46
-49.74
-53.12
-54.76
-55.58
-56.05
-56.35
-56.55
-56.59
-56.27
-55.21
-52.99
-49.36
-44.42
-38.76
-33.23
-28.67
-25.68
-24.21
-23.47
-22.08
-18.61
-12.28
-3.52
6.10
14.48
20.05
22.66
23.79
25.94
31.35
40.90
53.47
66.30
76.06
79.99
76.95
67.61
54.24
39.96
27.86
20.06
16.98
17.28
18.45
18.09
15.12
10.58
7.41
9.08
17.81
33.29
52.67
71.84
87.29
97.56
103.39
106.61
108.57
109.11
106.73
99.90
88.47
74.52
61.73
53.69
52.11
55.74
60.82
62.65
57.55
44.34
24.81
2.85
-17.02
-31.38
-39.05
-41.19
-40.45
-39.57
-40.17
-42.20
-44.44
-45.50
-44.70
-42.27
-38.83
-34.84
-30.35
-25.41
-20.56
-16.99
-15.97
-17.86
-21.54
-24.54
-24.17
-18.85
-8.90
3.50
15.14
22.92
24.63
19.29
7.06
-10.80
-32.13
-54.13
-73.87
-89.06
-98.65
-102.95
-103.26
-100.87
-96.40
-89.67
-80.40
-69.07
-57.21
-46.57
-37.73
-29.12
-17.52
-0.01
23.60
49.53
71.15
81.91
78.68
63.55
42.88
24.37
13.64
12.15
17.39
24.74
29.89
30.53
26.65
19.75
11.73
3.96
-2.96
-9.12
-14.77
-20.02
-24.73
-28.64
-31.62
-33.80
-35.70
-38.09
-41.71
-46.79
-52.59
-57.47
-59.29
-56.31
-48.14
-36.18
-23.24
-12.41
-5.79
-3.76
-5.03
-7.70
-10.45
-13.35
-17.42
-23.35
-29.81
-32.61
-25.34
-1.72
41.37
101.41
169.93
234.83
284.40
311.24
314.36
298.49
271.24
239.71
208.22
177.94
148.36
119.14
91.30
67.07
48.64
36.70
29.55
23.69
15.22
1.66
-16.99
-38.25
-58.38
-74.01
-83.42
-86.97
-86.58
-84.65
-83.08
-82.73
-83.35
-84.04
-83.75
-81.85
-78.39
-74.14
-70.14
-67.18
-65.37
-63.98
-61.81
-57.69
-50.88
-41.16
-28.70
-13.97
2.31
19.23
35.82
51.19
64.59
75.22
82.00
83.43
78.08
65.31
46.06
23.06
0.07
-19.44
-33.67
-43.07
-49.87
-56.80
-65.67
-76.67
-88.48
-99.19
-107.23
-112.09
-114.23
-114.57
-113.74
-111.70
-107.92
-101.87
-93.49
-83.30
-72.20
-61.17
-51.22
-43.36
-38.45
-36.72
-37.17
-37.43
-34.57
-26.54
-13.55
1.62
14.72
22.10
22.54
17.81
11.61
7.57
7.34
10.03
12.92
12.99
8.41
-0.81
-13.08
-26.12
-37.86
-47.11
-53.74
-58.34
-61.76
-64.44
-66.27
-66.60
-64.71
-60.30
-53.75
-45.97
-37.84
-29.65
-20.91
-10.78
0.94
13.15
23.43
29.04
28.46
22.39
13.81
6.67
3.99
6.55
12.74
19.57
24.26
25.43
23.21
18.55
12.51
5.87
-0.48
-5.26
-6.93
-4.43
1.92
10.15
17.34
20.85
19.63
14.50
7.64
1.55
-1.95
-2.00
1.38
7.63
15.76
24.45
31.92
36.15
35.35
28.52
15.98
-0.33
-17.22
-31.41
-40.98
-46.31
-50.22
-56.81
-69.79
-90.94
-119.69
-153.52
-189.20
-223.75
-254.81
-280.44
-298.85
-308.37
-307.94
-297.67
-279.00
-254.39
-226.65
-198.16
-170.48
-144.19
-119.18
-95.04
-71.62
-49.19
-28.36
-9.55
7.41
23.43
40.15
59.63
83.93
114.54
151.61
193.13
234.76
270.57
294.77
303.72
297.27
278.56
252.61
224.30
196.88
171.61
148.51
127.48
108.89
93.43
81.42
72.46
65.41
59.13
53.29
48.73
47.12
50.26
59.01
72.67
89.09
105.36
118.80
127.92
132.69
134.42
135.01
136.19
138.87
142.81
146.86
149.38
148.98
145.05
137.98
128.95
119.41
110.40
102.21
94.44
86.41
77.73
68.49
59.26
50.68
43.13
36.56
30.71
25.32
20.33
15.68
11.03
5.51
-1.96
-12.03
-24.17
-36.47
-46.09
-50.33
-47.75
-38.59
-24.59
-8.20
8.13
22.50
33.79
41.80
47.33
51.99
57.73
65.89
76.47
88.00
98.16
105.09
108.40
109.33
110.03
112.41
117.08
123.09
128.58
131.85
132.39
131.29
130.79
133.21
139.55
148.85
158.27
164.09
163.27
154.45
138.05
115.46
88.45
59.02
30.02
5.41
-10.56
-15.34
-10.08
-0.23
6.15
1.75
-16.71
-47.23
-83.84
-119.66
-150.07
-174.12
-193.84
-212.19
-230.98
-250.03
-267.60
-281.85
-292.08
-299.07
-304.67
-310.20
-315.30
-317.63
-313.86
-301.61
-281.05
-255.29
-229.03
-206.42
-189.14
-175.99
-164.09
-150.80
-135.08
-117.72
-100.43
-84.61
-70.84
-59.02
-49.07
-41.34
-36.38
-34.51
-35.25
-37.28
-38.84
-38.44
-35.25
-29.28
-21.50
-13.43
-6.76
-2.62
-0.92
-0.25
1.49
5.71
11.90
17.42
18.70
13.27
1.50
-13.10
-25.34
-30.70
-27.42
-17.01
-3.35
9.35
18.19
22.48
23.48
23.47
24.72
28.55
34.93
42.55
49.30
53.24
53.31
49.80
44.16
38.28
33.67
30.69
28.56
25.91
21.82
16.81
13.10
14.05
22.55
39.36
62.10
85.56
103.44
110.98
106.84
93.65
76.77
61.98
53.45
52.58
58.31
67.81
77.42
83.01
80.55
66.97
41.39
5.98
-34.44
-73.93
-107.45
-132.17
-147.45
-153.72
-151.39
-140.80
-123.18
-101.55
-80.76
-65.92
-60.40
-64.62
-76.38
-92.15
-108.40
-121.98
-129.95
-129.59
-119.21
-99.40
-73.74
-47.82
-27.01
-14.08
-8.15
-5.75
-2.96
2.27
9.40
16.03
19.66
19.15
15.29
10.15
5.97
4.25
5.30
8.50
12.70
16.84
20.19
22.29
22.84
21.47
17.74
11.20
1.86
-9.46
-20.76
-29.17
-31.79
-27.06
-16.03
-2.62
7.70
10.18
3.10
-11.40
-28.38
-42.51
-50.38
-51.49
-47.62
-41.27
-34.32
-27.72
-22.03
-18.11
-17.17
-20.10
-26.65
-35.00
-42.20
-45.14
-41.58
-30.69
-13.13
9.42
34.70
60.19
83.26
101.36
112.54
116.26
114.03
109.23
105.82
106.45
110.96
116.08
117.01
109.90
94.04
72.37
50.24
32.89
23.20
20.99
23.78
28.57
33.33
37.41
40.88
43.58
44.59
42.49
36.21
25.75
12.27
-2.45
-16.84
-30.01
-41.71
-51.85
-60.19
-66.41
-70.40
-72.33
-72.21
-69.18
-61.36
-46.68
-24.45
3.29
31.92
55.83
70.98
76.69
75.70
72.36
70.34
70.98
73.25
74.99
74.41
70.85
64.75
57.08
48.91
41.25
35.05
30.95
28.97
28.32
27.67
25.72
21.94
16.80
11.38
6.65
2.78
-1.00
-5.82
-12.28
-19.71
-26.31
-29.97
-29.51
-25.49
-20.09
-16.18
-15.85
-19.53
-25.78
-32.04
-35.82
-35.69
-31.60
-24.64
-16.42
-8.59
-2.54
0.68
0.55
-2.69
-7.90
-13.19
-16.54
-16.53
-12.88
-6.69
0.02
5.16
7.16
5.28
-0.55
-9.81
-21.21
-32.45
-40.33
-41.62
-34.45
-19.59
-0.72
16.71
27.69
29.77
24.07
14.55
6.04
2.02
3.39
8.54
14.59
18.89
20.19
18.91
16.77
15.87
17.64
22.09
27.82
32.63
34.63
33.11
28.84
23.51
18.62
14.61
10.83
6.36
1.15
-3.49
-5.62
-4.02
0.49
5.07
6.12
1.34
-8.78
-20.82
-29.97
-32.31
-26.59
-14.79
-1.14
9.80
15.07
14.23
9.20
3.02
-1.57
-3.24
-2.23
0.30
3.22
6.13
9.35
13.39
18.37
23.76
28.53
31.76
33.15
33.52
34.69
38.87
47.67
61.03
76.76
90.90
99.03
98.08
87.73
70.65
51.57
35.49
25.90
23.87
28.15
36.09
44.63
51.06
53.30
49.88
39.92
23.20
0.37
-26.82
-55.53
-81.98
-102.09
-112.49
-111.84
-101.89
-87.49
-74.98
-69.58
-72.75
-81.05
-87.63
-85.50
-71.10
-46.24
-17.53
6.74
20.23
21.17
12.76
1.36
-6.31
-5.62
4.52
21.56
40.57
55.95
63.50
61.55
50.94
34.10
13.71
-8.29
-30.87
-53.26
-74.46
-93.09
-107.81
-117.89
-123.43
-125.18
-124.12
-120.84
-115.30
-106.69
-93.70
-75.14
-50.78
-22.10
7.55
33.79
52.89
63.36
66.58
66.10
65.78
67.91
72.28
76.52
77.58
73.24
63.02
48.24
31.52
15.79
3.43
-4.52
-8.67
-10.91
-13.58
-18.39
-25.64
-34.07
-41.40
-45.18
-43.68
-36.59
-25.29
-12.63
-2.00
4.18
5.90
5.98
8.83
17.96
33.62
52.02
66.93
72.86
68.03
55.21
40.09
28.17
22.00
20.45
20.05
17.29
10.49
0.24
-11.37
-22.17
-30.81
-37.08
-41.41
-44.28
-45.68
-45.05
-41.66
-35.21
-26.35
-16.78
-8.91
-5.07
-6.43
-12.18
-19.45
-24.26
-23.06
-14.39
0.39
17.47
32.11
40.53
41.33
35.86
27.28
19.21
14.21
13.11
14.97
17.76
19.24
17.80
13.05
5.88
-1.94
-8.53
-12.77
-14.68
-15.23
-15.74
-16.97
-18.84
-20.63
-21.66
-21.84
-21.85
-22.74
-25.18
-28.92
-32.59
-34.55
-33.84
-30.78
-26.93
-24.20
-23.85
-25.80
-28.66
-30.12
-28.14
-21.91
-11.95
0.13
12.20
22.06
27.86
28.46
24.48
17.32
8.42
-1.19
-11.00
-20.81
-30.42
-38.99
-44.56
-42.28
-27.56
1.42
42.27
88.63
132.24
165.57
184.36
188.74
185.26
181.28
181.06
184.87
190.58
196.54
202.81
210.30
218.84
229.41
240.22
247.23
247.57
242.11
236.40
238.03
252.84
260.30
245.60
206.76
155.69
107.23
68.17
37.44
10.84
-14.80
-39.97
-59.52
-66.57
-62.85
-52.95
-42.59
-35.72
-33.50
-35.09
-39.14
-42.28
-43.18
-43.94
-46.64
-53.25
-63.75
-76.16
-87.83
-96.94
-101.66
-102.35
-101.77
-103.16
-109.38
-121.70
-140.16
-164.39
-193.81
-226.34
-258.82
-287.74
-309.91
-324.10
-331.29
-333.87
-333.98
-331.94
-325.70
-312.54
-291.29
-263.22
-231.54
-199.07
-166.28
-131.08
-90.72
-44.29
5.67
53.87
94.91
125.69
146.66
160.76
171.31
180.13
187.18
191.54
192.88
192.10
190.76
190.13
190.63
192.02
194.24
197.82
203.61
211.91
221.85
231.46
238.53
241.49
239.91
234.12
224.38
210.32
190.93
165.20
132.83
94.75
52.97
10.10
-31.25
-68.99
-101.75
-129.16
-151.72
-170.58
-187.06
-202.39
-217.32
-232.18
-246.88
-261.10
-274.23
-285.40
-293.50
-297.24
-295.50
-287.68
-273.97
-255.40
-233.33
-208.92
-182.57
-153.82
-121.91
-86.61
-49.02
-11.54
22.67
50.98
72.23
87.14
97.69
106.07
113.62
120.30
125.16
127.18
126.15
123.04
119.62
117.78
118.77
122.93
129.85
138.70
148.56
158.58
168.10
176.71
184.41
191.77
199.75
209.33
220.84
233.37
244.78
252.16
252.71
244.51
226.80
199.82
164.35
121.46
72.50
19.47
-34.76
-86.63
-132.61
-170.13
-198.40
-218.58
-233.10
-244.71
-255.42
-266.05
-276.37
-285.75
-293.73
-300.41
-306.24
-311.66
-316.63
-320.35
-321.25
-317.29
-306.41
-287.24
-259.68
-225.25
-186.92
-148.24
-112.14
-79.85
-50.68
-22.85
5.22
33.66
60.86
84.21
101.47
111.99
117.03
119.21
121.40
125.71
133.17
143.79
157.09
172.42
189.34
207.51
226.71
246.50
265.92
283.40
297.00
305.04
306.72
302.39
293.29
280.86
265.92
248.19
226.54
199.60
166.53
127.57
84.01
37.79
-8.89
-53.96
-95.64
-132.72
-164.64
-191.50
-213.88
-232.58
-248.23
-261.25
-272.19
-281.92
-291.59
-302.34
-314.08
-324.89
-331.33
-329.79
-317.94
-296.01
-266.44
-232.83
-198.66
-165.94
-134.96
-104.87
-74.81
-44.35
-13.87
16.06
44.81
71.03
93.26
110.26
121.36
126.59
127.16
124.85
122.01
121.01
122.08
125.00
130.07
138.03
149.05
162.80
177.12
190.10
201.25
208.52
211.46
211.59
210.40
206.91
199.18
183.35
158.56
128.21
93.08
54.50
15.37
-21.53
-55.73
-86.44
-116.05
-144.88
-170.86
-197.96
-230.12
-267.01
-304.87
-340.13
-368.38
-391.59
-412.86
-392.89
-314.36
-192.51
-62.72
46.94
108.25
137.84
150.18
153.46
149.93
142.29
126.79
103.26
75.54
47.43
23.13
0.25
-23.41
-47.31
-72.77
-98.64
-118.58
-125.04
-114.65
-88.35
-55.36
-25.74
-6.63
-4.02
-19.96
-50.37
-87.05
-121.01
-143.25
-149.57
-139.11
-114.62
-83.85
-56.70
-40.78
-39.38
-50.95
-69.12
-86.17
-94.13
-87.27
-64.59
-30.27
8.23
42.33
65.08
73.76
70.53
61.98
56.34
59.84
73.46
92.61
109.03
114.62
105.07
81.55
49.66
16.35
-13.35
-38.14
-59.73
-80.71
-102.15
-122.57
-138.73
-147.71
-148.42
-141.82
-129.88
-114.16
-95.17
-72.99
-48.58
-24.83
-6.03
3.79
2.81
-7.82
-24.66
-43.57
-61.04
-74.38
-81.38
-79.94
-68.61
-47.62
-19.46
11.81
42.40
70.62
97.44
125.10
154.74
184.81
211.25
229.72
238.19
238.26
234.52
232.51
236.45
247.88
265.66
286.91
308.29
326.98
341.40
351.36
357.93
362.64
366.60
369.81
371.16
369.10
362.74
352.43
339.49
325.25
309.75
291.38
267.53
236.09
196.90
152.19
105.91
62.21
24.06
-7.65
-34.03
-57.46
-80.43
-104.59
-130.25
-156.60
-182.57
-207.52
-231.51
-254.75
-276.64
-295.19
-307.02
-308.27
-295.83
-268.53
-228.03
-179.34
-130.50
-91.24
-70.25
-71.76
-92.90
-123.48
-149.14
-156.81
-139.94
-101.03
-49.95
0.40
39.01
59.77
61.80
47.91
22.58
-9.47
-44.05
-78.02
-109.69
-139.16
-167.91
-197.81
-229.82
-263.02
-294.35
-319.15
-332.27
-329.42
-308.71
-271.68
-223.73
-172.96
-127.82
-94.22
-73.62
-62.86
-55.93
-46.69
-31.60
-11.05
10.84
27.99
34.86
28.80
11.14
-13.30
-38.28
-58.70
-72.40
-80.30
-84.92
-88.20
-90.23
-89.28
-83.27
-71.36
-54.84
-36.49
-19.34
-5.38
5.11
13.37
21.36
30.79
42.52
56.45
71.96
88.49
105.92
124.57
144.67
165.80
186.63
205.54
221.40
234.29
245.39
256.16
267.12
277.20
284.12
285.63
280.88
271.07
258.95
247.49
238.39
231.31
224.16
214.43
200.68
183.56
165.62
150.25
140.21
136.76
139.65
147.81
159.97
174.87
190.79
205.20
215.01
217.43
211.10
196.70
176.78
154.48
132.16
110.45
88.29
63.67
34.76
0.70
-38.22
-80.73
-125.07
-169.24
-211.18
-248.52
-278.42
-297.60
-302.84
-292.16
-266.20
-229.13
-188.26
-152.21
-127.86
-117.70
-118.73
-123.71
-124.50
-115.82
-97.63
-74.81
-54.39
-41.80
-38.20
-40.21
-41.96
-38.25
-26.89
-9.42
10.30
28.29
42.29
52.57
61.34
71.28
83.96
98.95
113.83
125.29
130.60
128.84
121.32
110.84
100.31
91.61
85.31
81.41
80.19
82.57
89.24
99.49
110.41
117.52
116.64
105.92
86.99
64.24
42.91
26.74
16.69
10.93
6.11
-1.11
-12.80
-29.42
-49.98
-72.67
-95.39
-116.30
-134.07
-147.95
-157.79
-163.93
-167.19
-168.70
-169.73
-171.24
-173.58
-176.22
-177.91
-177.12
-172.54
-163.57
-150.46
-134.32
-116.63
-98.93
-82.31
-67.27
-53.72
-41.27
-29.54
-18.43
-8.00
1.65
10.64
19.32
28.08
37.03
45.86
53.91
60.45
64.83
66.70
66.10
63.32
58.96
53.79
48.53
43.75
39.58
35.77
31.75
26.95
20.97
13.81
5.88
-2.05
-8.93
-13.67
-15.35
-13.59
-8.79
-2.25
4.23
8.80
10.29
8.50
4.28
-0.91
-5.59
-8.74
-10.14
-10.23
-9.91
-10.11
-11.45
-14.10
-17.83
-22.10
-26.29
-29.86
-32.40
-33.77
-33.98
-33.19
-31.60
-29.37
-26.53
-23.00
-18.59
-13.13
-6.54
1.07
9.42
18.06
26.40
33.73
39.30
42.49
42.94
40.62
35.90
29.28
21.27
12.15
2.07
-8.94
-20.76
-33.11
-45.61
-57.86
-69.55
-80.51
-90.69
-100.04
-108.42
-115.58
-121.07
-124.29
-124.54
-121.33
-114.45
-104.11
-90.86
-75.44
-58.64
-41.20
-23.76
-6.85
9.01
23.39
35.95
46.51
55.12
62.10
68.09
73.95
80.53
88.34
97.38
107.06
116.41
124.36
130.06
132.91
132.46
128.39
120.54
109.01
94.25
76.98
58.09
38.39
18.50
-1.16
-20.27
-38.49
-55.33
-70.06
-81.82
-89.59
-92.47
-90.03
-82.49
-70.87
-56.71
-41.70
-27.14
-13.72
-1.54
9.60
19.84
29.12
37.17
43.55
47.88
49.94
49.69
47.35
43.33
38.24
32.80
27.69
23.47
20.47
18.73
17.95
17.56
16.74
14.59
10.33
3.52
-5.76
-17.00
-29.34
-41.95
-54.21
-65.78
-76.47
-86.08
-94.24
-100.47
-104.27
-105.40
-103.92
-100.17
-94.66
-87.87
-80.22
-72.02
-63.61
-55.30
-47.38
-40.03
-33.26
-27.01
-21.15
-15.62
-10.38
-5.39
-0.56
4.28
9.27
14.43
19.68
24.87
29.84
34.51
38.84
42.72
45.99
48.37
49.62
49.67
48.67
47.03
45.23
43.67
42.46
41.45
40.29
38.71
36.71
34.74
33.45
33.52
35.32
38.80
43.62
49.39
55.97
63.40
71.63
80.31
88.63
95.66
100.58
103.06
103.16
101.19
97.51
92.51
86.71
80.97
76.35
73.90
74.24
77.31
82.11
86.89
89.35
87.23
78.92
64.00
43.46
19.38
-5.85
-30.37
-53.39
-75.11
-96.13
-116.82
-137.01
-155.99
-172.86
-186.70
-196.66
-201.87
-201.53
-195.17
-183.13
-166.82
-148.57
-131.14
-116.88
-107.17
-102.25
-101.34
-103.28
-106.96
-111.70
-117.27
-123.72
-131.03
-138.79
-145.98
-150.80
-150.88
-143.82
-128.04
-103.71
-73.25
-40.88
-11.34
11.72
27.10
36.27
42.39
48.87
57.91
69.99
84.10
98.49
111.29
120.84
125.79
125.11
118.57
107.02
92.47
77.49
64.36
54.11
46.17
38.88
30.47
20.19
8.86
-1.24
-7.41
-7.62
-1.44
9.75
23.22
35.87
45.24
50.18
51.20
50.14
49.54
51.73
57.98
67.85
79.22
88.83
93.46
91.21
82.48
69.89
57.26
48.06
43.95
44.17
46.07
46.37
42.59
33.88
21.17
6.60
-7.21
-17.89
-23.78
-24.21
-19.64
-11.57
-2.24
5.97
11.16
12.44
9.91
4.42
-3.05
-11.86
-21.89
-33.41
-46.55
-60.94
-75.49
-88.59
-98.50
-103.92
-104.31
-100.03
-92.21
-82.62
-73.39
-66.62
-63.89
-65.69
-71.05
-77.76
-83.11
-85.04
-82.92
-77.61
-70.83
-64.06
-57.97
-52.29
-46.34
-39.58
-31.87
-23.17
-13.19
-1.26
13.40
31.13
51.54
73.59
95.97
117.62
137.91
156.67
174.03
190.35
206.01
221.04
234.69
245.24
250.33
247.93
237.36
219.97
198.74
177.01
156.86
138.07
118.36
94.64
64.72
28.38
-12.53
-54.86
-95.38
-131.70
-162.62
-187.95
-207.97
-222.93
-232.74
-237.13
-236.04
-229.96
-220.06
-207.97
-195.23
-182.64
-169.95
-155.94
-139.11
-118.57
-94.86
-70.11
-47.41
-29.58
-17.88
-11.20
-6.38
0.60
13.01
32.11
56.81
84.22
110.84
133.50
149.97
158.83
159.46
151.97
137.47
118.25
97.38
78.05
62.43
51.13
43.24
37.17
31.65
26.43
22.34
20.73
22.85
29.44
40.71
56.34
75.44
96.21
115.88
131.05
138.78
137.85
129.58
117.52
105.90
97.71
93.25
90.02
84.08
71.95
52.29
26.39
-2.67
-31.36
-56.98
-78.14
-94.64
-106.92
-115.62
-121.53
-125.77
-129.77
-135.01
-142.66
-153.03
-165.52
-178.78
-191.14
-201.05
-207.54
-210.49
-210.55
-208.82
-206.02
-201.73
-194.04
-179.96
-156.72
-123.34
-81.70
-36.44
6.40
41.38
65.44
78.57
83.26
83.20
81.82
81.55
83.63
88.53
96.22
106.34
118.15
130.59
142.52
153.20
162.69
171.73
181.40
192.50
205.22
219.11
233.17
245.96
255.71
260.44
258.27
248.18
230.59
207.62
182.50
158.29
136.59
116.79
96.40
72.26
42.15
5.76
-35.14
-77.53
-118.37
-155.53
-188.15
-216.16
-239.63
-258.28
-271.49
-278.93
-281.14
-279.66
-276.53
-273.38
-270.62
-267.31
-261.63
-251.86
-237.11
-217.67
-194.74
-169.89
-144.63
-120.14
-97.08
-75.34
-53.90
-30.93
-4.41
26.85
62.21
98.92
132.70
159.14
175.05
179.51
173.79
160.65
143.18
123.84
104.21
85.14
67.34
51.88
40.21
33.77
33.28
38.31
47.24
57.96
68.75
78.98
89.33
101.40
116.97
137.32
162.66
191.63
221.22
246.96
263.78
267.37
255.55
229.04
191.27
147.08
101.16
56.72
15.10
-24.05
-61.68
-98.39
-133.79
-166.46
-194.58
-216.43
-231.02
-238.43
-239.84
-236.94
-231.25
-223.79
-215.03
-205.42
-195.57
-186.12
-177.38
-169.30
-161.09
-151.39
-138.66
-121.58
-99.97
-74.59
-46.88
-19.02
5.92
25.24
37.97
45.47
51.51
59.39
71.44
88.41
108.99
129.24
145.20
155.05
159.50
161.65
162.20
160.68
156.44
148.75
135.44
115.54
90.77
65.41
46.17
35.11
31.75
34.04
37.62
34.26
16.13
-20.55
-73.86
-135.63
-200.82
-265.62
-327.05
-363.48
-358.96
-314.86
-250.16
-203.34
-176.70
-166.32
-168.79
-174.15
-177.78
-179.74
-181.52
-183.94
-186.35
-185.35
-182.28
-178.89
-175.28
-171.18
-167.75
-166.22
-166.58
-166.90
-162.24
-150.76
-131.20
-102.28
-64.24
-19.76
27.50
74.60
120.19
165.07
208.13
247.86
283.27
313.65
338.59
358.27
373.09
383.02
387.38
383.22
367.45
338.69
298.27
250.37
201.04
156.33
120.21
93.68
74.37
58.56
43.37
27.93
13.41
1.74
-6.05
-10.63
-13.96
-17.99
-23.24
-28.35
-30.56
-27.14
-16.68
0.18
20.85
41.75
59.54
72.17
79.31
82.30
83.45
85.32
90.06
98.92
111.89
127.46
142.52
152.76
153.68
142.19
118.01
84.10
45.76
8.79
-22.65
-47.05
-65.41
-79.96
-92.77
-104.96
-116.74
-128.06
-139.05
-150.09
-161.42
-172.39
-181.42
-186.21
-184.64
-175.69
-160.01
-139.86
-118.32
-98.25
-81.20
-67.00
-54.11
-40.56
-24.95
-7.15
11.73
29.98
46.04
59.11
69.44
78.25
87.48
99.46
116.11
138.04
163.76
189.74
211.34
224.62
227.95
222.71
212.48
201.11
190.86
181.31
169.99
154.01
131.92
104.66
75.20
47.18
23.41
4.94
-8.77
-19.00
-26.77
-32.20
-34.77
-34.22
-31.41
-28.78
-29.67
-36.97
-51.84
-73.13
-97.90
-122.60
-144.41
-161.82
-174.53
-182.77
-186.62
-185.87
-180.36
-170.67
-158.51
-146.73
-138.59
-136.85
-143.02
-156.95
-177.04
-200.83
-225.61
-249.00
-269.23
-285.19
-296.38
-302.63
-303.91
-300.12
-290.94
-275.91
-254.65
-227.00
-193.21
-153.87
-109.81
-62.03
-11.73
39.54
89.90
137.11
178.94
213.69
240.67
260.39
274.27
283.99
290.56
293.65
291.55
281.88
262.87
234.57
199.43
161.62
125.30
92.96
64.56
37.99
10.63
-19.07
-50.82
-82.92
-113.17
-139.56
-160.06
-172.03
-171.85
-155.76
-121.70
-71.34
-10.83
50.51
103.08
140.10
159.39
163.08
155.70
141.99
125.36
107.59
89.55
72.00
56.29
43.55
34.03
26.72
19.60
10.63
-1.53
-16.75
-33.52
-49.25
-61.22
-67.56
-67.80
-63.04
-55.54
-48.08
-42.86
-41.03
-41.83
-43.98
-46.88
-51.20
-58.34
-69.17
-83.13
-97.50
-108.52
-111.02
-102.43
-84.57
-62.92
-43.86
-31.95
-29.38
-35.00
-46.08
-55.52
-57.60
-50.66
-37.41
-22.02
-7.51
4.04
13.70
22.76
38.10
64.43
101.28
144.10
188.32
232.05
273.25
312.31
348.63
390.12
444.50
514.46
595.94
680.70
760.28
825.93
875.96
861.34
758.02
582.17
382.02
201.40
58.09
-36.08
-100.95
-148.18
-183.86
-204.04
-206.58
-198.48
-189.66
-188.74
-198.86
-220.47
-248.28
-277.55
-298.92
-306.04
-298.84
-282.85
-265.44
-251.74
-245.71
-246.51
-252.53
-258.01
-258.03
-250.83
-237.71
-221.25
-203.15
-185.42
-168.29
-152.51
-137.37
-122.27
-107.32
-92.90
-79.10
-65.38
-51.76
-38.36
-26.41
-17.02
-11.01
-8.69
-9.61
-12.78
-16.97
-21.40
-25.64
-29.86
-34.56
-40.25
-47.35
-55.98
-66.06
-77.18
-88.46
-98.62
-105.96
-108.71
-105.39
-95.29
-78.89
-57.86
-34.84
-12.84
5.64
19.37
28.81
36.01
43.85
54.76
69.79
88.12
107.58
125.55
139.85
148.95
151.82
147.63
135.78
116.29
90.63
61.79
33.57
8.90
-11.89
-31.44
-54.02
-83.06
-118.87
-157.33
-190.98
-211.52
-212.92
-194.17
-159.23
-115.51
-71.72
-35.99
-13.96
-7.77
-15.36
-31.13
-48.55
-61.63
-66.26
-61.43
-49.27
-33.24
-16.59
-0.62
15.08
30.19
43.94
56.20
67.50
78.33
89.27
99.91
109.31
115.65
114.63
102.14
77.12
42.24
2.71
-34.60
-63.75
-80.80
-75.32
-46.82
-8.57
21.39
33.26
25.62
8.65
-9.17
-23.40
-33.99
-41.09
-47.11
-52.72
-56.73
-58.03
-56.30
-53.23
-50.72
-49.95
-52.17
-57.73
-64.78
-70.66
-73.87
-74.36
-73.74
-73.39
-73.71
-74.81
-76.38
-76.88
-74.37
-67.46
-55.50
-39.01
-19.09
2.65
23.87
42.11
56.19
66.31
73.67
79.73
85.26
90.25
94.16
96.41
97.17
97.82
100.31
105.95
114.58
124.40
132.93
138.20
139.56
137.68
133.86
129.19
123.93
117.82
110.65
102.98
96.12
91.63
90.50
92.53
96.19
99.09
98.90
94.00
84.15
70.58
55.33
40.67
28.69
21.41
20.81
28.30
43.67
64.11
84.19
97.49
99.18
88.22
67.82
43.69
21.09
2.39
-13.33
-28.48
-44.29
-59.06
-68.66
-69.14
-59.73
-44.08
-28.98
-21.06
-23.17
-32.65
-42.13
-43.07
-29.84
-2.39
33.75
70.00
98.05
112.42
111.13
95.16
67.52
32.85
-2.76
-32.29
-49.39
-50.77
-37.77
-16.25
5.60
20.35
24.07
17.57
5.52
-5.72
-10.41
-5.53
8.56
28.68
50.59
70.84
87.94
102.04
113.18
119.46
116.33
97.74
58.52
-3.02
-83.68
-175.98
-270.13
-356.32
-426.22
-473.77
-495.43
-490.39
-460.88
-412.12
-351.70
-288.04
-228.54
-178.01
-138.11
-107.43
-82.74
-60.67
-39.28
-18.97
-2.48
6.40
4.54
-8.89
-31.64
-58.68
-83.61
-100.60
-106.22
-100.49
-86.52
-69.19
-53.13
-41.15
-33.72
-29.47
-26.29
-22.27
-16.29
-7.89
2.98
16.25
31.60
48.25
64.72
79.07
89.42
94.67
95.10
92.27
88.56
86.25
86.71
89.91
94.68
99.22
102.00
102.11
99.52
94.62
87.86
79.58
70.05
59.61
48.81
38.29
28.52
19.64
11.42
3.39
-4.79
-13.28
-21.84
-29.86
-36.32
-39.94
-39.39
-33.74
-22.86
-7.67
10.08
28.45
45.91
61.81
76.16
89.15
100.50
109.32
114.37
114.61
109.83
100.78
88.88
75.63
62.14
48.84
35.68
22.46
9.20
-3.71
-15.69
-26.20
-35.01
-42.21
-48.12
-53.04
-57.12
-60.22
-62.08
-62.46
-61.28
-58.67
-55.04
-50.89
-46.83
-43.45
-41.23
-40.42
-40.94
-42.43
-44.21
-45.38
-44.95
-42.07
-36.21
-27.26
-15.53
-1.64
13.67
29.56
45.06
59.08
70.34
77.63
80.11
77.65
71.02
61.80
51.90
43.10
36.56
32.58
30.73
30.12
29.77
29.01
27.70
26.24
25.36
25.83
28.05
31.92
36.76
41.55
45.19
46.74
45.67
41.87
35.65
27.62
18.49
8.94
-0.41
-9.10
-16.71
-22.85
-27.18
-29.40
-29.42
-27.31
-23.33
-17.83
-11.13
-3.49
4.81
13.45
21.96
29.76
36.27
41.06
43.97
45.17
45.10
44.37
43.45
42.61
41.76
40.59
38.68
35.63
31.26
25.60
19.00
12.02
5.41
-0.08
-3.87
-5.75
-5.99
-5.24
-4.30
-3.84
-4.24
-5.48
-7.28
-9.19
-10.76
-11.65
-11.70
-10.92
-9.43
-7.35
-4.72
-1.32
3.14
8.95
16.07
24.06
32.03
38.90
43.68
45.76
45.07
42.03
37.40
32.07
26.78
21.98
17.75
13.97
10.40
6.88
3.44
0.17
-2.79
-5.41
-7.80
-10.11
-12.32
-14.25
-15.58
-15.96
-15.34
-13.98
-12.43
-11.30
-11.08
-11.87
-13.45
-15.36
-17.08
-18.14
-18.30
-17.57
-16.19
-14.64
-13.51
-13.30
-14.28
-16.30
-18.88
-21.32
-22.88
-23.04
-21.56
-18.48
-14.10
-8.90
-3.44
1.77
6.29
9.88
12.47
14.20
15.29
16.00
16.53
16.99
17.35
17.45
17.07
15.96
14.07
11.59
8.91
6.50
4.73
3.72
3.35
3.28
3.16
2.73
1.89
0.64
-0.89
-2.58
-4.35
-6.10
-7.84
-9.57
-11.35
-13.20
-15.13
-17.15
-19.32
-21.73
-24.46
-27.49
-30.59
-33.27
-34.99
-35.26
-33.81
-30.73
-26.43
-21.50
-16.53
-11.98
-8.08
-4.94
-2.50
-0.73
0.50
1.38
2.15
2.97
3.88
4.70
5.11
4.91
4.19
3.31
2.76
2.85
3.47
4.13
4.25
3.50
2.01
0.26
-1.15
-1.89
-1.98
-1.72
-1.55
-1.80
-2.66
-4.22
-6.45
-9.24
-12.40
-15.69
-18.86
-21.76
-24.26
-26.18
-27.23
-27.12
-25.63
-22.88
-19.29
-15.41
-11.65
-8.12
-4.62
-0.82
3.41
7.87
12.06
15.51
18.01
19.65
20.75
21.57
22.18
22.41
21.92
20.39
17.57
13.38
7.91
1.45
-5.46
-12.19
-18.10
-22.76
-26.04
-28.10
-29.25
-29.69
-29.43
-28.37
-26.44
-23.75
-20.55
-17.11
-13.58
-10.02
-6.43
-3.01
-0.23
1.30
1.00
-1.37
-5.61
-11.03
-16.60
-21.31
-24.33
-25.26
-24.18
-21.54
-17.96
-13.87
-9.31
-4.00
2.43
10.11
18.64
27.18
34.78
40.73
44.82
47.29
48.58
49.09
49.12
48.90
48.64
48.53
48.55
48.39
47.41
44.86
40.21
33.44
25.13
16.29
8.09
1.48
-3.05
-5.60
-6.87
-7.96
-10.05
-13.95
-19.86
-27.21
-34.91
-41.65
-46.38
-48.61
-48.46
-46.52
-43.55
-40.13
-36.48
-32.55
-28.11
-23.12
-17.76
-12.40
-7.51
-3.30
0.32
3.78
7.46
11.55
15.79
19.74
22.97
25.27
26.67
27.44
27.89
28.35
28.98
29.81
30.82
32.02
33.26
34.33
35.03
35.32
35.41
35.61
36.26
37.57
39.64
41.95
43.53
43.66
42.39
40.52
39.31
39.61
41.67
45.21
48.64
49.87
47.56
42.20
35.76
30.89
29.26
31.52
37.51
45.41
52.83
58.27
62.29
66.60
72.92
81.33
91.40
102.92
114.66
124.31
128.65
124.20
107.26
75.12
27.17
-35.95
-100.63
-147.64
-165.96
-159.98
-142.40
-128.65
-121.65
-118.96
-116.32
-111.44
-106.88
-105.21
-110.22
-122.70
-139.57
-155.80
-167.13
-164.76
-145.24
-113.30
-79.11
-52.30
-40.44
-41.67
-53.59
-76.27
-111.24
-157.62
-212.84
-270.58
-321.49
-355.68
-366.19
-352.55
-320.38
-278.12
-234.12
-193.90
-158.95
-127.89
-98.17
-67.47
-35.21
-1.82
32.26
66.32
99.41
130.80
160.20
188.16
216.17
245.90
278.29
312.46
344.53
367.62
373.37
354.10
305.48
228.98
132.65
29.96
-63.17
-132.61
-169.87
-174.14
-152.29
-116.71
-81.82
-60.26
-59.91
-82.19
-122.14
-170.15
-214.88
-246.55
-259.35
-252.58
-230.04
-198.02
-162.89
-129.29
-99.62
-74.22
-52.19
-32.12
-12.53
8.27
32.12
60.62
93.85
129.32
162.06
186.20
197.52
195.52
183.60
167.44
152.60
142.80
139.81
144.45
157.08
177.23
202.42
227.42
245.08
248.82
235.41
206.56
167.85
126.29
87.83
55.87
31.43
14.33
4.44
2.21
8.19
21.87
40.36
58.18
68.57
66.47
51.42
28.34
5.56
-9.61
-14.84
-14.08
-15.07
-24.96
-46.74
-78.36
-114.77
-150.80
-182.77
-208.35
-225.92
-234.40
-234.26
-228.42
-222.12
-220.89
-227.80
-242.00
-259.61
-276.08
-288.34
-295.23
-296.33
-290.50
-275.81
-250.89
-217.09
-179.19
-143.97
-117.45
-102.06
-95.38
-91.11
-81.47
-60.56
-26.51
17.99
67.00
113.57
152.29
180.76
200.07
213.80
225.89
238.78
252.56
265.60
275.78
282.00
284.63
285.19
286.01
288.65
293.40
299.69
306.75
314.06
321.57
329.06
335.94
342.71
349.17
354.39
357.26
357.35
354.86
350.83
345.68
338.85
332.11
325.75
318.40
308.09
294.25
277.77
261.91
249.28
241.05
241.81
252.93
271.55
291.83
308.01
315.41
313.25
301.38
280.06
256.43
235.44
218.11
202.51
187.20
171.45
157.75
146.55
98.47
-1.86
-140.69
-284.47
-405.09
-484.56
-536.11
-570.57
-594.85
-613.31
-618.68
-606.19
-576.84
-536.92
-494.00
-454.84
-420.79
-391.75
-366.69
-339.39
-306.51
-269.21
-232.26
-200.45
-177.09
-161.02
-150.37
-143.57
-136.70
-128.09
-118.32
-109.05
-100.80
-92.84
-82.49
-68.45
-51.56
-32.85
-14.54
0.79
11.24
16.42
17.07
15.10
12.12
9.19
7.55
7.90
10.22
13.68
16.99
18.64
17.63
13.46
6.20
-3.71
-15.76
-29.57
-44.69
-60.28
-74.90
-86.66
-93.92
-96.11
-94.15
-90.27
-86.94
-85.73
-86.65
-88.32
-88.88
-87.14
-82.96
-76.91
-69.43
-60.23
-48.50
-33.77
-16.71
0.45
14.70
23.47
25.73
22.37
15.61
7.81
0.50
-5.90
-11.83
-17.73
-23.53
-28.63
-32.19
-33.70
-33.24
-31.56
-29.69
-28.57
-28.73
-30.13
-32.33
-34.73
-36.80
-38.22
-38.91
-38.88
-38.08
-36.41
-33.79
-30.34
-26.25
-21.82
-17.18
-12.24
-6.72
-0.38
6.83
14.64
22.63
30.46
38.04
45.67
53.95
63.64
75.38
89.51
105.86
123.74
142.05
159.63
175.71
190.10
203.30
216.14
229.28
242.73
255.70
266.66
273.97
276.33
273.28
265.35
253.92
240.82
227.79
216.12
206.33
198.23
191.13
184.17
176.54
167.69
157.27
145.12
131.20
115.63
98.80
81.54
65.03
50.43
38.45
28.93
20.84
12.69
3.19
-8.27
-21.50
-36.08
-51.91
-69.73
-90.99
-117.19
-148.87
-185.14
-223.40
-259.72
-289.53
-308.62
-313.74
-303.55
-279.25
-244.90
-207.29
-175.12
-157.42
-161.22
-189.15
-237.77
-297.71
-355.87
-399.13
-418.23
-409.97
-377.25
-327.13
-268.23
-208.60
-154.78
-111.41
-81.14
-64.10
-57.62
-56.67
-55.23
-48.39
-34.14
-13.85
8.63
29.01
44.19
53.29
57.35
58.31
57.95
57.22
56.30
55.10
53.90
53.41
54.56
57.94
63.42
70.17
77.21
83.81
89.68
94.80
99.13
102.52
104.94
106.71
108.56
111.30
115.36
120.22
124.48
126.18
123.52
115.54
102.36
85.13
65.62
45.78
27.38
11.82
-0.13
-8.40
-13.57
-16.80
-19.47
-22.87
-27.93
-34.98
-43.64
-52.73
-60.26
-63.66
-60.46
-48.96
-29.02
-2.34
28.07
58.72
86.65
110.04
128.14
140.85
148.28
150.50
147.69
140.35
129.47
116.43
102.72
89.57
77.64
67.01
57.37
48.39
40.18
33.40
29.11
28.26
31.14
37.16
44.92
52.72
58.99
62.64
63.06
60.09
53.85
44.72
33.41
20.80
7.76
-5.07
-17.22
-28.38
-38.20
-46.17
-51.82
-54.90
-55.59
-54.45
-52.21
-49.49
-46.63
-43.72
-40.72
-37.65
-34.70
-32.20
-30.50
-29.83
-30.20
-31.40
-33.06
-34.78
-36.29
-37.48
-38.49
-39.56
-40.98
-42.99
-45.65
-48.93
-52.74
-56.88
-61.11
-64.95
-67.73
-68.71
-67.30
-63.31
-57.07
-49.36
-41.16
-33.31
-26.30
-20.24
-15.01
-10.40
-6.32
-2.76
0.22
2.62
4.51
5.99
7.23
8.32
9.31
10.18
10.89
11.41
11.73
11.91
12.03
12.13
12.14
11.95
11.42
10.52
9.41
8.36
7.68
7.52
7.81
8.27
8.56
8.51
8.15
7.66
7.19
6.67
5.74
3.93
0.88
-3.30
-8.04
-12.37
-15.28
-16.12
-14.79
-11.76
-7.87
-3.91
-0.40
2.57
5.26
8.03
11.10
14.29
17.07
18.76
19.02
18.04
16.51
15.28
15.26
16.88
19.78
22.74
24.27
23.46
20.41
16.29
12.73
11.49
13.60
18.92
26.05
32.88
37.69
39.43
37.80
33.01
26.82
22.43
23.85
34.40
55.25
85.05
119.16
150.34
170.19
174.69
165.27
147.86
129.07
113.03
101.27
91.76
79.82
58.39
25.84
-14.20
-54.47
-88.31
-111.81
-122.11
-119.47
-108.20
-99.07
-98.61
-109.09
-128.40
-153.38
-179.88
-199.58
-203.19
-183.75
-143.45
-83.51
-7.02
80.53
169.32
227.65
229.71
173.28
111.04
65.66
44.93
38.34
39.47
41.61
39.86
36.01
34.76
39.10
43.00
42.72
36.44
25.47
11.54
-2.77
-12.16
-12.23
-2.36
10.16
20.43
26.24
28.78
29.77
31.01
35.18
43.74
55.43
64.29
66.84
62.90
55.12
46.12
37.57
30.15
23.09
14.66
2.22
-13.91
-30.37
-42.29
-45.86
-39.29
-23.09
-0.06
25.41
47.68
62.48
68.71
67.51
61.37
53.71
47.74
45.34
46.53
48.66
48.71
47.39
47.20
51.55
65.00
90.90
128.93
173.80
213.43
234.38
231.09
202.71
151.75
85.63
13.39
-57.35
-121.43
-179.63
-233.79
-277.82
-308.31
-328.24
-341.24
-349.44
-351.93
-345.10
-330.65
-314.73
-299.09
-292.27
-308.43
-354.64
-427.32
-513.61
-566.51
-549.00
-502.80
-454.55
-398.56
-337.12
-271.32
-201.14
-126.73
-49.42
23.49
85.31
142.08
199.47
257.10
312.82
361.78
397.42
413.84
404.78
368.86
317.53
262.46
209.44
161.62
119.84
84.14
55.26
32.56
15.60
8.16
11.12
20.82
33.35
45.96
57.71
69.26
80.56
90.87
100.91
110.17
116.82
120.11
120.63
119.80
118.91
117.88
115.53
110.97
103.37
92.25
78.32
63.10
48.36
35.49
25.05
16.78
9.92
3.61
-2.73
-9.14
-15.26
-20.54
-24.58
-27.34
-29.06
-30.18
-31.01
-31.59
-31.75
-31.22
-30.00
-28.40
-27.12
-26.98
-28.60
-32.23
-37.62
-44.24
-51.40
-58.43
-64.62
-69.33
-71.96
-72.16
-69.96
-65.97
-61.29
-57.24
-54.95
-54.97
-57.14
-60.61
-64.17
-66.64
-67.14
-65.38
-61.53
-56.15
-49.84
-43.13
-36.31
-29.49
-22.62
-15.60
-8.32
-0.73
7.08
14.74
21.72
27.37
31.21
33.21
33.80
33.78
33.89
34.52
35.55
36.49
36.76
36.03
34.38
32.19
29.93
27.95
26.38
25.06
23.72
21.99
19.56
16.21
11.91
6.79
1.13
-4.70
-10.35
-15.53
-20.06
-23.87
-26.96
-29.36
-31.13
-32.28
-32.74
-32.36
-30.98
-28.51
-25.07
-21.05
-16.93
-13.21
-10.08
-7.37
-4.66
-1.42
2.61
7.37
12.44
17.22
21.12
23.69
24.72
24.13
22.02
18.59
14.17
9.18
4.06
-0.80
-5.06
-8.43
-10.70
-11.67
-11.36
-10.05
-8.39
-7.24
-7.48
-9.65
-13.68
-18.88
-24.02
-27.75
-28.93
-27.21
-23.14
-18.26
-14.72
-14.62
-19.26
-28.51
-40.58
-52.28
-59.84
-59.96
-50.98
-33.61
-10.98
12.11
30.64
40.80
41.07
32.41
17.60
0.06
-17.16
-31.87
-42.64
-48.49
-48.64
-42.74
-31.18
-15.29
2.84
20.86
36.82
49.46
58.33
63.44
65.04
63.53
59.46
53.61
46.95
40.51
35.16
31.41
29.45
29.06
29.70
30.59
30.86
29.74
26.80
22.06
15.96
9.14
2.16
-4.69
-11.42
-18.29
-25.55
-33.34
-41.43
-49.21
-55.71
-59.83
-60.64
-57.78
-51.64
-43.36
-34.50
-26.62
-20.85
-17.70
-16.99
-18.06
-19.93
-21.57
-22.16
-21.25
-18.90
-15.67
-12.41
-9.91
-8.64
-8.53
-9.17
-10.01
-10.70
-11.24
-11.91
-13.05
-14.79
-16.94
-19.04
-20.50
-20.83
-19.75
-17.15
-13.07
-7.58
-0.82
6.91
15.09
22.98
29.71
34.51
36.90
36.82
34.62
30.99
26.71
22.47
18.71
15.54
12.78
10.10
7.11
3.54
-0.67
-5.28
-9.75
-13.28
-14.94
-13.84
-9.43
-1.79
8.31
19.50
30.13
38.73
44.19
46.04
44.31
39.45
32.21
23.61
14.81
7.00
1.09
-2.41
-3.54
-2.79
-0.89
1.38
3.42
4.81
5.31
4.82
3.22
0.32
-4.11
-10.26
-17.89
-26.18
-33.61
-38.31
-38.63
-33.69
-23.62
-9.29
8.37
28.94
52.70
80.23
111.68
146.18
181.76
215.71
245.26
268.24
283.41
290.57
290.31
283.75
272.06
255.98
235.52
210.05
178.80
141.72
100.18
57.04
16.04
-19.54
-48.08
-70.27
-88.88
-107.91
-131.37
-162.21
-201.57
-248.10
-297.65
-343.39
-376.83
-389.86
-377.52
-340.28
-284.78
-222.18
-164.52
-120.56
-92.98
-78.29
-69.50
-60.27
-47.80
-33.16
-19.00
-6.71
4.86
17.92
32.67
45.08
47.76
33.55
0.00
-48.19
-100.45
-144.65
-171.97
-179.61
-170.34
-149.67
-122.76
-92.86
-61.65
-30.60
-1.76
22.47
40.73
53.78
64.75
77.77
95.65
117.86
140.08
155.67
158.59
146.27
120.96
89.01
58.42
36.12
25.93
28.11
40.20
58.81
81.24
106.30
134.02
164.32
195.51
223.55
242.85
248.27
237.46
212.05
176.98
138.41
101.23
67.70
37.72
10.28
-15.10
-37.83
-56.89
-71.77
-83.28
-93.30
-103.83
-115.93
-128.94
-140.72
-148.44
-149.94
-144.62
-133.75
-120.04
-106.61
-95.90
-89.06
-85.84
-85.06
-85.19
-84.86
-83.17
-79.78
-74.81
-68.85
-62.79
-57.56
-53.98
-52.46
-53.01
-55.29
-58.73
-62.60
-66.08
-68.23
-68.15
-65.34
-59.98
-52.93
-45.44
-38.54
-32.57
-27.03
-20.96
-13.56
-4.71
4.96
14.54
23.46
32.03
41.43
53.20
68.48
87.46
109.10
131.37
151.76
167.96
178.33
182.11
179.45
171.17
158.50
142.85
125.63
108.06
91.11
75.47
61.50
49.28
38.55
28.84
19.65
10.68
1.98
-6.04
-12.79
-17.89
-21.31
-23.51
-25.19
-26.95
-29.00
-31.09
-32.65
-33.09
-32.12
-29.86
-26.77
-23.50
-20.67
-18.77
-18.09
-18.71
-20.55
-23.36
-26.81
-30.62
-34.61
-38.69
-42.84
-46.91
-50.58
-53.34
-54.67
-54.21
-51.85
-47.75
-42.23
-35.68
-28.48
-21.00
-13.68
-6.98
-1.29
3.20
6.62
9.37
12.04
15.19
19.11
23.74
28.63
33.07
36.34
37.91
37.64
35.78
32.94
29.75
26.69
23.92
21.29
18.51
15.38
11.87
8.12
4.35
0.81
-2.16
-4.10
-4.52
-3.16
-0.28
3.19
5.89
6.45
4.07
-1.17
-8.50
-16.85
-25.42
-33.79
-41.85
-49.43
-56.05
-60.92
-63.19
-62.23
-57.90
-50.52
-40.71
-29.16
-16.48
-3.22
10.10
22.87
34.45
44.30
52.15
58.10
62.51
65.82
68.31
69.94
70.38
69.22
66.18
61.25
54.72
47.08
38.87
30.63
22.79
15.62
9.24
3.61
-1.40
-5.85
-9.67
-12.53
-14.02
-13.68
-11.33
-7.13
-1.62
4.32
9.73
13.76
15.84
15.83
13.93
10.71
6.91
3.41
1.01
0.30
1.58
4.75
9.38
14.78
20.16
24.75
28.00
29.60
29.58
28.24
26.08
23.66
21.43
19.62
18.18
16.84
15.20
12.84
9.46
4.97
-0.48
-6.46
-12.35
-17.44
-21.20
-23.37
-24.09
-23.73
-22.80
-21.74
-20.80
-20.10
-19.55
-19.07
-18.48
-17.64
-16.38
-14.72
-12.79
-10.99
-9.79
-9.59
-10.51
-12.30
-14.47
-16.44
-17.85
-18.66
-19.21
-20.05
-21.73
-24.50
-28.23
-32.31
-35.90
-38.15
-38.51
-36.85
-33.48
-28.90
-23.64
-18.10
-12.49
-6.97
-1.72
3.07
7.21
10.59
13.24
15.29
16.90
18.22
19.38
20.42
21.37
22.18
22.81
23.20
23.31
23.15
22.82
22.43
22.14
22.02
22.04
22.05
21.86
21.32
20.43
19.37
18.43
17.81
17.57
17.50
17.26
16.49
14.95
12.57
9.43
5.65
1.41
-3.14
-7.80
-12.31
-16.41
-19.90
-22.69
-24.78
-26.28
-27.32
-27.98
-28.25
-28.04
-27.19
-25.54
-23.03
-19.65
-15.58
-11.06
-6.33
-1.58
3.11
7.68
12.12
16.33
20.25
23.75
26.75
29.16
30.93
32.02
32.42
32.20
31.53
30.59
29.54
28.46
27.36
26.23
25.11
24.05
23.13
22.33
21.57
20.72
19.70
18.46
17.08
15.61
14.10
12.53
10.82
8.91
6.71
4.21
1.48
-1.34
-4.01
-6.32
-8.09
-9.29
-10.06
-10.65
-11.34
-12.39
-13.92
-15.90
-18.11
-20.19
-21.77
-22.51
-22.26
-21.05
-19.04
-16.43
-13.45
-10.32
-7.25
-4.49
-2.30
-0.89
-0.30
-0.35
-0.63
-0.59
0.19
1.91
4.38
7.09
9.34
10.49
10.11
8.16
5.03
1.49
-1.45
-2.80
-1.90
1.36
6.48
12.48
18.18
22.61
25.21
25.91
24.95
22.67
19.34
15.15
10.33
5.20
0.29
-3.87
-6.85
-8.52
-9.09
-9.05
-9.00
-9.41
-10.54
-12.43
-14.99
-18.07
-21.61
-25.50
-29.61
-33.58
-36.94
-39.24
-40.14
-39.64
-38.02
-35.71
-33.18
-30.77
-28.65
-26.90
-25.51
-24.41
-23.45
-22.32
-20.68
-18.27
-14.91
-10.63
-5.56
0.01
5.73
11.05
15.32
17.91
18.53
17.35
15.12
12.97
12.01
13.06
16.41
21.85
28.79
36.44
43.84
50.04
54.21
55.90
55.21
52.75
49.48
46.24
43.53
41.33
39.23
36.65
33.19
28.68
23.23
17.10
10.56
3.77
-3.19
-10.27
-17.39
-24.34
-30.74
-36.07
-39.78
-41.42
-40.65
-37.39
-31.71
-23.90
-14.42
-3.85
7.17
18.02
28.16
37.20
44.97
51.55
57.41
63.27
69.98
78.14
87.91
98.79
109.64
118.97
125.12
126.68
122.74
113.22
99.20
82.98
67.69
56.45
51.27
52.23
57.41
63.63
67.72
67.54
62.50
53.08
40.21
24.58
6.45
-14.04
-36.50
-60.03
-83.42
-105.50
-125.43
-142.72
-157.02
-167.91
-174.80
-177.16
-174.90
-168.69
-160.02
-150.93
-143.48
-139.18
-138.66
-141.45
-146.09
-150.39
-151.86
-148.26
-138.17
-121.60
-100.08
-76.40
-53.70
-34.44
-19.51
-8.21
1.08
9.63
17.38
22.67
22.99
16.23
1.98
-17.90
-39.50
-57.87
-68.49
-68.49
-57.40
-37.09
-11.03
16.80
43.04
65.61
83.78
97.65
107.56
113.53
115.12
111.75
103.18
89.88
73.06
54.45
35.80
18.47
3.19
-9.90
-21.08
-30.73
-39.11
-46.37
-52.62
-58.04
-62.84
-67.13
-70.88
-73.88
-75.98
-77.23
-77.93
-78.38
-78.48
-77.34
-72.97
-62.60
-43.37
-13.35
27.50
76.84
130.25
182.27
227.98
264.26
290.37
307.60
318.60
326.36
333.21
340.11
346.08
348.57
344.36
330.65
306.04
271.66
230.84
187.70
145.63
105.65
66.77
27.20
-14.43
-58.48
-103.53
-146.92
-185.66
-216.91
-239.07
-251.22
-252.91
-244.61
-228.41
-206.97
-183.15
-159.36
-136.76
-116.29
-98.21
-82.43
-64.93
-44.55
-22.90
-3.02
9.62
15.68
16.53
12.94
7.94
3.27
-0.32
-2.10
-1.54
1.30
5.87
10.13
11.90
9.98
4.26
-4.36
-13.94
-22.34
-28.23
-31.15
-32.20
-32.75
-33.59
-34.90
-36.52
-37.99
-38.96
-39.43
-39.52
-39.73
-40.33
-41.10
-41.73
-41.96
-41.60
-40.64
-39.20
-37.32
-35.16
-32.74
-29.91
-26.57
-22.70
-18.48
-14.23
-10.42
-7.35
-5.19
-3.79
-2.68
-1.38
0.40
2.66
5.06
7.12
8.34
8.30
6.75
3.62
-0.92
-6.36
-11.98
-17.03
-20.97
-23.66
-25.40
-26.70
-27.99
-29.43
-30.93
-32.22
-33.09
-33.46
-33.38
-32.91
-32.13
-31.14
-30.08
-29.20
-28.69
-28.63
-28.94
-29.33
-29.43
-28.80
-27.12
-24.16
-19.99
-14.90
-9.38
-4.04
0.64
4.43
7.40
9.80
11.92
13.88
15.62
16.99
17.84
18.17
18.10
17.77
17.32
16.79
16.25
15.72
15.28
15.00
14.92
14.95
14.95
14.81
14.43
13.82
13.01
12.00
10.72
9.02
6.73
3.69
-0.14
-4.68
-9.69
-14.82
-19.69
-24.10
-28.01
-31.62
-35.15
-38.77
-42.34
-45.47
-47.59
-48.19
-46.92
-43.76
-38.96
-32.94
-26.23
-19.32
-12.69
-6.72
-1.57
2.72
6.34
9.53
12.50
15.30
17.80
19.81
21.18
21.89
22.08
21.97
21.70
21.32
20.78
19.99
18.98
17.84
16.72
15.71
14.75
13.71
12.38
10.72
8.79
6.79
4.84
2.95
1.02
-1.11
-3.53
-6.21
-9.04
-11.95
-14.95
-18.07
-21.21
-24.10
-26.23
-27.08
-26.34
-23.99
-20.35
-15.85
-10.91
-5.86
-0.98
3.37
6.77
8.80
9.24
8.17
6.05
3.61
1.58
0.52
0.61
1.65
3.17
4.62
5.54
5.78
5.39
4.62
3.74
2.99
2.46
2.20
2.16
2.21
2.14
1.71
0.70
-0.93
-3.05
-5.40
-7.71
-9.82
-11.76
-13.69
-15.79
-18.18
-20.86
-23.65
-26.27
-28.28
-29.24
-28.75
-26.60
-22.93
-18.13
-12.77
-7.47
-2.69
1.32
4.52
7.02
8.97
10.53
11.80
12.78
13.43
13.70
13.57
13.14
12.52
11.81
11.05
10.18
9.14
7.97
6.81
5.88
5.32
5.06
4.87
4.45
3.56
2.15
0.33
-1.69
-3.77
-5.87
-8.04
-10.41
-13.07
-16.05
-19.30
-22.72
-26.15
-29.35
-31.93
-33.52
-33.69
-32.16
-28.95
-24.31
-18.75
-12.84
-7.07
-1.72
3.13
7.47
11.30
14.54
17.08
18.84
19.88
20.44
20.79
21.09
21.34
21.32
20.82
19.68
18.00
16.02
14.08
12.42
11.14
10.18
9.37
8.57
7.68
6.60
5.29
3.66
1.69
-0.64
-3.24
-6.04
-8.98
-12.12
-15.57
-19.41
-23.66
-28.18
-32.65
-36.66
-39.72
-41.39
-41.31
-39.28
-35.35
-29.87
-23.42
-16.69
-10.29
-4.59
0.34
4.65
8.54
12.09
15.23
17.85
19.84
21.25
22.29
23.17
24.03
24.84
25.45
25.65
25.27
24.32
22.94
21.34
19.71
18.15
16.65
15.13
13.44
11.50
9.30
6.88
4.31
1.66
-1.05
-3.82
-6.65
-9.57
-12.66
-16.04
-19.88
-24.30
-29.23
-34.32
-38.91
-42.17
-43.31
-41.89
-37.93
-31.99
-24.94
-17.70
-10.97
-5.11
-0.15
4.02
7.57
10.57
13.02
14.93
16.36
17.40
18.17
18.70
18.97
18.91
18.46
17.64
16.46
15.06
13.54
12.01
10.59
9.34
8.23
7.16
5.97
4.49
2.62
0.41
-2.04
-4.57
-7.05
-9.42
-11.64
-13.70
-15.61
-17.42
-19.27
-21.36
-23.85
-26.69
-29.57
-31.81
-32.57
-31.09
-26.96
-20.27
-11.63
-1.86
8.13
17.70
26.52
34.58
42.03
49.10
55.89
62.33
68.19
73.14
76.82
78.96
79.42
78.20
75.45
71.50
66.75
61.68
56.71
52.12
47.95
44.01
39.97
35.53
30.45
24.69
18.37
11.65
4.68
-2.37
-9.31
-15.91
-21.95
-27.26
-31.83
-35.84
-39.73
-43.96
-48.91
-54.69
-61.14
-67.77
-73.97
-79.01
-82.15
-82.76
-80.46
-75.25
-67.57
-58.27
-48.32
-38.57
-29.53
-21.33
-13.81
-6.77
-0.13
6.06
11.61
16.42
20.39
23.58
26.07
28.00
29.50
30.76
31.94
33.16
34.41
35.58
36.56
37.23
37.47
37.26
36.62
35.63
34.40
33.08
31.80
30.52
29.11
27.27
24.75
21.51
17.76
13.92
10.42
7.48
5.06
2.92
0.80
-1.54
-4.17
-7.11
-10.29
-13.55
-16.58
-18.84
-19.68
-18.42
-14.59
-8.06
0.86
11.58
23.21
34.81
45.32
53.66
58.88
60.34
57.98
52.46
45.16
38.03
33.09
31.97
35.45
43.19
53.77
65.09
74.96
81.92
85.83
87.88
89.94
93.43
98.32
103.01
105.03
102.36
94.57
82.88
69.37
55.56
41.45
25.66
6.76
-15.30
-38.68
-60.32
-77.59
-89.97
-99.61
-110.46
-126.10
-147.63
-173.21
-199.24
-222.23
-240.07
-252.03
-257.53
-255.39
-244.01
-222.38
-191.66
-155.77
-119.90
-87.81
-59.73
-32.53
-2.47
31.60
66.94
97.83
118.36
125.47
120.77
109.74
100.78
100.35
108.71
121.35
133.08
141.11
145.76
149.16
153.29
158.65
163.96
166.82
165.96
161.65
155.73
150.60
148.14
149.01
152.53
156.98
159.91
159.98
157.24
152.81
147.91
143.08
137.50
128.70
117.16
101.91
82.71
60.46
36.87
13.75
-7.70
-27.30
-45.77
-64.30
-84.42
-106.62
-130.27
-153.93
-176.13
-196.00
-213.69
-230.25
-247.26
-266.85
-290.49
-318.66
-350.46
-383.46
-413.82
-436.88
-448.33
-445.50
-428.61
-400.56
-365.93
-329.33
-293.97
-261.18
-230.94
-203.07
-177.92
-156.49
-139.50
-126.60
-116.12
-105.80
-93.90
-80.07
-65.53
-52.56
-43.85
-41.64
-46.94
-59.00
-74.96
-90.26
-99.92
-100.31
-90.48
-72.45
-49.88
-25.88
-1.40
25.00
56.01
93.68
138.04
186.62
235.16
278.83
313.56
336.83
348.14
348.87
341.60
329.11
313.58
296.27
277.81
258.74
240.03
222.87
208.12
195.72
184.61
173.25
160.36
145.31
128.21
109.55
90.13
70.97
53.36
38.60
27.45
19.54
13.44
7.11
-0.95
-11.10
-22.35
-33.19
-42.46
-49.95
-56.31
-62.39
-68.64
-74.85
-80.45
-84.96
-88.24
-90.43
-91.56
-91.40
-89.49
-85.46
-79.34
-71.60
-62.97
-54.24
-45.91
-38.06
-30.46
-22.81
-14.93
-7.04
0.27
6.26
10.40
12.55
13.28
13.64
14.99
18.69
25.56
35.64
47.58
58.66
65.26
64.16
53.84
35.21
11.17
-14.87
-40.62
-65.46
-89.86
-113.70
-135.06
-150.35
-155.97
-150.61
-136.42
-118.43
-102.11
-90.58
-83.04
-75.20
-61.51
-37.54
-1.79
43.74
94.18
143.05
183.71
210.66
220.72
213.69
192.63
162.68
129.41
97.45
69.98
48.84
35.18
30.15
35.04
51.36
79.67
118.35
163.15
207.82
245.72
271.48
282.73
280.25
267.53
248.15
223.30
191.56
150.67
100.06
42.98
-13.18
-58.39
-81.19
-74.68
-40.88
8.58
56.31
85.17
83.37
47.15
-19.34
-102.28
-186.28
-260.00
-318.00
-358.10
-378.86
-379.56
-361.48
-328.56
-279.84
-215.53
-140.17
-62.62
8.71
69.65
120.79
165.55
208.50
262.58
338.02
435.99
548.43
664.68
777.15
881.54
974.37
997.29
911.46
724.69
491.55
271.86
98.20
-24.36
-105.50
-158.85
-195.62
-213.60
-209.84
-187.31
-157.33
-133.51
-124.63
-132.63
-154.50
-185.18
-214.22
-229.47
-229.32
-221.69
-217.91
-226.78
-252.33
-293.61
-344.56
-390.32
-414.25
-405.58
-363.60
-297.21
-220.93
-149.88
-94.80
-58.91
-36.40
-18.25
0.93
20.48
35.39
40.18
31.62
9.48
-24.22
-65.46
-109.22
-149.68
-179.97
-192.72
-182.28
-147.71
-94.20
-32.36
24.71
65.23
81.70
72.58
42.03
-1.78
-48.91
-89.93
-117.92
-129.72
-126.22
-111.80
-92.59
-74.61
-62.32
-57.52
-59.37
-65.04
-70.90
-73.68
-71.45
-64.15
-53.36
-41.58
-31.29
-24.15
-20.59
-19.91
-20.78
-21.73
-21.67
-20.09
-17.04
-12.97
-8.54
-4.47
-1.35
0.50
1.17
1.16
1.34
2.67
5.96
11.55
19.06
27.36
34.58
38.51
37.19
29.62
16.23
-0.84
-18.31
-32.62
-41.00
-42.22
-36.76
-26.46
-13.72
-0.88
10.25
18.48
23.18
24.16
21.68
16.43
9.46
2.04
-4.69
-10.02
-13.89
-16.94
-20.22
-24.74
-30.98
-38.56
-46.40
-53.04
-57.26
-58.46
-56.76
-52.75
-47.10
-40.26
-32.40
-23.59
-13.98
-4.02
5.62
14.26
21.42
26.94
31.03
34.09
36.49
38.49
40.21
41.71
43.09
44.45
45.89
47.34
48.49
48.86
47.97
45.59
41.82
37.13
32.12
27.33
23.14
19.65
16.87
14.78
13.36
12.65
12.63
13.25
14.34
15.67
16.83
17.34
16.62
14.23
9.99
4.21
-2.36
-8.66
-13.62
-16.39
-16.64
-14.47
-10.38
-5.07
0.69
6.27
11.21
15.37
18.84
21.97
25.06
28.28
31.51
34.30
36.07
36.27
34.67
31.43
27.12
22.60
18.70
16.05
14.88
15.01
15.92
17.00
17.74
17.82
17.17
15.83
13.86
11.32
8.27
4.91
1.48
-1.75
-4.64
-7.24
-9.78
-12.52
-15.61
-18.97
-22.38
-25.56
-28.32
-30.62
-32.60
-34.42
-36.27
-38.27
-40.46
-42.73
-44.82
-46.27
-46.51
-45.03
-41.58
-36.41
-30.17
-23.73
-17.87
-13.02
-9.14
-5.95
-3.12
-0.44
2.09
4.46
6.71
9.02
11.60
14.52
17.64
20.60
23.00
24.52
25.08
24.82
23.98
22.84
21.52
20.07
18.52
16.96
15.53
14.38
13.52
12.81
12.02
10.93
9.52
7.94
6.44
5.10
3.84
2.38
0.44
-2.03
-4.87
-7.76
-10.40
-12.68
-14.71
-16.61
-18.47
-20.25
-21.85
-23.30
-24.72
-26.31
-28.13
-29.99
-31.42
-31.89
-31.06
-28.92
-25.77
-22.04
-18.04
-13.83
-9.30
-4.34
0.99
6.39
11.37
15.46
18.40
20.17
20.93
20.96
20.51
19.74
18.72
17.52
16.19
14.83
13.55
12.43
11.45
10.56
9.66
8.62
7.40
5.90
4.11
2.05
-0.20
-2.43
-4.39
-5.79
-6.49
-6.59
-6.44
-6.57
-7.40
-9.11
-11.48
-14.05
-16.25
-17.80
-18.76
-19.54
-20.67
-22.62
-25.64
-29.67
-34.37
-39.02
-42.61
-43.86
-41.66
-35.35
-25.10
-11.96
2.46
16.42
28.52
37.91
44.26
47.61
48.20
46.41
42.72
37.68
31.91
26.14
21.27
18.43
18.90
23.75
33.44
47.46
64.40
82.12
98.42
111.44
119.97
123.56
122.33
116.92
108.27
97.51
85.78
74.00
62.72
52.04
41.69
31.18
20.06
7.98
-5.08
-18.78
-32.40
-44.94
-55.38
-62.98
-67.51
-69.40
-69.53
-68.97
-68.64
-69.14
-70.70
-73.24
-76.54
-80.20
-83.64
-86.10
-86.76
-85.00
-80.60
-73.92
-65.70
-56.91
-48.37
-40.55
-33.62
-27.53
-22.21
-17.67
-13.97
-11.18
-9.30
-8.22
-7.68
-7.39
-6.97
-6.11
-4.62
-2.50
0.03
2.70
5.16
7.21
8.74
9.81
10.56
11.18
11.90
12.95
14.45
16.31
18.24
19.75
20.39
19.98
18.62
16.65
14.39
12.09
9.72
7.23
4.58
1.85
-0.79
-3.22
-5.47
-7.70
-10.19
-13.20
-16.86
-21.09
-25.52
-29.52
-32.36
-33.37
-32.25
-29.19
-24.82
-20.05
-15.70
-12.27
-9.87
-8.23
-6.96
-5.69
-4.22
-2.49
-0.66
1.01
2.22
2.73
2.51
1.77
0.96
0.63
1.22
2.93
5.67
9.15
12.89
16.44
19.39
21.46
22.53
22.62
21.93
20.81
19.73
19.05
18.94
19.27
19.69
19.74
19.09
17.63
15.55
13.23
11.08
9.39
8.22
7.34
6.39
4.96
2.75
-0.37
-4.35
-8.89
-13.50
-17.54
-20.26
-21.00
-19.37
-15.39
-9.59
-2.82
3.96
9.98
14.88
18.67
21.54
23.69
25.20
25.98
25.95
25.18
23.87
22.29
20.68
19.14
17.63
16.13
14.65
13.37
12.46
12.04
11.98
11.99
11.64
10.62
8.83
6.44
3.87
1.52
-0.30
-1.50
-2.27
-2.96
-3.98
-5.66
-8.07
-11.00
-14.05
-16.75
-18.84
-20.28
-21.27
-22.15
-23.25
-24.82
-27.02
-29.89
-33.30
-36.86
-39.93
-41.74
-41.63
-39.32
-35.09
-29.68
-24.01
-18.84
-14.50
-10.93
-7.83
-4.89
-2.01
0.73
3.15
5.16
6.85
8.45
10.20
12.15
14.10
15.67
16.51
16.55
16.09
15.70
15.96
17.13
19.05
21.16
22.78
23.47
23.11
21.96
20.47
19.03
17.83
16.85
15.91
14.77
13.26
11.25
8.73
5.69
2.29
-1.25
-4.67
-7.78
-10.51
-13.07
-15.81
-19.08
-23.08
-27.68
-32.43
-36.70
-39.86
-41.41
-41.13
-39.08
-35.57
-31.06
-26.10
-21.17
-16.58
-12.41
-8.51
-4.64
-0.53
3.94
8.73
13.61
18.23
22.25
25.43
27.74
29.29
30.33
31.12
31.90
32.84
34.01
35.44
37.06
38.69
40.01
40.64
40.25
38.76
36.39
33.64
31.04
28.87
27.06
25.18
22.73
19.48
15.58
11.59
8.14
5.66
4.16
3.24
2.30
0.78
-1.71
-5.30
-9.84
-14.95
-19.95
-23.98
-26.15
-25.84
-22.92
-17.84
-11.47
-4.77
1.54
7.13
12.01
16.31
20.06
23.13
25.28
26.31
26.18
25.09
23.40
21.52
19.75
18.23
16.88
15.49
13.87
11.99
10.00
8.22
6.91
6.22
5.98
5.80
5.20
3.79
1.49
-1.40
-4.30
-6.52
-7.61
-7.46
-6.37
-4.95
-3.90
-3.77
-4.81
-6.98
-10.04
-13.71
-17.91
-22.64
-28.01
-34.04
-40.54
-46.99
-52.73
-56.97
-59.02
-58.49
-55.29
-49.73
-42.42
-34.11
-25.58
-17.49
-10.26
-4.08
1.08
5.36
8.96
12.10
14.98
17.77
20.57
23.35
25.97
28.18
29.74
30.51
30.56
30.13
29.56
29.12
28.95
29.05
29.25
29.37
29.20
28.61
27.53
26.00
24.13
22.09
20.04
18.10
16.26
14.38
12.31
9.93
7.26
4.41
1.55
-1.19
-3.62
-5.64
-7.20
-8.38
-9.47
-10.94
-13.29
-16.75
-21.10
-25.60
-29.19
-30.91
-30.24
-27.33
-22.83
-17.56
-12.12
-6.74
-1.36
4.10
9.56
14.72
19.11
22.39
24.39
25.17
24.90
23.81
22.09
19.96
17.63
15.35
13.38
11.97
11.37
11.78
13.31
15.87
19.15
22.68
25.89
28.37
29.97
30.79
31.05
30.97
30.62
29.83
28.29
25.78
22.26
18.03
13.61
9.61
6.46
4.25
2.76
1.55
0.16
-1.72
-4.31
-7.71
-11.99
-17.05
-22.52
-27.69
-31.60
-33.38
-32.54
-29.27
-24.26
-18.42
-12.52
-6.90
-1.60
3.46
8.27
12.55
15.95
18.14
19.02
18.73
17.65
16.18
14.67
13.36
12.30
11.47
10.75
10.03
9.23
8.34
7.31
6.04
4.33
1.96
-1.19
-4.99
-9.08
-12.86
-15.81
-17.58
-18.29
-18.40
-18.58
-19.44
-21.28
-23.98
-27.15
-30.27
-32.92
-34.87
-36.14
-36.88
-37.42
-38.17
-39.50
-41.58
-44.22
-46.84
-48.63
-48.81
-47.02
-43.38
-38.44
-32.87
-27.21
-21.74
-16.52
-11.51
-6.66
-1.98
2.50
6.77
10.75
14.39
17.56
20.19
22.30
23.96
25.27
26.29
27.01
27.46
27.70
27.92
28.28
28.82
29.42
29.81
29.69
28.85
27.27
25.07
22.45
19.59
16.60
13.52
10.40
7.32
4.38
1.64
-0.88
-3.30
-5.77
-8.33
-10.89
-13.12
-14.66
-15.21
-14.79
-13.74
-12.60
-11.91
-11.95
-12.63
-13.50
-13.90
-13.17
-10.91
-7.13
-2.38
2.49
6.57
9.33
10.93
12.18
14.36
18.72
26.02
36.16
48.21
60.59
71.53
79.45
83.36
83.07
79.23
73.11
66.19
59.69
54.13
49.28
44.34
38.44
31.08
22.32
12.77
3.30
-5.34
-12.65
-18.48
-22.85
-25.94
-27.97
-29.34
-30.58
-32.32
-35.12
-39.23
-44.45
-50.14
-55.42
-59.42
-61.65
-62.08
-61.26
-60.14
-59.78
-61.06
-64.32
-69.28
-74.94
-79.92
-82.85
-82.83
-79.66
-73.78
-66.00
-57.17
-47.87
-38.45
-29.10
-20.09
-11.76
-4.46
1.59
6.43
10.32
13.62
16.61
19.41
21.93
23.99
25.41
26.08
26.03
25.48
24.74
24.22
24.18
24.69
25.60
26.54
27.13
27.13
26.46
25.21
23.51
21.44
19.04
16.32
13.37
10.35
7.42
4.67
2.09
-0.41
-2.82
-4.99
-6.59
-7.29
-6.89
-5.49
-3.46
-1.37
0.22
0.95
0.74
-0.16
-1.18
-1.66
-0.96
1.27
4.96
9.71
14.84
19.81
24.24
28.11
31.49
34.51
37.13
39.14
40.30
40.41
39.36
37.20
34.10
30.41
26.61
23.23
20.81
19.74
20.07
21.50
23.48
25.30
26.37
26.35
25.25
23.32
21.01
18.68
16.50
14.42
12.25
9.73
6.70
3.13
-0.96
-5.51
-10.46
-15.67
-20.92
-25.90
-30.33
-34.12
-37.40
-40.54
-43.96
-47.85
-52.07
-56.06
-59.11
-60.61
-60.31
-58.36
-55.15
-51.08
-46.34
-40.97
-35.03
-28.75
-22.67
-17.39
-13.35
-10.59
-8.64
-6.86
-4.66
-1.84
1.45
4.92
8.28
11.37
14.04
16.12
17.28
17.31
16.21
14.40
12.59
11.49
11.50
12.55
14.21
15.95
17.45
18.70
19.85
21.01
21.97
22.25
21.27
18.61
14.33
8.94
3.31
-1.67
-5.45
-7.95
-9.50
-10.65
-12.00
-13.97
-16.85
-20.70
-25.35
-30.38
-35.09
-38.69
-40.43
-39.92
-37.12
-32.38
-26.25
-19.30
-12.11
-5.18
1.01
6.14
10.08
12.92
14.91
16.36
17.49
18.39
19.08
19.48
19.46
18.87
17.59
15.62
13.26
11.05
9.60
9.33
10.24
11.92
13.81
15.40
16.53
17.28
17.83
18.28
18.54
18.35
17.44
15.66
13.00
9.67
6.02
2.50
-0.44
-2.53
-3.83
-4.77
-5.99
-8.13
-11.42
-15.63
-20.01
-23.63
-25.68
-25.75
-23.94
-20.76
-16.87
-12.79
-8.75
-4.76
-0.69
3.43
7.41
10.91
13.62
15.43
16.41
16.75
16.60
16.00
14.91
13.38
11.60
9.89
8.56
7.74
7.30
6.97
6.53
5.94
5.35
5.01
5.03
5.29
5.45
5.10
3.94
1.85
-1.09
-4.69
-8.76
-13.08
-17.38
-21.27
-24.29
-26.05
-26.44
-25.76
-24.76
-24.35
-25.34
-27.98
-31.88
-36.02
-39.16
-40.26
-38.81
-34.99
-29.51
-23.22
-16.90
-10.97
-5.59
-0.70
3.74
7.66
10.92
13.44
15.14
16.10
16.39
16.11
15.40
14.43
13.45
12.68
12.27
12.26
12.46
12.69
12.78
12.70
12.49
12.17
11.70
10.95
9.83
8.34
6.59
4.75
2.91
1.06
-0.90
-3.08
-5.52
-8.13
-10.73
-13.09
-15.04
-16.50
-17.60
-18.59
-19.84
-21.64
-24.13
-27.16
-30.25
-32.73
-33.90
-33.21
-30.43
-25.67
-19.39
-12.29
-5.14
1.35
6.72
10.84
13.88
16.19
18.12
19.89
21.52
22.82
23.54
23.44
22.43
20.60
18.23
15.79
13.83
12.87
13.23
14.92
17.63
20.85
24.02
26.70
28.65
29.85
30.43
30.54
30.31
29.72
28.58
26.66
23.73
19.79
15.08
10.06
5.26
1.13
-2.03
-4.13
-5.27
-5.77
-6.13
-7.01
-9.01
-12.45
-17.04
-21.91
-25.87
-27.76
-26.95
-23.51
-18.15
-11.79
-5.32
0.73
6.16
10.93
14.99
18.22
20.42
21.52
21.63
21.08
20.23
19.32
18.35
17.14
15.51
13.50
11.35
9.46
8.15
7.50
7.32
7.32
7.21
6.90
6.42
5.81
4.97
3.72
1.82
-0.85
-4.25
-8.20
-12.46
-16.75
-20.82
-24.45
-27.46
-29.72
-31.30
-32.36
-33.28
-34.44
-36.21
-38.77
-42.04
-45.61
-48.85
-50.97
-51.30
-49.44
-45.44
-39.69
-32.85
-25.55
-18.30
-11.45
-5.24
0.17
4.69
8.35
11.31
13.80
16.00
17.97
19.64
20.94
21.86
22.55
23.15
23.77
24.38
24.91
25.31
25.58
25.78
25.88
25.72
25.02
23.57
21.38
18.66
15.81
13.17
10.88
8.84
6.79
4.53
1.95
-0.86
-3.70
-6.37
-8.81
-11.08
-13.43
-16.13
-19.31
-22.93
-26.63
-29.85
-31.97
-32.45
-30.91
-27.28
-21.80
-15.04
-7.77
-0.81
5.30
10.45
14.92
19.20
23.50
27.58
30.69
32.10
31.53
29.66
27.93
28.04
31.14
37.20
44.91
52.07
56.33
56.00
50.49
40.46
27.56
13.94
1.70
-7.59
-13.21
-15.35
-14.95
-13.32
-11.73
-11.02
-11.48
-12.92
-14.81
-16.63
-17.92
-18.46
-18.22
-17.34
-16.11
-14.85
-13.91
-13.56
-13.95
-15.15
-17.09
-19.60
-22.44
-25.30
-27.81
-29.60
-30.38
-29.94
-28.22
-25.19
-20.88
-15.35
-8.72
-1.23
6.60
14.12
20.65
25.59
28.74
30.21
30.43
29.89
29.03
28.12
27.28
26.67
26.42
26.74
27.75
29.36
31.31
33.19
34.58
35.20
34.92
33.74
31.72
28.91
25.39
21.32
16.97
12.67
8.75
5.41
2.67
0.42
-1.54
-3.43
-5.43
-7.74
-10.57
-14.07
-18.37
-23.47
-29.20
-35.16
-40.78
-45.32
-48.08
-48.55
-46.59
-42.49
-36.90
-30.58
-24.17
-18.03
-12.29
-6.98
-2.18
1.91
5.07
7.17
8.32
8.81
9.03
9.25
9.60
9.99
10.35
10.65
10.92
11.24
11.58
11.81
11.68
11.00
9.65
7.74
5.44
2.98
0.56
-1.76
-3.91
-5.91
-7.78
-9.62
-11.55
-13.70
-16.13
-18.73
-21.30
-23.55
-25.34
-26.75
-28.14
-30.04
-32.94
-36.98
-41.81
-46.61
-50.32
-51.97
-51.04
-47.59
-42.17
-35.52
-28.36
-21.15
-14.18
-7.58
-1.47
4.06
8.95
13.22
16.95
20.16
22.75
24.51
25.31
25.12
24.22
23.04
22.05
21.53
21.56
22.00
22.68
23.41
24.08
24.52
24.51
23.81
22.30
20.08
17.43
14.77
12.37
10.26
8.22
5.91
3.11
-0.21
-3.85
-7.46
-10.74
-13.51
-15.81
-17.80
-19.81
-22.18
-25.20
-28.96
-33.17
-37.21
-40.18
-41.22
-39.77
-35.78
-29.73
-22.50
-15.00
-7.97
-1.75
3.66
8.45
12.80
16.76
20.18
22.86
24.61
25.38
25.25
24.42
23.10
21.49
19.75
18.09
16.71
15.84
15.70
16.43
17.95
20.02
22.14
23.73
24.27
23.46
21.38
18.47
15.35
12.63
10.67
9.51
8.83
8.17
7.05
5.26
2.86
0.20
-2.30
-4.39
-6.14
-7.99
-10.60
-14.58
-20.15
-27.00
-34.27
-40.66
-44.71
-45.15
-41.34
-33.52
-22.85
-11.11
-0.20
8.42
14.02
16.60
16.61
14.62
11.14
6.69
1.91
-2.38
-5.37
-6.55
-5.89
-3.86
-1.21
1.33
3.15
3.81
3.03
0.67
-3.04
-7.37
-11.21
-13.33
-12.97
-10.18
-5.85
-1.18
2.88
6.03
8.54
10.83
13.09
15.16
16.73
17.82
18.81
20.30
22.60
25.43
27.93
29.19
28.72
26.77
24.20
22.08
21.33
22.48
25.74
31.14
38.51
47.41
57.06
66.48
74.70
81.16
85.97
89.80
93.58
98.01
103.33
109.16
114.77
119.38
122.38
123.41
122.31
119.07
113.84
107.03
99.28
91.36
83.94
77.26
71.10
64.93
58.18
50.38
41.08
29.76
15.86
-1.01
-20.37
-40.67
-59.47
-74.38
-84.02
-88.69
-90.36
-91.97
-96.61
-106.58
-123.14
-146.48
-175.71
-208.49
-240.48
-265.37
-275.86
-265.95
-232.84
-178.18
-107.94
-30.78
44.49
111.20
165.66
206.69
233.53
245.99
244.66
231.52
210.13
185.26
161.62
142.21
127.22
112.14
91.49
61.35
21.07
-26.77
-77.27
-124.27
-161.92
-185.65
-195.95
-195.24
-186.96
-175.28
-164.81
-159.87
-163.18
-175.02
-193.65
-219.76
-252.15
-286.69
-317.13
-338.01
-347.54
-348.85
-348.74
-332.20
-293.01
-233.55
-162.64
-89.02
-19.10
41.41
87.55
117.36
133.36
137.87
134.74
127.58
118.55
108.35
97.04
85.40
75.19
68.33
63.31
58.17
51.48
42.99
33.29
23.28
14.25
7.69
4.82
4.35
4.61
4.29
2.64
-0.29
-4.24
-8.68
-12.91
-16.37
-19.76
-24.07
-30.11
-38.33
-48.19
-58.97
-69.71
-79.42
-87.38
-93.66
-98.84
-103.68
-108.88
-114.10
-118.71
-121.77
-122.18
-119.06
-111.85
-100.30
-83.87
-65.98
-47.66
-28.81
-8.56
14.23
40.24
69.20
99.84
130.21
158.42
184.07
207.73
230.79
254.93
281.24
309.75
339.11
366.85
389.63
404.31
407.79
397.74
373.33
335.61
287.43
232.83
175.83
119.40
65.49
15.04
-31.15
-71.77
-105.07
-129.69
-145.44
-153.73
-157.15
-158.28
-158.63
-157.76
-153.20
-141.14
-118.11
-83.14
-39.43
5.47
41.76
61.03
59.87
41.60
14.76
-10.91
-28.96
-38.60
-43.87
-50.29
-61.19
-75.67
-89.29
-96.58
-93.79
-80.28
-58.50
-32.62
-7.06
14.72
30.70
40.41
44.64
44.93
43.04
40.36
37.64
34.89
31.79
28.04
23.68
19.14
14.95
11.25
7.67
3.51
-2.01
-9.36
-18.51
-28.94
-39.99
-51.15
-62.06
-72.48
-81.93
-89.67
-94.94
-97.52
-98.30
-99.36
-103.46
-112.67
-127.01
-143.54
-156.71
-159.70
-146.50
-113.80
-62.20
3.70
76.17
146.08
204.90
246.74
269.81
276.53
272.36
263.77
255.97
251.45
249.81
248.62
244.80
235.64
219.48
195.76
165.17
129.55
91.80
55.26
22.89
-3.60
-24.26
-40.35
-53.27
-63.31
-69.30
-69.37
-62.57
-50.13
-35.51
-23.27
-17.30
-19.54
-29.57
-45.24
-63.72
-82.30
-98.79
-111.60
-119.77
-123.09
-122.11
-117.88
-111.45
-103.49
-94.27
-84.18
-74.12
-65.52
-59.65
-56.78
-55.90
-55.26
-53.52
-50.51
-47.15
-44.56
-43.08
-41.73
-38.92
-33.55
-26.02
-18.17
-12.29
-9.68
-9.90
-11.01
-10.76
-7.90
-2.81
2.96
7.60
10.00
10.09
8.72
7.07
6.18
6.63
8.46
11.41
15.00
18.67
21.94
24.53
26.63
29.03
32.95
39.39
48.45
58.80
67.93
73.21
73.17
68.27
60.84
53.99
50.24
50.84
55.64
63.52
72.62
80.45
83.97
80.45
68.80
50.88
31.49
16.80
11.71
17.54
31.59
48.58
63.29
72.66
76.41
76.00
72.99
67.95
60.43
49.88
36.53
21.65
6.93
-6.42
-18.30
-29.75
-42.17
-56.41
-72.20
-88.19
-102.47
-113.43
-120.31
-123.31
-123.33
-121.44
-118.59
-115.37
-112.08
-108.79
-105.51
-102.26
-99.18
-96.41
-93.87
-91.11
-87.37
-81.95
-74.80
-66.69
-59.01
-53.18
-50.09
-49.84
-52.06
-56.32
-62.31
-69.73
-77.89
-85.59
-91.41
-94.32
-94.10
-91.22
-86.31
-79.53
-70.37
-58.01
-41.82
-21.68
2.14
29.28
59.42
92.06
126.13
159.78
190.42
215.27
231.82
238.33
233.95
218.89
194.60
163.78
130.20
97.95
70.48
49.58
35.06
25.06
17.04
8.74
-1.19
-13.04
-26.34
-40.34
-54.34
-67.85
-80.57
-92.32
-102.94
-112.18
-119.70
-125.16
-128.33
-129.32
-128.73
-127.59
-127.03
-127.74
-129.77
-132.53
-135.29
-137.57
-139.31
-140.77
-142.42
-144.67
-147.84
-151.80
-155.59
-157.05
-152.81
-138.83
-111.49
-68.80
-11.39
57.01
130.02
199.72
258.49
300.68
324.05
330.11
323.35
309.44
293.25
277.49
262.58
247.55
231.23
212.95
192.61
170.26
145.87
119.44
91.54
63.54
37.41
15.12
-2.12
-14.28
-22.45
-28.38
-33.76
-39.67
-46.38
-53.48
-60.25
-66.03
-70.50
-73.69
-75.85
-77.23
-77.97
-78.01
-77.13
-75.12
-71.89
-67.60
-62.64
-57.51
-52.63
-48.24
-44.33
-40.73
-37.21
-33.64
-30.03
-26.51
-23.25
-20.36
-17.84
-15.60
-13.50
-11.44
-9.38
-7.35
-5.44
-3.77
-2.43
-1.51
-1.01
-0.86
-0.93
-1.13
-1.41
-1.80
-2.39
-3.26
-4.40
-5.73
-7.10
-8.44
-9.75
-11.11
-12.66
-14.52
-16.71
-19.23
-21.98
-24.80
-27.45
-29.61
-30.93
-31.14
-30.09
-27.86
-24.73
-21.07
-17.26
-13.56
-10.10
-6.88
-3.81
-0.75
2.46
6.06
10.38
15.89
23.07
32.37
43.99
57.86
73.72
91.17
109.72
128.78
147.56
165.07
180.31
192.42
201.02
206.17
208.15
207.16
203.07
195.58
184.64
170.99
156.31
142.94
133.11
128.31
128.81
133.81
141.95
151.79
162.20
172.37
181.71
189.63
195.60
199.10
199.81
197.58
192.41
184.41
173.63
160.08
143.61
124.19
102.04
77.78
52.41
27.03
2.36
-21.53
-45.11
-69.06
-93.64
-118.39
-142.38
-164.73
-185.25
-204.57
-223.67
-243.03
-261.80
-277.51
-286.59
-285.47
-272.13
-247.53
-216.09
-184.92
-161.67
-151.86
-156.72
-172.75
-193.24
-211.14
-221.71
-223.75
-219.04
-210.42
-200.00
-188.40
-175.35
-160.89
-146.09
-132.91
-123.18
-117.51
-114.90
-113.11
-109.75
-103.26
-93.59
-81.90
-69.99
-59.27
-50.25
-42.33
-34.29
-25.00
-14.04
-1.99
9.88
20.11
27.59
31.96
33.58
33.18
31.57
29.35
26.84
24.21
21.57
19.03
16.72
14.66
12.80
11.01
9.12
7.03
4.74
2.29
-0.22
-2.70
-5.09
-7.39
-9.60
-11.81
-14.14
-16.75
-19.78
-23.31
-27.22
-31.18
-34.68
-37.13
-38.05
-37.22
-34.77
-31.13
-26.88
-22.57
-18.54
-14.89
-11.56
-8.40
-5.35
-2.41
0.32
2.78
4.91
6.68
8.10
9.18
9.93
10.46
10.92
11.50
12.29
13.24
14.12
14.73
14.90
14.65
14.09
13.39
12.61
11.74
10.67
9.34
7.73
5.90
3.90
1.72
-0.66
-3.25
-5.99
-8.71
-11.22
-13.45
-15.47
-17.54
-20.00
-23.09
-26.80
-30.78
-34.41
-36.95
-37.80
-36.66
-33.64
-29.15
-23.83
-18.28
-12.98
-8.20
-3.96
-0.15
3.44
6.94
10.40
13.72
16.77
19.42
21.64
23.50
25.08
26.42
27.45
28.10
28.34
28.28
28.16
28.19
28.48
28.92
29.28
29.30
28.85
27.97
26.78
25.46
24.08
22.60
20.92
18.93
16.60
14.02
11.31
8.59
5.87
3.09
0.12
-3.07
-6.41
-9.79
-13.11
-16.40
-19.84
-23.55
-27.47
-31.20
-34.09
-35.45
-34.79
-32.06
-27.65
-22.20
-16.40
-10.72
-5.44
-0.57
3.96
8.22
12.22
15.83
18.97
21.51
23.45
24.87
25.88
26.63
27.20
27.63
27.90
28.02
28.03
28.00
28.01
28.09
28.24
28.31
28.16
27.65
26.72
25.39
23.77
22.01
20.18
18.29
16.24
13.98
11.46
8.77
6.02
3.31
0.73
-1.69
-3.94
-6.02
-7.96
-9.86
-11.86
-14.16
-16.90
-20.09
-23.55
-26.92
-29.68
-31.31
-31.42
-29.83
-26.62
-22.04
-16.44
-10.22
-3.78
2.49
8.25
13.25
17.39
20.79
23.73
26.51
29.28
31.99
34.40
36.24
37.39
37.91
37.96
37.78
37.51
37.21
36.84
36.40
35.89
35.33
34.73
34.04
33.13
31.87
30.14
27.87
25.12
22.00
18.68
15.34
12.08
8.93
5.79
2.56
-0.85
-4.41
-8.01
-11.47
-14.64
-17.42
-19.87
-22.11
-24.39
-26.93
-29.94
-33.47
-37.40
-41.32
-44.58
-46.50
-46.48
-44.33
-40.27
-34.90
-28.97
-23.19
-18.04
-13.72
-10.23
-7.44
-5.16
-3.17
-1.28
0.61
2.53
4.36
5.95
7.16
7.98
8.50
8.91
9.43
10.23
11.42
12.99
14.91
17.14
19.57
22.09
24.54
26.81
28.81
30.59
32.26
33.93
35.61
37.15
38.26
38.61
38.03
36.53
34.32
31.66
28.76
25.70
22.50
19.15
15.66
12.03
8.25
4.19
-0.31
-5.37
-10.96
-16.78
-22.32
-26.88
-29.85
-30.78
-29.59
-26.54
-22.11
-16.89
-11.43
-6.18
-1.46
2.44
5.33
7.13
7.89
7.81
7.13
6.08
4.72
3.07
1.09
-1.19
-3.59
-5.78
-7.36
-8.00
-7.54
-6.11
-4.06
-1.91
-0.17
0.85
1.05
0.56
-0.34
-1.41
-2.46
-3.41
-4.23
-4.96
-5.69
-6.56
-7.68
-9.08
-10.72
-12.42
-14.02
-15.45
-16.81
-18.30
-20.19
-22.66
-25.75
-29.32
-33.04
-36.44
-38.96
-40.02
-39.25
-36.57
-32.23
-26.78
-20.86
-15.02
-9.58
-4.70
-0.37
3.43
6.66
9.27
11.27
12.75
13.86
14.77
15.53
16.17
16.60
16.75
16.63
16.32
15.99
15.82
15.89
16.18
16.55
16.80
16.77
16.38
15.61
14.48
12.99
11.13
8.89
6.32
3.55
0.76
-1.90
-4.35
-6.62
-8.81
-11.01
-13.29
-15.68
-18.26
-21.13
-24.38
-27.97
-31.63
-34.88
-37.10
-37.65
-36.17
-32.61
-27.32
-20.90
-14.08
-7.54
-1.79
2.96
6.78
9.86
12.47
14.77
16.83
18.63
20.09
21.20
21.99
22.50
22.80
22.89
22.79
22.55
22.24
21.95
21.70
21.46
21.14
20.66
19.97
19.09
18.04
16.86
15.58
14.21
12.70
11.01
9.04
6.75
4.15
1.35
-1.46
-4.08
-6.38
-8.38
-10.22
-12.12
-14.29
-16.86
-19.83
-23.04
-26.17
-28.72
-30.11
-29.82
-27.55
-23.36
-17.74
-11.47
-5.36
-0.06
4.14
7.33
9.80
11.91
13.89
15.83
17.71
19.46
21.03
22.40
23.52
24.36
24.84
24.93
24.67
24.16
23.59
23.12
22.86
22.78
22.75
22.57
22.08
21.21
20.03
18.72
17.42
16.19
14.94
13.48
11.62
9.29
6.61
3.80
1.13
-1.28
-3.43
-5.48
-7.64
-10.10
-12.95
-16.14
-19.50
-22.75
-25.48
-27.24
-27.64
-26.44
-23.63
-19.49
-14.45
-9.03
-3.68
1.28
5.67
9.36
12.30
14.49
16.05
17.21
18.25
19.36
20.61
21.85
22.84
23.32
23.19
22.54
21.56
20.48
19.48
18.65
17.99
17.50
17.09
16.66
16.05
15.05
13.54
11.48
8.97
6.20
3.39
0.71
-1.78
-4.08
-6.25
-8.35
-10.45
-12.64
-15.03
-17.72
-20.76
-24.03
-27.20
-29.76
-31.12
-30.81
-28.61
-24.65
-19.34
-13.36
-7.39
-2.04
2.29
5.47
7.66
9.13
10.24
11.27
12.38
13.58
14.78
15.94
16.99
17.93
18.66
19.06
19.01
18.50
17.66
16.76
16.08
15.79
15.81
15.85
15.57
14.71
13.29
11.54
9.84
8.46
7.44
6.59
5.55
4.04
1.93
-0.66
-3.45
-6.13
-8.56
-10.76
-12.91
-15.26
-18.01
-21.27
-24.95
-28.77
-32.28
-34.89
-36.02
-35.26
-32.52
-28.07
-22.51
-16.53
-10.77
-5.62
-1.19
2.60
5.90
8.84
11.45
13.69
15.49
16.85
17.82
18.54
19.18
19.85
20.52
21.04
21.22
20.91
20.14
19.13
18.17
17.49
17.12
16.86
16.39
15.42
13.87
11.85
9.65
7.56
5.75
4.27
2.99
1.72
0.30
-1.35
-3.21
-5.18
-7.15
-9.05
-10.88
-12.67
-14.55
-16.63
-19.01
-21.73
-24.67
-27.55
-29.91
-31.15
-30.77
-28.50
-24.43
-19.05
-13.01
-6.99
-1.49
3.22
7.06
10.10
12.48
14.35
15.88
17.17
18.30
19.25
19.99
20.48
20.74
20.80
20.76
20.68
20.63
20.65
20.77
20.97
21.16
21.22
21.02
20.50
19.62
18.41
16.93
15.23
13.42
11.58
9.76
7.93
5.98
3.83
1.46
-0.97
-3.31
-5.45
-7.45
-9.52
-11.92
-14.82
-18.21
-21.88
-25.51
-28.68
-30.96
-31.95
-31.34
-29.03
-25.20
-20.28
-14.87
-9.56
-4.74
-0.61
2.82
5.69
8.12
10.22
12.06
13.70
15.15
16.39
17.38
18.03
18.26
18.09
17.63
17.07
16.59
16.33
16.30
16.41
16.50
16.44
16.13
15.50
14.49
13.05
11.14
8.81
6.25
3.68
1.32
-0.73
-2.52
-4.23
-5.99
-7.84
-9.70
-11.44
-13.02
-14.49
-16.01
-17.75
-19.77
-22.04
-24.45
-26.91
-29.31
-31.45
-32.99
-33.52
-32.65
-30.19
-26.30
-21.41
-16.15
-11.06
-6.48
-2.50
0.91
3.85
6.42
8.68
10.71
12.57
14.28
15.80
17.01
17.78
18.09
17.96
17.58
17.10
16.68
16.38
16.16
15.96
15.72
15.36
14.79
13.96
12.81
11.34
9.63
7.78
5.96
4.31
2.95
1.86
0.95
0.09
-0.88
-2.00
-3.28
-4.63
-5.97
-7.23
-8.44
-9.66
-10.99
-12.53
-14.32
-16.41
-18.75
-21.28
-23.79
-25.99
-27.48
-27.88
-26.93
-24.55
-20.94
-16.46
-11.57
-6.76
-2.36
1.37
4.35
6.61
8.28
9.57
10.67
11.70
12.65
13.41
13.85
13.90
13.63
13.21
12.84
12.68
12.74
13.00
13.37
13.75
14.06
14.22
14.12
13.70
12.92
11.86
10.66
9.45
8.35
7.33
6.28
5.00
3.37
1.37
-0.90
-3.15
-5.13
-6.65
-7.73
-8.60
-9.61
-11.08
-13.17
-15.89
-19.06
-22.38
-25.49
-27.97
-29.34
-29.21
-27.38
-23.96
-19.40
-14.37
-9.52
-5.28
-1.75
1.24
3.91
6.38
8.60
10.42
11.70
12.49
12.99
13.42
13.89
14.38
14.70
14.67
14.26
13.53
12.68
11.90
11.32
10.99
10.84
10.78
10.69
10.44
9.94
9.11
7.92
6.38
4.60
2.68
0.77
-1.04
-2.70
-4.22
-5.66
-7.10
-8.61
-10.21
-11.89
-13.65
-15.48
-17.41
-19.50
-21.83
-24.41
-27.19
-29.92
-32.20
-33.49
-33.30
-31.39
-27.87
-23.20
-18.03
-12.95
-8.32
-4.27
-0.73
2.39
5.12
7.42
9.26
10.71
11.93
13.12
14.35
15.57
16.60
17.22
17.30
16.86
16.01
14.98
13.96
13.09
12.39
11.82
11.26
10.61
9.78
8.74
7.49
6.06
4.50
2.84
1.12
-0.61
-2.27
-3.83
-5.28
-6.65
-7.96
-9.16
-10.19
-11.01
-11.68
-12.37
-13.36
-14.87
-17.00
-19.61
-22.33
-24.70
-26.21
-26.52
-25.44
-23.05
-19.60
-15.46
-10.99
-6.49
-2.16
1.84
5.40
8.44
10.91
12.83
14.31
15.50
16.48
17.27
17.85
18.16
18.19
18.04
17.84
17.75
17.87
18.22
18.71
19.19
19.44
19.29
18.68
17.65
16.37
15.05
13.81
12.67
11.48
10.04
8.21
5.97
3.42
0.77
-1.83
-4.23
-6.41
-8.36
-10.21
-12.09
-14.22
-16.74
-19.68
-22.83
-25.79
-28.03
-29.02
-28.46
-26.31
-22.82
-18.45
-13.72
-9.10
-4.95
-1.42
1.45
3.75
5.61
7.08
8.22
9.07
9.70
10.24
10.82
11.46
12.07
12.49
12.57
12.27
11.69
11.03
10.47
10.10
9.83
9.48
8.86
7.91
6.69
5.34
4.02
2.78
1.54
0.14
-1.52
-3.48
-5.61
-7.78
-9.86
-11.83
-13.76
-15.75
-17.84
-20.06
-22.43
-25.00
-27.81
-30.81
-33.70
-36.05
-37.25
-36.83
-34.59
-30.69
-25.63
-20.04
-14.52
-9.45
-4.99
-1.13
2.23
5.16
7.74
10.00
12.00
13.76
15.32
16.65
17.76
18.61
19.21
19.54
19.58
19.32
18.78
18.08
17.33
16.66
16.09
15.54
14.84
13.84
12.47
10.81
9.04
7.35
5.84
4.44
3.00
1.30
-0.77
-3.15
-5.61
-7.90
-9.83
-11.38
-12.71
-14.08
-15.68
-17.60
-19.81
-22.19
-24.62
-26.93
-28.89
-30.18
-30.43
-29.33
-26.75
-22.80
-17.88
-12.53
-7.28
-2.51
1.61
5.09
8.00
10.42
12.40
13.95
15.14
16.09
16.88
17.53
17.99
18.19
18.13
17.94
17.75
17.69
17.71
17.73
17.64
17.39
17.05
16.71
16.37
15.96
15.34
14.43
13.21
11.83
10.43
9.10
7.85
6.63
5.34
3.89
2.26
0.41
-1.67
-4.04
-6.72
-9.74
-13.00
-16.30
-19.24
-21.40
-22.37
-21.95
-20.15
-17.18
-13.39
-9.13
-4.69
-0.37
3.59
7.02
9.79
11.95
13.64
15.02
16.23
17.26
18.02
18.44
18.47
18.21
17.75
17.24
16.76
16.36
16.05
15.80
15.58
15.28
14.80
14.02
12.91
11.52
9.98
8.40
6.89
5.44
3.99
2.44
0.71
-1.27
-3.51
-5.96
-8.52
-11.07
-13.48
-15.69
-17.72
-19.70
-21.79
-24.14
-26.76
-29.44
-31.80
-33.37
-33.71
-32.59
-29.98
-26.12
-21.40
-16.29
-11.27
-6.68
-2.73
0.54
3.20
5.43
7.35
9.08
10.63
11.98
13.11
14.02
14.65
14.97
14.91
14.47
13.78
13.06
12.52
12.27
12.20
12.05
11.59
10.72
9.57
8.36
7.28
6.33
5.34
4.09
2.47
0.50
-1.62
-3.65
-5.43
-6.92
-8.20
-9.37
-10.60
-12.04
-13.86
-16.20
-19.09
-22.37
-25.67
-28.44
-30.11
-30.23
-28.61
-25.40
-20.96
-15.84
-10.53
-5.48
-0.98
2.79
5.79
8.07
9.79
11.16
12.35
13.46
14.48
15.29
15.74
15.78
15.45
14.90
14.30
13.76
13.32
12.91
12.47
11.98
11.46
10.94
10.40
9.74
8.87
7.73
6.34
4.80
3.21
1.60
-0.09
-1.97
-4.10
-6.44
-8.89
-11.25
-13.44
-15.49
-17.55
-19.81
-22.36
-25.08
-27.66
-29.62
-30.47
-29.84
-27.66
-24.13
-19.70
-14.89
-10.15
-5.82
-2.04
1.16
3.83
6.02
7.84
9.34
10.57
11.53
12.22
12.60
12.67
12.49
12.14
11.73
11.33
10.97
10.56
10.02
9.31
8.48
7.63
6.90
6.33
5.85
5.27
4.46
3.32
1.91
0.36
-1.20
-2.71
-4.18
-5.67
-7.22
-8.83
-10.49
-12.23
-14.11
-16.19
-18.44
-20.71
-22.66
-23.89
-24.02
-22.81
-20.25
-16.54
-12.01
-7.08
-2.16
2.40
6.36
9.62
12.17
14.09
15.51
16.51
17.17
17.54
17.71
17.82
18.02
18.38
18.92
19.49
19.93
20.05
19.77
19.13
18.25
17.26
16.23
15.19
14.08
12.86
11.52
10.09
8.60
7.05
5.42
3.67
1.80
-0.16
-2.21
-4.36
-6.70
-9.32
-12.28
-15.46
-18.53
-20.99
-22.29
-22.05
-20.16
-16.90
-12.79
-8.45
-4.40
-0.89
2.07
4.63
6.92
8.95
10.62
11.81
12.44
12.55
12.31
11.88
11.41
10.99
10.63
10.33
10.07
9.87
9.71
9.54
9.31
8.93
8.33
7.52
6.52
5.39
4.18
2.93
1.62
0.19
-1.39
-3.15
-5.10
-7.19
-9.36
-11.51
-13.59
-15.58
-17.58
-19.72
-22.15
-24.90
-27.82
-30.51
-32.41
-33.00
-31.89
-29.07
-24.88
-19.92
-14.88
-10.27
-6.35
-3.07
-0.19
2.53
5.26
7.95
10.47
12.62
14.28
15.36
15.85
15.79
15.24
14.38
13.39
12.53
11.93
11.68
11.67
11.72
11.64
11.29
10.60
9.57
8.27
6.75
5.11
3.44
1.79
0.17
-1.47
-3.22
-5.11
-7.11
-9.13
-11.01
-12.66
-14.13
-15.60
-17.29
-19.37
-21.78
-24.20
-26.14
-27.05
-26.55
-24.49
-21.06
-16.62
-11.61
-6.44
-1.42
3.21
7.29
10.72
13.52
15.81
17.73
19.40
20.85
22.05
22.91
23.40
23.55
23.43
23.14
22.73
22.21
21.58
20.86
20.12
19.41
18.77
18.18
17.54
16.75
15.69
14.30
12.58
10.61
8.53
6.45
4.46
2.54
0.63
-1.32
-3.39
-5.62
-8.07
-10.79
-13.79
-16.93
-19.90
-22.24
-23.45
-23.14
-21.17
-17.80
-13.48
-8.83
-4.41
-0.56
2.60
5.15
7.24
9.03
10.55
11.78
12.65
13.17
13.43
13.51
13.46
13.28
12.93
12.44
11.91
11.52
11.35
11.37
11.34
11.00
10.18
8.87
7.31
5.77
4.42
3.24
2.06
0.65
-1.11
-3.21
-5.55
-7.98
-10.41
-12.79
-15.06
-17.23
-19.30
-21.35
-23.50
-25.89
-28.53
-31.24
-33.58
-34.99
-34.96
-33.23
-29.92
-25.44
-20.40
-15.35
-10.64
-6.41
-2.62
0.83
3.95
6.71
9.04
10.85
12.16
13.01
13.54
13.83
14.00
14.05
14.00
13.86
13.67
13.46
13.31
13.19
13.01
12.58
11.74
10.40
8.64
6.67
4.73
2.98
1.44
0.02
-1.42
-3.02
-4.81
-6.74
-8.73
-10.65
-12.41
-14.00
-15.47
-16.93
-18.58
-20.54
-22.86
-25.40
-27.83
-29.68
-30.47
-29.84
-27.64
-24.03
-19.42
-14.33
-9.26
-4.56
-0.38
3.25
6.36
8.94
11.00
12.51
13.54
14.25
14.79
15.28
15.70
16.01
16.13
16.04
15.84
15.66
15.62
15.74
15.98
16.20
16.30
16.17
15.78
15.13
14.25
13.15
11.86
10.40
8.76
6.96
5.04
3.08
1.21
-0.50
-2.02
-3.44
-4.91
-6.59
-8.63
-11.04
-13.66
-16.15
-18.04
-18.87
-18.34
-16.42
-13.33
-9.47
-5.28
-1.12
2.79
6.30
9.30
11.71
13.50
14.71
15.46
15.91
16.17
16.30
16.27
16.06
15.68
15.19
14.64
14.11
13.59
13.08
12.55
11.98
11.32
10.50
9.48
8.25
6.83
5.30
3.72
2.08
0.35
-1.60
-3.84
-6.36
-9.05
-11.75
-14.34
-16.75
-19.02
-21.30
-23.71
-26.35
-29.19
-32.04
-34.58
-36.35
-36.90
-35.90
-33.26
-29.17
-24.09
-18.67
-13.52
-9.04
-5.36
-2.36
0.24
2.66
5.00
7.18
9.06
10.54
11.60
12.31
12.78
13.08
13.24
13.26
13.16
12.98
12.79
12.63
12.46
12.20
11.74
10.95
9.79
8.28
6.55
4.75
2.99
1.33
-0.30
-1.99
-3.81
-5.74
-7.72
-9.64
-11.42
-13.08
-14.69
-16.33
-18.11
-20.10
-22.33
-24.72
-27.07
-28.99
-29.99
-29.63
-27.63
-24.07
-19.35
-14.08
-8.89
-4.24
-0.33
2.85
5.43
7.54
9.25
10.60
11.60
12.33
12.91
13.47
14.04
14.58
14.97
15.12
15.03
14.82
14.63
14.62
14.82
15.17
15.53
15.77
15.74
15.39
14.65
13.45
11.77
9.62
7.13
4.50
2.01
-0.07
-1.62
-2.71
-3.61
-4.73
-6.45
-8.97
-12.14
-15.54
-18.56
-20.53
-21.01
-19.79
-16.98
-12.97
-8.26
-3.42
1.11
5.07
8.41
11.25
13.73
16.01
18.08
19.86
21.26
22.20
22.70
22.83
22.69
22.32
21.75
20.97
20.01
18.92
17.76
16.57
15.38
14.20
12.99
11.72
10.31
8.66
6.66
4.27
1.54
-1.38
-4.26
-6.82
-8.91
-10.49
-11.74
-12.95
-14.43
-16.41
-18.97
-21.98
-25.19
-28.21
-30.58
-31.86
-31.69
-29.87
-26.49
-21.97
-16.91
-11.98
-7.69
-4.23
-1.51
0.76
2.87
4.95
6.99
8.88
10.48
11.72
12.63
13.28
13.73
14.03
14.19
14.24
14.22
14.12
13.93
13.56
12.91
11.92
10.63
9.16
7.71
6.39
5.19
3.97
2.54
0.75
-1.38
-3.68
-5.99
-8.15
-10.18
-12.17
-14.22
-16.38
-18.65
-21.04
-23.59
-26.32
-29.14
-31.78
-33.69
-34.31
-33.17
-30.22
-25.79
-20.55
-15.25
-10.47
-6.48
-3.28
-0.67
1.59
3.66
5.62
7.45
9.11
10.59
11.87
12.97
13.86
14.50
14.88
15.05
15.12
15.22
15.44
15.75
16.02
16.05
15.67
14.82
13.57
12.07
10.54
9.13
7.87
6.68
5.39
3.87
2.10
0.16
-1.76
-3.52
-5.09
-6.51
-7.91
-9.39
-11.04
-12.92
-15.07
-17.48
-19.93
-22.02
-23.15
-22.76
-20.54
-16.65
-11.58
-6.04
-0.64
4.21
8.33
11.69
14.32
16.26
17.59
18.48
19.11
19.69
20.31
20.96
21.52
21.86
21.92
21.70
21.26
20.68
20.08
19.50
18.99
18.50
17.93
17.11
15.92
14.29
12.26
9.95
7.50
5.06
2.68
0.39
-1.83
-3.96
-5.99
-7.91
-9.72
-11.45
-13.22
-15.12
-17.32
-19.89
-22.81
-25.82
-28.49
-30.25
-30.55
-29.08
-25.91
-21.45
-16.35
-11.30
-6.80
-3.07
-0.12
2.26
4.23
5.95
7.50
8.90
10.15
11.23
12.08
12.65
12.91
12.87
12.60
12.23
11.87
11.64
11.61
11.79
12.10
12.38
12.38
11.80
10.45
8.33
5.69
2.97
0.59
-1.23
-2.57
-3.76
-5.22
-7.18
-9.63
-12.29
-14.82
-16.99
-18.81
-20.49
-22.33
-24.56
-27.23
-30.18
-33.17
-35.85
-37.89
-38.87
-38.41
-36.21
-32.18
-26.61
-20.10
-13.44
-7.33
-2.20
1.87
5.07
7.69
9.94
11.88
13.47
14.69
15.58
16.26
16.86
17.45
17.99
18.41
18.63
18.67
18.59
18.48
18.38
18.21
17.87
17.24
16.29
15.11
13.85
12.64
11.54
10.53
9.50
8.31
6.88
5.15
3.13
0.88
-1.49
-3.83
-5.95
-7.76
-9.32
-10.83
-12.59
-14.82
-17.50
-20.25
-22.43
-23.29
-22.29
-19.30
-14.66
-9.09
-3.38
1.88
6.44
10.32
13.70
16.72
19.39
21.65
23.44
24.80
25.81
26.53
26.95
26.95
26.40
25.28
23.77
22.13
20.64
19.47
18.57
17.80
16.93
15.84
14.45
12.79
10.93
8.90
6.75
4.48
2.14
-0.25
-2.62
-4.91
-7.07
-9.06
-10.89
-12.62
-14.34
-16.14
-18.15
-20.49
-23.22
-26.31
-29.50
-32.31
-34.12
-34.34
-32.67
-29.20
-24.40
-19.02
-13.72
-8.98
-4.97
-1.62
1.23
3.77
6.08
8.18
10.05
11.64
12.89
13.73
14.17
14.23
14.02
13.64
13.23
12.84
12.53
12.33
12.27
12.35
12.47
12.46
12.08
11.16
9.68
7.83
5.91
4.21
2.84
1.65
0.36
-1.34
-3.55
-6.20
-9.02
-11.74
-14.18
-16.28
-18.10
-19.78
-21.48
-23.41
-25.75
-28.52
-31.50
-34.17
-35.81
-35.71
-33.53
-29.38
-23.91
-18.01
-12.49
-7.84
-4.13
-1.09
1.60
4.21
6.75
9.11
11.11
12.67
13.81
14.63
15.23
15.60
15.69
15.45
14.94
14.34
13.91
13.83
14.10
14.52
14.76
14.53
13.71
12.41
10.94
9.59
8.50
7.63
6.79
5.74
4.34
2.56
0.50
-1.68
-3.83
-5.86
-7.71
-9.37
-10.87
-12.31
-13.85
-15.66
-17.81
-20.21
-22.51
-24.21
-24.76
-23.79
-21.15
-17.02
-11.84
-6.18
-0.58
4.54
8.95
12.57
15.44
17.68
19.40
20.69
21.60
22.18
22.41
22.30
21.91
21.29
20.57
19.85
19.25
18.81
18.49
18.23
17.93
17.50
16.89
16.06
14.99
13.67
12.10
10.30
8.31
6.21
4.02
1.80
-0.44
-2.67
-4.86
-7.00
-9.10
-11.23
-13.45
-15.89
-18.62
-21.72
-25.16
-28.76
-32.18
-34.91
-36.38
-36.14
-34.02
-30.27
-25.47
-20.35
-15.61
-11.65
-8.58
-6.22
-4.31
-2.65
-1.12
0.28
1.54
2.68
3.79
4.94
6.18
7.44
8.57
9.44
10.01
10.36
10.64
10.98
11.41
11.83
12.07
12.01
11.62
10.94
10.05
8.98
7.74
6.27
4.56
2.60
0.43
-1.86
-4.15
-6.36
-8.40
-10.27
-12.08
-13.98
-16.13
-18.69
-21.67
-24.92
-28.14
-30.87
-32.61
-32.89
-31.41
-28.19
-23.56
-18.11
-12.49
-7.27
-2.74
1.07
4.29
7.09
9.59
11.79
13.71
15.33
16.69
17.85
18.82
19.52
19.89
19.85
19.48
18.93
18.45
18.21
18.29
18.59
18.93
19.03
18.72
17.92
16.70
15.25
13.75
12.30
10.84
9.22
7.29
5.02
2.54
0.05
-2.22
-4.19
-5.95
-7.67
-9.57
-11.79
-14.35
-17.12
-19.87
-22.25
-23.79
-24.03
-22.63
-19.54
-15.05
-9.75
-4.31
0.71
5.04
8.63
11.60
14.03
15.91
17.22
17.96
18.28
18.40
18.53
18.76
19.02
19.17
19.11
18.85
18.48
18.05
17.54
16.85
15.86
14.55
13.01
11.39
9.79
8.21
6.54
4.66
2.51
0.15
-2.31
-4.76
-7.18
-9.64
-12.23
-14.98
-17.78
-20.45
-22.90
-25.13
-27.35
-29.75
-32.35
-34.87
-36.72
-37.20
-35.80
-32.38
-27.32
-21.28
-15.05
-9.27
-4.31
-0.27
2.91
5.42
7.50
9.36
11.19
13.05
14.86
16.42
17.52
18.04
18.00
17.54
16.90
16.28
15.77
15.36
14.95
14.44
13.78
12.99
12.12
11.18
10.17
9.06
7.80
6.35
4.69
2.82
0.73
-1.56
-3.98
-6.42
-8.72
-10.83
-12.80
-14.86
-17.26
-20.20
-23.64
-27.32
-30.73
-33.29
-34.49
-33.97
-31.66
-27.74
-22.68
-17.11
-11.63
-6.72
-2.59
0.80
3.67
6.22
8.62
10.88
12.93
14.63
15.90
16.68
17.03
17.06
16.90
16.66
16.39
16.12
15.86
15.67
15.61
15.69
15.84
15.88
15.61
14.96
13.97
12.80
11.62
10.47
9.27
7.87
6.17
4.17
1.98
-0.30
-2.62
-4.99
-7.52
-10.27
-13.25
-16.33
-19.25
-21.67
-23.19
-23.49
-22.38
-19.92
-16.36
-12.09
-7.55
-3.08
1.11
4.86
8.10
10.79
12.92
14.53
15.70
16.47
16.87
16.90
16.60
16.11
15.62
15.34
15.35
15.62
15.99
16.26
16.26
15.88
15.12
14.03
12.71
11.29
9.84
8.39
6.90
5.26
3.33
1.04
-1.60
-4.47
-7.42
-10.22
-12.73
-14.88
-16.73
-18.47
-20.34
-22.53
-25.04
-27.62
-29.86
-31.26
-31.40
-30.09
-27.41
-23.64
-19.25
-14.73
-10.50
-6.83
-3.82
-1.44
0.39
1.71
2.53
2.84
2.71
2.31
1.91
1.78
2.10
2.90
4.08
5.43
6.78
7.99
9.04
9.95
10.77
11.51
12.10
12.39
12.25
11.58
10.45
8.99
7.36
5.66
3.87
1.90
-0.32
-2.76
-5.23
-7.45
-9.23
-10.57
-11.71
-13.03
-14.88
-17.37
-20.28
-23.05
-24.96
-25.33
-23.80
-20.40
-15.55
-9.90
-4.13
1.18
5.65
9.13
11.67
13.45
14.78
15.92
17.07
18.29
19.45
20.36
20.85
20.89
20.56
20.09
19.71
19.58
19.77
20.20
20.71
21.10
21.23
20.98
20.39
19.60
18.79
18.16
17.79
17.66
17.59
17.35
16.66
15.33
13.30
10.69
7.80
4.99
2.54
0.60
-0.91
-2.25
-3.78
-5.84
-8.58
-11.92
-15.44
-18.48
-20.32
-20.33
-18.33
-14.61
-9.89
-5.05
-0.82
2.44
4.78
6.47
7.76
8.76
9.42
9.63
9.34
8.69
7.90
7.19
6.68
6.36
6.14
5.97
5.91
6.08
6.61
7.51
8.59
9.52
9.91
9.48
8.20
6.30
4.14
2.11
0.44
-0.84
-1.88
-2.87
-4.02
-5.37
-6.94
-8.69
-10.59
-12.64
-14.85
-17.22
-19.77
-22.55
-25.53
-28.59
-31.41
-33.50
-34.30
-33.44
-30.87
-26.93
-22.19
-17.26
-12.56
-8.23
-4.27
-0.63
2.65
5.42
7.56
8.98
9.73
9.94
9.80
9.48
9.12
8.86
8.79
8.96
9.33
9.77
10.08
10.06
9.60
8.70
7.51
6.23
5.03
3.99
3.04
2.05
0.93
-0.37
-1.81
-3.31
-4.83
-6.36
-7.91
-9.49
-11.10
-12.73
-14.41
-16.21
-18.20
-20.31
-22.32
-23.86
-24.47
-23.79
-21.67
-18.22
-13.79
-8.87
-3.93
0.62
4.53
7.75
10.27
12.18
13.53
14.40
14.87
15.01
14.92
14.68
14.35
13.96
13.53
13.06
12.55
12.01
11.40
10.75
10.10
9.52
9.05
8.65
8.17
7.43
6.27
4.66
2.70
0.55
-1.63
-3.76
-5.80
-7.75
-9.64
-11.53
-13.50
-15.67
-18.17
-20.97
-23.92
-26.65
-28.71
-29.62
-29.04
-26.89
-23.37
-18.92
-14.11
-9.43
-5.24
-1.67
1.29
3.72
5.69
7.24
8.42
9.32
10.04
10.71
11.40
12.10
12.75
13.26
13.61
13.78
13.82
13.77
13.67
13.51
13.25
12.80
12.07
11.02
9.70
8.22
6.75
5.37
4.09
2.80
1.31
-0.47
-2.53
-4.70
-6.80
-8.69
-10.42
-12.21
-14.32
-16.95
-20.02
-23.23
-26.03
-27.84
-28.18
-26.84
-23.89
-19.70
-14.80
-9.75
-5.05
-1.04
2.15
4.55
6.37
7.82
9.09
10.28
11.35
12.22
12.81
13.15
13.27
13.25
13.12
12.84
12.37
11.75
11.11
10.59
10.25
10.02
9.68
9.02
7.99
6.65
5.21
3.80
2.45
1.04
-0.56
-2.39
-4.37
-6.37
-8.26
-10.01
-11.69
-13.44
-15.43
-17.77
-20.56
-23.75
-27.13
-30.27
-32.60
-33.54
-32.70
-30.03
-25.85
-20.81
-15.61
-10.85
-6.89
-3.73
-1.19
1.03
3.11
5.12
6.96
8.53
9.73
10.58
11.13
11.47
11.62
11.59
11.40
11.12
10.89
10.83
11.04
11.46
11.99
12.40
12.54
12.32
11.76
10.96
9.97
8.85
7.57
6.13
4.57
2.98
1.48
0.11
-1.20
-2.55
-4.06
-5.82
-7.80
-9.95
-12.21
-14.46
-16.51
-17.97
-18.43
-17.46
-14.90
-10.90
-5.95
-0.70
4.26
8.55
12.05
14.83
17.03
18.76
20.06
20.91
21.31
21.34
21.12
20.85
20.67
20.63
20.66
20.67
20.54
20.26
19.88
19.44
18.94
18.35
17.57
16.48
15.04
13.22
11.05
8.66
6.18
3.75
1.46
-0.72
-2.88
-5.13
-7.53
-10.10
-12.78
-15.54
-18.41
-21.41
-24.52
-27.50
-29.96
-31.41
-31.43
-29.84
-26.77
-22.58
-17.78
-12.88
-8.26
-4.16
-0.65
2.31
4.82
6.97
8.82
10.40
11.68
12.64
13.29
13.70
13.91
13.93
13.74
13.31
12.69
12.03
11.49
11.25
11.27
11.34
11.11
10.29
8.78
6.74
4.51
2.39
0.54
-1.10
-2.77
-4.69
-6.99
-9.61
-12.31
-14.85
-17.04
-18.83
-20.35
-21.82
-23.54
-25.74
-28.51
-31.76
-35.17
-38.24
-40.39
-41.08
-39.97
-37.02
-32.55
-27.13
-21.43
-16.04
-11.29
-7.24
-3.70
-0.44
2.69
5.69
8.39
10.65
12.39
13.64
14.57
15.30
15.92
16.43
16.82
17.13
17.44
17.84
18.39
19.01
19.53
19.78
19.67
19.20
18.49
17.63
16.70
15.65
14.43
12.98
11.30
9.46
7.56
5.69
3.90
2.19
0.54
-1.12
-2.87
-4.81
-7.05
-9.68
-12.62
-15.62
-18.23
-19.88
-20.10
-18.67
-15.72
-11.68
-7.09
-2.46
1.88
5.74
9.04
11.75
13.84
15.33
16.33
17.01
17.45
17.70
17.69
17.33
16.62
15.69
14.74
14.00
13.58
13.50
13.66
13.93
14.16
14.25
14.05
13.51
12.58
11.31
9.80
8.19
6.61
5.09
3.62
2.09
0.44
-1.41
-3.43
-5.54
-7.64
-9.66
-11.65
-13.74
-16.16
-19.07
-22.45
-25.99
-29.16
-31.36
-32.03
-30.93
-28.11
-23.90
-18.80
-13.37
-8.11
-3.43
0.46
3.54
6.01
8.13
10.14
12.07
13.81
15.12
15.85
16.02
15.85
15.62
15.54
15.71
16.00
16.29
16.43
16.41
16.28
16.06
15.75
15.25
14.46
13.28
11.78
10.13
8.55
7.18
5.98
4.74
3.19
1.11
-1.51
-4.51
-7.60
-10.49
-13.02
-15.20
-17.20
-19.26
-21.62
-24.38
-27.43
-30.41
-32.76
-33.90
-33.39
-31.10
-27.26
-22.34
-16.93
-11.53
-6.50
-2.06
1.70
4.74
7.10
8.87
10.18
11.15
11.89
12.42
12.78
12.94
12.95
12.86
12.73
12.62
12.58
12.61
12.70
12.82
12.86
12.73
12.31
11.51
10.36
8.95
7.43
5.93
4.51
3.14
1.74
0.23
-1.40
-3.10
-4.79
-6.37
-7.81
-9.19
-10.62
-12.32
-14.41
-16.92
-19.72
-22.45
-24.67
-25.83
-25.51
-23.50
-19.89
-15.06
-9.57
-4.02
1.11
5.58
9.34
12.44
14.98
16.99
18.48
19.45
19.93
19.97
19.66
19.11
18.40
17.66
17.04
16.61
16.38
16.24
16.03
15.59
14.88
13.93
12.84
11.69
10.44
9.01
7.29
5.26
2.95
0.49
-2.01
-4.43
-6.75
-8.99
-11.21
-13.53
-16.02
-18.77
-21.85
-25.21
-28.64
-31.73
-33.87
-34.45
-33.06
-29.65
-24.58
-18.52
-12.21
-6.31
-1.21
2.89
6.00
8.26
9.84
10.98
11.88
12.67
13.40
14.02
14.47
14.73
14.83
14.85
14.88
14.98
15.17
15.47
15.85
16.21
16.44
16.37
15.88
14.92
13.56
11.93
10.21
8.53
6.91
5.31
3.61
1.67
-0.57
-3.05
-5.65
-8.21
-10.67
-13.07
-15.61
-18.50
-21.84
-25.55
-29.27
-32.47
-34.60
-35.23
-34.14
-31.36
-27.16
-21.94
-16.19
-10.44
-5.12
-0.57
3.10
5.93
8.09
9.77
11.08
12.02
12.55
12.65
12.42
12.02
11.68
11.54
11.62
11.80
11.94
11.92
11.68
11.30
10.86
10.40
9.92
9.30
8.45
7.35
6.04
4.64
3.22
1.80
0.31
-1.31
-3.15
-5.25
-7.62
-10.28
-13.24
-16.49
-19.91
-23.24
-26.11
-28.10
-28.84
-28.12
-25.95
-22.51
-18.18
-13.36
-8.44
-3.69
0.77
4.91
8.70
12.07
14.88
17.03
18.48
19.35
19.82
20.12
20.34
20.53
20.66
20.67
20.56
20.31
19.94
19.43
18.74
17.88
16.88
15.76
14.53
13.12
11.41
9.30
6.80
4.02
1.15
-1.62
-4.16
-6.46
-8.62
-10.79
-13.13
-15.77
-18.74
-21.99
-25.27
-28.22
-30.35
-31.15
-30.30
-27.75
-23.79
-18.96
-13.90
-9.12
-4.90
-1.25
1.92
4.76
7.31
9.54
11.41
12.92
14.11
15.03
15.68
16.03
16.01
15.66
15.08
14.42
13.87
13.52
13.37
13.29
13.10
12.59
11.65
10.27
8.59
6.79
5.01
3.26
1.38
-0.83
-3.47
-6.51
-9.67
-12.64
-15.18
-17.24
-18.94
-20.57
-22.38
-24.51
-26.99
-29.66
-32.20
-34.21
-35.20
-34.78
-32.74
-29.14
-24.30
-18.72
-12.92
-7.36
-2.33
1.99
5.57
8.50
10.89
12.93
14.76
16.47
18.09
19.55
20.76
21.66
22.22
22.51
22.61
22.63
22.68
22.82
23.02
23.16
23.05
22.55
21.60
20.24
18.64
16.96
15.32
13.73
12.08
10.26
8.19
5.91
3.53
1.19
-1.04
-3.14
-5.21
-7.37
-9.73
-12.36
-15.22
-18.19
-21.03
-23.34
-24.65
-24.51
-22.68
-19.15
-14.27
-8.57
-2.66
2.92
7.84
11.95
15.25
17.87
19.97
21.71
23.16
24.34
25.15
25.48
25.31
24.73
23.94
23.15
22.47
21.87
21.24
20.46
19.52
18.51
17.52
16.62
15.70
14.63
13.28
11.62
9.75
7.77
5.73
3.58
1.20
-1.51
-4.49
-7.55
-10.39
-12.78
-14.69
-16.26
-17.81
-19.68
-22.08
-24.99
-28.12
-30.95
-32.82
-33.15
-31.59
-28.11
-23.05
-17.02
-10.68
-4.60
0.90
5.75
10.07
14.01
17.66
21.00
23.93
26.34
28.28
29.89
31.42
33.06
34.92
36.91
38.91
40.77
42.42
43.93
45.47
47.24
49.43
52.09
55.11
58.17
60.87
62.85
63.98
64.46
64.72
65.19
65.96
66.73
66.95
66.23
64.72
63.11
62.31
62.84
64.41
66.05
66.60
65.47
62.88
59.72
56.91
54.94
53.83
53.37
53.24
52.87
51.00
45.17
31.94
8.00
-28.17
-74.64
-125.74
-173.39
-209.74
-229.99
-233.94
-225.65
-211.26
-196.30
-183.62
-172.97
-162.13
-148.81
-132.17
-113.11
-93.52
-74.97
-57.92
-41.65
-25.12
-7.73
10.19
27.60
43.26
56.40
66.95
75.30
81.91
86.88
89.93
90.67
88.94
84.98
79.45
73.15
66.77
60.72
54.98
48.97
41.57
31.34
17.07
-1.36
-22.45
-43.15
-59.78
-69.38
-71.00
-66.10
-57.95
-50.32
-46.03
-46.12
-49.84
-55.45
-61.06
-65.40
-68.03
-69.20
-69.63
-70.27
-72.08
-75.87
-82.20
-91.11
-102.09
-114.07
-125.74
-135.99
-144.45
-151.80
-159.56
-169.55
-183.19
-201.02
-222.45
-245.91
-269.38
-290.95
-309.27
-323.66
-333.92
-339.84
-340.77
-335.48
-322.36
-300.18
-268.66
-228.96
-183.42
-134.95
-86.18
-38.86
6.19
48.85
89.36
128.32
166.68
205.64
246.02
287.55
328.29
364.81
393.30
411.19
418.44
417.60
412.66
407.23
402.95
399.15
393.71
384.55
370.69
352.35
330.43
306.10
281.10
258.31
241.98
236.66
245.03
266.14
295.02
324.38
347.54
360.89
364.49
360.68
351.67
337.78
317.55
289.35
253.15
211.21
167.23
124.71
85.53
49.48
14.70
-20.99
-59.12
-100.23
-144.00
-189.37
-234.44
-276.36
-311.67
-337.86
-353.77
-360.04
-358.92
-353.56
-347.08
-341.45
-336.97
-332.39
-326.96
-319.52
-308.33
-291.40
-267.57
-237.64
-204.53
-172.15
-143.90
-123.83
-114.12
-114.09
-120.57
-129.65
-138.03
-143.56
-144.92
-141.44
-136.59
-135.50
-142.46
-159.09
-184.27
-214.88
-247.00
-276.85
-282.34
-248.97
-177.13
-83.04
11.51
91.42
152.41
197.25
230.67
256.33
272.78
274.59
260.04
231.78
195.96
159.79
128.60
104.54
86.66
69.44
44.20
3.74
-50.77
-115.91
-186.86
-258.81
-326.81
-385.08
-414.89
-404.11
-353.11
-276.09
-193.79
-122.63
-70.01
-35.09
-12.65
2.17
10.18
11.22
6.67
-0.05
-4.05
-1.35
9.64
28.10
51.76
77.07
98.70
115.64
130.08
146.02
167.08
194.82
227.99
262.60
291.72
308.41
308.83
293.22
265.83
233.03
200.94
173.49
151.73
133.88
117.36
101.00
85.17
71.36
60.87
53.93
49.55
46.17
42.24
37.09
31.32
26.14
22.60
21.00
20.70
20.57
19.48
16.86
12.83
8.14
3.62
-0.16
-3.06
-5.34
-7.38
-9.51
-11.81
-14.15
-16.23
-17.74
-18.58
-18.88
-18.96
-19.25
-20.11
-21.68
-23.87
-26.32
-28.64
-30.52
-31.92
-33.06
-34.31
-35.99
-38.18
-40.68
-43.03
-44.66
-45.12
-44.20
-41.94
-38.59
-34.51
-30.08
-25.53
-21.01
-16.57
-12.19
-7.92
-3.89
-0.29
2.71
5.02
6.70
7.94
8.97
9.97
10.97
11.92
12.64
12.98
12.84
12.25
11.39
10.48
9.74
9.25
8.95
8.60
7.98
6.94
5.49
3.78
1.95
0.08
-1.89
-4.07
-6.57
-9.42
-12.55
-15.78
-18.90
-21.63
-23.63
-24.59
-24.23
-22.39
-19.17
-14.82
-9.83
-4.70
0.05
4.09
7.29
9.75
11.71
13.44
15.15
16.88
18.54
20.00
21.16
21.99
22.52
22.77
22.72
22.34
21.68
20.86
20.09
19.55
19.31
19.19
18.92
18.17
16.76
14.73
12.23
9.51
6.75
4.06
1.49
-0.95
-3.28
-5.60
-8.08
-10.95
-14.32
-18.11
-21.95
-25.32
-27.72
-28.81
-28.52
-26.98
-24.41
-21.04
-17.00
-12.44
-7.55
-2.61
2.03
6.11
9.51
12.30
14.67
16.81
18.80
20.58
22.03
23.04
23.63
23.91
24.01
23.99
23.86
23.54
23.01
22.31
21.53
20.76
19.99
19.18
18.22
17.07
15.73
14.25
12.65
10.91
9.00
6.94
4.79
2.64
0.58
-1.41
-3.42
-5.62
-8.15
-11.05
-14.09
-16.89
-18.95
-19.82
-19.25
-17.26
-14.16
-10.37
-6.30
-2.24
1.66
5.29
8.55
11.34
13.58
15.28
16.50
17.34
17.89
18.13
18.06
17.68
17.11
16.48
15.96
15.65
15.50
15.32
14.93
14.20
13.16
11.91
10.64
9.46
8.37
7.23
5.89
4.26
2.37
0.34
-1.67
-3.56
-5.34
-7.03
-8.72
-10.45
-12.30
-14.31
-16.51
-18.85
-21.10
-22.93
-23.92
-23.74
-22.24
-19.56
-16.02
-12.01
-7.90
-3.92
-0.22
3.11
5.98
8.33
10.13
11.43
12.35
13.05
13.59
13.96
14.07
13.78
13.05
11.98
10.81
9.81
9.18
8.94
8.92
8.89
8.62
8.01
7.08
5.92
4.65
3.36
2.14
1.04
0.09
-0.78
-1.68
-2.77
-4.17
-5.85
-7.73
-9.63
-11.50
-13.35
-15.31
-17.50
-19.93
-22.50
-24.97
-27.05
-28.51
-29.27
-29.38
-28.94
-28.04
-26.69
-24.87
-22.60
-20.09
-17.75
-16.05
-15.35
-15.63
-16.54
-17.55
-18.26
-18.44
-18.17
-17.79
-17.70
-18.23
-19.41
-20.91
-21.96
-21.54
-18.29
-11.06
0.72
16.73
35.85
56.52
77.23
96.76
114.07
128.57
139.58
146.05
146.49
139.42
124.11
101.12
72.59
41.74
12.77
-10.39
-25.15
-30.93
-28.98
-21.69
-11.65
-0.89
7.52
11.94
12.82
12.67
14.26
18.83
25.81
33.65
42.05
50.23
58.16
66.01
73.73
80.76
86.40
90.28
91.92
91.96
91.12
90.27
89.80
89.45
88.42
85.88
81.61
76.16
70.93
67.35
66.94
70.82
79.40
92.17
107.65
123.56
137.17
146.03
148.57
144.87
136.59
126.30
116.41
108.26
101.76
95.64
88.29
78.22
64.64
47.30
26.12
0.98
-28.35
-61.85
-99.08
-139.03
-180.22
-220.89
-259.17
-293.19
-321.11
-341.24
-352.47
-354.76
-349.47
-339.26
-327.41
-316.75
-308.87
-303.83
-300.55
-297.56
-293.64
-288.05
-280.18
-269.19
-253.90
-233.19
-206.71
-175.43
-141.58
-107.86
-76.41
-48.07
-22.43
1.59
24.86
47.43
68.59
87.37
103.14
115.88
126.00
134.00
140.07
144.07
145.69
144.76
141.42
136.16
129.68
122.69
115.80
109.31
103.24
97.38
91.41
85.05
78.08
70.36
61.90
52.94
44.19
36.81
32.08
30.88
33.10
37.48
42.07
44.87
44.68
41.40
35.81
29.01
21.97
15.20
8.93
3.30
-1.49
-5.21
-7.73
-9.12
-9.64
-9.62
-9.34
-8.98
-8.59
-8.21
-7.80
-7.40
-7.10
-7.09
-7.64
-8.98
-11.11
-13.73
-16.21
-17.87
-18.26
-17.49
-16.19
-15.29
-15.60
-17.43
-20.45
-23.93
-27.01
-29.14
-30.09
-29.97
-28.99
-27.35
-25.14
-22.45
-19.46
-16.40
-13.56
-11.13
-9.12
-7.45
-5.96
-4.65
-3.64
-3.22
-3.65
-4.98
-7.03
-9.39
-11.62
-13.36
-14.47
-15.05
-15.27
-15.34
-15.38
-15.45
-15.56
-15.75
-16.07
-16.60
-17.33
-18.17
-18.88
-19.22
-19.05
-18.42
-17.54
-16.74
-16.27
-16.27
-16.69
-17.36
-18.07
-18.58
-18.65
-18.02
-16.53
-14.08
-10.72
-6.62
-2.10
2.48
6.74
10.40
13.29
15.42
16.94
18.00
18.67
18.89
18.48
17.28
15.26
12.59
9.51
6.29
3.12
0.16
-2.43
-4.48
-5.77
-6.18
-5.72
-4.59
-3.11
-1.62
-0.41
0.39
0.81
0.99
1.11
1.30
1.56
1.77
1.71
1.24
0.34
-0.85
-2.11
-3.21
-4.02
-4.45
-4.40
-3.66
-1.95
1.01
5.32
10.73
16.59
22.03
26.15
28.34
28.29
26.02
21.71
15.57
7.89
-0.88
-9.98
-18.41
-25.13
-29.42
-31.17
-30.89
-29.49
-27.90
-26.71
-26.03
-25.57
-24.89
-23.70
-21.93
-19.78
-17.57
-15.60
-14.01
-12.81
-11.90
-11.24
-10.84
-10.84
-11.31
-12.19
-13.21
-14.01
-14.35
-14.32
-14.35
-15.04
-16.77
-19.47
-22.54
-24.99
-25.90
-24.72
-21.55
-16.99
-11.88
-6.94
-2.61
1.03
4.07
6.64
8.80
10.41
11.35
11.57
11.19
10.50
9.86
9.56
9.63
9.94
10.20
10.20
9.88
9.38
8.99
8.96
9.41
10.25
11.18
11.81
11.74
10.71
8.68
5.87
2.72
-0.25
-2.66
-4.38
-5.56
-6.57
-7.80
-9.52
-11.80
-14.49
-17.27
-19.69
-21.17
-21.12
-19.15
-15.30
-10.27
-5.36
-2.04
-1.43
-3.82
-8.48
-13.95
-18.57
-21.07
-20.88
-18.17
-13.62
-8.16
-2.75
1.84
5.15
7.11
8.07
8.71
9.76
11.76
14.84
18.76
23.02
27.08
30.50
33.02
34.58
35.25
35.23
34.72
33.85
32.48
30.18
26.32
20.35
12.10
1.92
-9.33
-20.52
-30.69
-39.20
-45.86
-50.69
-53.71
-54.81
-53.74
-50.24
-44.28
-36.19
-26.61
-16.34
-6.17
3.28
11.59
18.50
23.88
27.70
30.02
31.08
31.21
30.87
30.42
30.11
29.97
29.95
29.91
29.77
29.52
29.13
28.58
27.83
26.80
25.49
23.85
21.91
19.65
17.14
14.46
11.80
9.33
7.18
5.29
3.46
1.44
-0.96
-3.74
-6.80
-9.99
-13.21
-16.48
-19.85
-23.43
-27.22
-31.24
-35.51
-39.96
-44.43
-48.50
-51.56
-52.90
-51.97
-48.55
-42.90
-35.67
-27.71
-19.85
-12.62
-6.23
-0.58
4.59
9.51
14.18
18.44
22.04
24.79
26.71
27.97
28.68
28.80
28.13
26.48
23.83
20.42
16.64
12.88
9.43
6.44
4.08
2.59
2.21
3.03
4.86
7.25
9.64
11.60
12.98
13.85
14.43
14.84
15.10
15.14
14.93
14.47
13.81
12.97
11.84
10.24
7.96
4.98
1.50
-2.12
-5.52
-8.59
-11.45
-14.41
-17.62
-20.96
-24.01
-26.26
-27.35
-27.23
-26.02
-23.91
-20.97
-17.19
-12.59
-7.36
-1.82
3.69
9.02
14.22
19.42
24.73
29.97
34.80
38.76
41.48
42.75
42.52
40.84
37.94
34.19
30.19
26.59
24.01
22.73
22.64
23.19
23.68
23.48
22.24
19.97
16.95
13.54
10.07
6.81
3.86
1.18
-1.40
-4.15
-7.20
-10.41
-13.25
-14.90
-14.60
-12.02
-7.46
-1.78
3.93
8.83
12.51
15.06
16.80
17.98
18.69
18.93
18.75
18.41
18.29
18.76
19.90
21.47
22.95
23.75
23.37
21.61
18.59
14.72
10.56
6.73
3.69
1.63
0.36
-0.63
-2.00
-4.28
-7.70
-12.07
-16.89
-21.51
-25.47
-28.61
-31.13
-33.52
-36.26
-39.73
-44.00
-48.92
-54.16
-59.35
-64.15
-68.27
-71.51
-73.69
-74.69
-74.37
-72.66
-69.47
-64.75
-58.52
-50.96
-42.45
-33.48
-24.56
-16.02
-8.03
-0.60
6.29
12.53
17.92
22.21
25.26
27.01
27.56
26.94
25.09
21.95
17.58
12.39
7.21
3.16
1.26
2.11
5.60
10.97
17.09
22.81
27.29
30.16
31.41
31.27
30.06
28.20
26.06
24.06
22.52
21.57
21.13
20.93
20.64
19.97
18.67
16.56
13.49
9.31
3.91
-2.60
-9.81
-16.95
-23.01
-26.94
-27.91
-25.56
-20.09
-12.31
-3.40
5.35
12.90
18.64
22.44
24.61
25.64
26.06
26.35
26.82
27.73
29.25
31.44
34.16
37.09
39.73
41.65
42.60
42.68
42.28
41.90
41.94
42.52
43.42
44.17
44.28
43.40
41.42
38.48
34.79
30.59
26.07
21.38
16.68
12.16
7.98
4.22
0.77
-2.60
-6.17
-10.23
-14.94
-20.33
-26.29
-32.55
-38.66
-44.07
-48.17
-50.49
-50.82
-49.28
-46.25
-42.21
-37.59
-32.72
-27.78
-22.89
-18.17
-13.69
-9.51
-5.66
-2.21
0.65
2.66
3.54
3.19
1.77
-0.30
-2.48
-4.36
-5.77
-6.83
-7.75
-8.58
-9.13
-8.99
-7.77
-5.34
-2.00
1.64
4.90
7.23
8.36
8.28
7.09
4.95
1.93
-1.81
-6.05
-10.43
-14.58
-18.26
-21.51
-24.65
-28.17
-32.51
-37.77
-43.60
-49.21
-53.52
-55.58
-54.77
-51.02
-44.86
-37.12
-28.73
-20.44
-12.77
-5.97
-0.15
4.61
8.31
10.98
12.81
14.04
14.98
15.81
16.58
17.21
17.53
17.48
17.12
16.61
16.12
15.78
15.58
15.49
15.53
15.74
16.25
17.03
17.83
18.12
17.20
14.39
9.29
1.93
-7.19
-17.18
-26.93
-35.24
-41.12
-43.94
-43.65
-40.86
-36.71
-32.56
-29.66
-28.74
-29.89
-32.53
-35.67
-38.24
-39.28
-38.24
-35.02
-29.92
-23.46
-16.19
-8.52
-0.68
7.21
14.97
22.30
28.84
34.30
38.61
42.01
44.98
47.97
51.18
54.47
57.37
59.30
59.88
59.11
57.49
55.77
54.68
54.48
54.77
54.65
53.17
49.84
44.94
39.51
34.84
32.03
31.61
33.60
37.55
42.67
47.61
50.37
48.66
40.74
26.57
8.30
-10.28
-25.23
-34.09
-36.88
-35.60
-32.89
-30.47
-28.50
-26.03
-22.00
-16.23
-9.56
-3.22
2.00
6.17
10.12
14.79
20.60
27.21
33.69
39.02
42.51
44.19
44.57
44.42
44.31
44.37
44.33
43.64
41.87
38.81
34.70
30.00
25.27
20.94
17.16
13.78
10.47
6.89
2.84
-1.69
-6.52
-11.43
-16.23
-20.89
-25.46
-30.04
-34.66
-39.31
-43.99
-48.70
-53.47
-58.16
-62.39
-65.52
-66.78
-65.52
-61.56
-55.24
-47.41
-39.16
-31.54
-25.26
-20.61
-17.57
-15.88
-15.20
-15.23
-15.63
-16.18
-16.72
-17.22
-17.72
-18.26
-18.76
-18.98
-18.60
-17.27
-14.96
-12.02
-9.02
-6.50
-4.90
-4.35
-4.70
-5.50
-6.14
-6.05
-5.00
-3.06
-0.56
1.82
3.27
3.08
0.90
-2.94
-7.71
-12.77
-17.33
-20.67
-22.62
-23.53
-24.18
-25.36
-26.93
-28.27
-28.95
-27.72
-22.79
-12.78
3.06
24.84
52.12
84.87
121.96
159.61
194.50
224.65
248.91
267.26
280.54
289.90
297.98
306.24
312.72
316.72
319.32
321.24
322.35
321.40
316.45
307.96
296.58
280.44
260.53
240.39
222.64
208.36
197.06
173.73
132.18
92.71
62.32
36.88
15.24
-4.06
-22.95
-43.49
-67.13
-92.01
-115.87
-139.72
-162.91
-183.37
-200.58
-215.35
-229.28
-244.01
-259.07
-274.29
-292.33
-314.14
-337.93
-360.37
-376.76
-382.48
-375.11
-354.95
-326.51
-297.86
-274.88
-258.62
-246.33
-233.50
-216.68
-195.36
-171.24
-147.04
-125.12
-105.25
-85.26
-63.49
-40.22
-17.85
0.25
11.80
16.43
15.65
12.30
9.13
7.64
7.64
7.94
7.40
5.78
3.89
3.08
4.39
7.81
12.25
15.99
17.52
16.27
12.81
8.54
4.98
3.06
2.74
3.07
2.62
0.23
-4.53
-11.08
-17.93
-23.30
-25.54
-23.79
-18.17
-9.70
-0.02
9.21
16.64
21.60
24.10
24.66
24.00
22.80
21.54
20.54
20.03
20.09
20.76
21.93
23.30
24.51
25.22
25.26
24.70
23.75
22.64
21.53
20.47
19.49
18.60
17.83
17.14
16.39
15.36
13.81
11.62
8.85
5.73
2.51
-0.67
-3.83
-7.13
-10.74
-14.69
-18.93
-23.39
-28.06
-32.99
-38.05
-42.82
-46.47
-47.98
-46.50
-41.65
-33.79
-23.90
-13.27
-3.14
5.63
12.65
17.90
21.62
24.09
25.57
26.26
26.36
26.05
25.51
24.83
24.01
22.96
21.56
19.78
17.69
15.42
13.15
10.97
8.84
6.67
4.34
1.76
-1.05
-4.05
-7.18
-10.44
-13.89
-17.67
-21.99
-27.03
-32.86
-39.32
-46.02
-52.43
-58.10
-62.77
-66.52
-69.71
-72.73
-75.77
-78.70
-81.05
-82.11
-81.05
-77.03
-69.39
-57.85
-42.68
-24.77
-5.52
13.57
31.42
47.52
62.00
75.22
87.53
98.89
109.07
117.80
125.11
131.37
137.23
143.38
150.39
158.54
167.84
178.05
188.72
199.21
208.70
216.25
220.78
221.23
216.75
206.86
191.72
172.19
149.63
125.62
101.47
77.96
55.26
33.36
12.44
-6.79
-23.20
-35.82
-44.39
-49.83
-54.01
-59.16
-66.99
-78.15
-92.09
-107.47
-122.68
-136.34
-147.49
-155.59
-160.36
-161.75
-159.86
-155.04
-147.82
-138.87
-128.82
-118.19
-107.30
-96.37
-85.60
-75.25
-65.67
-57.26
-50.31
-44.86
-40.69
-37.32
-34.22
-30.95
-27.26
-23.17
-18.79
-14.33
-9.97
-5.95
-2.44
0.35
2.30
3.33
3.46
2.77
1.35
-0.71
-3.43
-6.85
-11.08
-16.27
-22.55
-29.92
-38.13
-46.65
-54.60
-60.86
-64.25
-63.73
-58.55
-48.36
-33.42
-14.59
6.70
28.73
49.78
68.56
84.31
96.78
105.94
111.81
114.38
113.75
110.34
104.86
98.24
91.36
84.80
78.90
73.72
69.26
65.36
61.66
57.58
52.27
44.91
34.80
21.58
5.32
-13.33
-33.07
-51.90
-67.58
-78.23
-83.11
-83.07
-80.19
-77.04
-75.60
-76.72
-80.24
-85.68
-92.87
-102.08
-113.58
-126.82
-140.06
-150.73
-156.40
-155.82
-149.53
-139.51
-128.33
-118.04
-109.57
-102.70
-96.49
-89.94
-82.43
-73.89
-64.64
-55.19
-46.02
-37.48
-29.77
-22.85
-16.50
-10.33
-3.81
3.59
12.34
22.56
33.89
45.51
56.23
64.94
70.94
74.11
74.92
73.93
71.59
68.00
63.04
56.58
48.71
39.76
30.16
20.24
10.10
-0.46
-11.86
-24.70
-39.60
-56.92
-76.48
-97.31
-117.62
-135.22
-148.11
-155.06
-155.86
-151.22
-142.28
-130.09
-115.36
-98.39
-79.18
-57.54
-33.12
-5.38
26.00
60.66
96.97
131.95
161.84
183.26
194.43
195.63
188.99
177.23
162.66
146.50
129.25
111.31
93.53
77.14
63.16
51.90
42.77
34.80
27.22
19.85
12.92
6.67
0.99
-4.47
-9.96
-15.32
-20.00
-23.54
-26.14
-28.85
-33.29
-40.96
-52.55
-67.54
-84.41
-101.02
-115.32
-125.88
-132.25
-135.07
-135.88
-136.60
-138.88
-143.59
-150.57
-158.70
-166.23
-171.24
-172.02
-167.47
-157.20
-141.28
-119.90
-93.05
-60.55
-22.51
19.95
64.22
106.26
141.59
166.77
180.77
185.55
185.32
184.98
188.19
196.08
207.14
218.11
225.56
227.14
222.32
212.04
197.91
181.38
163.23
143.80
123.51
103.16
83.90
66.72
51.99
39.22
27.27
15.05
2.16
-10.79
-22.27
-30.44
-33.91
-32.28
-26.31
-17.62
-8.09
0.77
8.18
14.12
19.05
23.53
27.89
32.09
35.82
38.69
40.48
41.24
41.21
40.79
40.34
40.09
40.12
40.42
40.89
41.40
41.83
42.00
41.76
40.99
39.65
37.81
35.56
33.06
30.37
27.50
24.39
20.98
17.25
13.28
9.22
5.21
1.34
-2.39
-6.05
-9.72
-13.50
-17.52
-21.98
-27.02
-32.60
-38.33
-43.42
-46.83
-47.63
-45.28
-39.87
-32.06
-22.85
-13.25
-4.03
4.27
11.43
17.36
22.10
25.77
28.55
30.64
32.22
33.42
34.27
34.82
35.10
35.17
35.16
35.25
35.58
36.17
36.94
37.64
37.96
37.68
36.79
35.47
34.08
32.98
32.34
32.07
31.78
30.95
29.03
25.66
20.73
14.44
7.25
-0.19
-7.20
-13.20
-17.85
-21.15
-23.45
-25.35
-27.41
-29.88
-32.56
-34.78
-35.65
-34.35
-30.47
-24.12
-15.87
-6.53
3.05
12.13
20.18
26.81
31.81
35.12
36.84
37.28
36.95
36.58
36.96
38.84
42.76
48.98
57.43
67.85
79.87
93.00
106.61
119.65
130.77
138.05
139.31
132.49
116.95
93.68
65.14
34.38
4.22
-23.15
-46.65
-66.20
-82.57
-96.25
-107.37
-115.67
-120.87
-122.67
-120.31
-113.34
-101.96
-87.77
-72.15
-56.28
-40.90
-26.51
-13.05
1.56
19.22
40.62
63.13
85.21
106.04
125.67
143.94
160.62
178.51
199.13
221.34
237.98
245.39
243.07
233.63
220.19
206.15
199.68
206.63
227.87
253.42
277.25
296.37
311.00
321.39
328.59
341.35
367.37
409.36
456.31
501.55
540.93
572.98
595.33
564.70
458.02
281.91
116.24
-13.31
-103.71
-172.57
-226.63
-270.56
-307.70
-333.92
-346.09
-345.20
-343.94
-347.98
-358.01
-370.46
-382.70
-392.52
-393.13
-379.82
-352.58
-321.91
-293.99
-271.49
-253.57
-239.61
-229.01
-218.08
-204.26
-187.34
-172.89
-162.97
-157.14
-153.08
-149.38
-145.39
-139.42
-130.39
-118.28
-105.89
-94.47
-84.23
-74.64
-65.46
-56.80
-48.44
-40.66
-34.40
-31.56
-33.04
-38.48
-46.33
-54.48
-60.85
-64.00
-63.49
-59.99
-55.00
-50.48
-48.20
-49.38
-54.25
-61.95
-70.71
-78.29
-82.60
-82.42
-77.86
-70.54
-63.19
-58.75
-59.22
-64.80
-73.68
-82.79
-89.04
-90.56
-87.35
-80.96
-73.58
-66.97
-61.84
-57.66
-53.06
-46.28
-35.83
-20.99
-2.23
18.73
39.07
55.71
66.19
69.51
66.24
58.07
46.93
34.23
20.68
6.64
-7.43
-20.62
-31.63
-39.26
-42.95
-43.21
-41.68
-40.71
-42.70
-49.48
-61.66
-78.52
-98.01
-117.06
-132.21
-140.37
-139.47
-128.98
-109.93
-84.46
-55.11
-24.20
6.64
36.48
64.84
91.20
114.72
134.26
148.74
157.66
161.41
161.23
158.74
155.31
151.65
147.77
143.32
138.14
132.51
127.05
122.32
118.46
115.05
111.34
106.72
101.05
94.77
88.66
83.46
79.54
76.70
74.18
70.97
66.08
58.99
49.71
38.82
27.16
15.54
4.53
-5.71
-15.31
-24.58
-33.82
-43.22
-52.87
-62.91
-73.65
-85.59
-99.17
-114.41
-130.48
-145.78
-158.35
-166.62
-170.09
-169.34
-165.65
-160.19
-153.44
-145.22
-135.11
-122.95
-109.02
-93.70
-77.14
-59.11
-39.48
-18.76
1.57
19.43
33.16
42.49
48.87
54.89
63.11
74.82
89.48
104.91
118.17
126.56
128.41
123.44
112.55
97.47
80.17
62.35
45.07
28.69
13.00
-2.40
-17.80
-33.25
-48.55
-63.37
-77.37
-90.24
-101.77
-111.85
-120.61
-128.36
-135.54
-142.37
-148.62
-153.44
-155.54
-153.60
-146.74
-134.87
-118.74
-99.74
-79.52
-59.65
-41.34
-25.39
-12.21
-1.97
5.32
9.69
11.31
10.56
8.02
4.52
0.93
-2.15
-4.58
-6.77
-9.46
-13.35
-18.69
-25.14
-31.78
-37.37
-40.60
-40.53
-36.85
-30.10
-21.55
-12.84
-5.30
0.58
5.46
10.75
17.94
27.76
39.90
53.22
66.40
78.62
89.79
100.33
110.59
120.45
129.17
135.61
138.53
136.96
130.45
119.26
104.43
87.77
71.58
58.22
49.58
46.54
48.84
55.26
63.91
72.72
79.72
83.28
82.39
76.79
67.13
54.86
41.86
29.88
20.01
12.37
6.14
-0.02
-7.56
-17.47
-30.00
-44.55
-59.87
-74.48
-87.17
-97.37
-105.12
-110.75
-114.44
-115.95
-114.78
-110.61
-103.62
-94.58
-84.52
-74.26
-64.12
-54.12
-44.30
-35.06
-27.15
-21.27
-17.58
-15.56
-14.07
-11.92
-8.35
-3.28
2.69
8.64
13.75
17.44
19.60
20.38
20.03
18.75
16.53
13.20
8.57
2.59
-4.53
-12.36
-20.42
-28.34
-35.93
-43.28
-50.58
-57.99
-65.54
-73.17
-80.63
-87.49
-93.06
-96.38
-96.43
-92.44
-84.20
-72.28
-57.91
-42.64
-27.93
-14.79
-3.68
5.31
12.37
17.76
21.75
24.65
26.76
28.37
29.65
30.75
31.79
32.95
34.47
36.51
39.11
42.09
45.06
47.61
49.42
50.34
50.39
49.61
48.01
45.58
42.35
38.40
33.94
29.20
24.34
19.43
14.43
9.22
3.71
-2.16
-8.41
-15.01
-22.00
-29.46
-37.39
-45.55
-53.26
-59.43
-62.78
-62.24
-57.33
-48.41
-36.54
-23.22
-9.86
2.43
13.08
21.92
29.02
34.56
38.69
41.55
43.23
43.86
43.55
42.43
40.71
38.66
36.60
34.85
33.64
33.02
32.84
32.80
32.55
31.77
30.31
28.15
25.40
22.26
18.84
15.22
11.32
7.07
2.40
-2.65
-7.92
-13.20
-18.18
-22.67
-26.58
-30.09
-33.55
-37.49
-42.40
-48.53
-55.64
-62.93
-69.13
-72.78
-72.62
-68.01
-59.11
-46.84
-32.64
-18.07
-4.40
7.53
17.46
25.54
32.09
37.38
41.56
44.60
46.51
47.39
47.49
47.17
46.73
46.26
45.68
44.80
43.56
42.12
40.72
39.56
38.57
37.38
35.50
32.57
28.60
23.92
19.02
14.23
9.60
4.91
-0.03
-5.28
-10.63
-15.79
-20.50
-24.76
-28.80
-32.99
-37.75
-43.38
-50.08
-57.73
-65.79
-73.29
-78.78
-80.72
-77.88
-69.82
-57.12
-41.21
-24.08
-7.62
6.77
18.48
27.60
34.64
40.15
44.55
48.02
50.60
52.34
53.35
53.77
53.72
53.24
52.30
50.94
49.30
47.61
46.18
45.12
44.33
43.49
42.15
39.94
36.77
32.81
28.46
24.16
20.20
16.61
13.19
9.62
5.63
1.11
-3.82
-8.92
-13.88
-18.49
-22.76
-26.87
-31.26
-36.44
-42.79
-50.37
-58.71
-66.78
-73.15
-76.34
-75.20
-69.26
-58.84
-45.03
-29.28
-13.10
2.25
15.91
27.43
36.64
43.57
48.36
51.24
52.47
52.34
51.13
49.08
46.39
43.27
39.96
36.73
33.79
31.32
29.44
28.16
27.44
27.09
26.79
26.12
24.67
22.18
18.68
14.47
10.01
5.70
1.68
-2.15
-6.10
-10.46
-15.34
-20.59
-25.83
-30.61
-34.61
-37.76
-40.31
-42.82
-45.94
-50.25
-55.95
-62.76
-69.78
-75.65
-78.84
-78.06
-72.68
-62.95
-49.93
-35.24
-20.51
-7.02
4.56
14.10
21.77
27.81
32.33
35.34
36.92
37.35
37.06
36.52
36.06
35.71
35.34
34.75
33.90
32.96
32.22
31.90
31.96
32.07
31.72
30.45
28.05
24.66
20.73
16.78
13.21
10.13
7.31
4.34
0.77
-3.65
-8.88
-14.58
-20.23
-25.32
-29.57
-33.03
-36.11
-39.45
-43.72
-49.31
-56.16
-63.52
-70.13
-74.42
-75.01
-71.10
-62.77
-50.91
-36.91
-22.34
-8.50
3.71
13.86
21.85
27.84
32.17
35.29
37.66
39.67
41.48
43.04
44.16
44.68
44.57
44.00
43.24
42.62
42.37
42.58
43.17
43.91
44.41
44.25
43.06
40.71
37.36
33.44
29.42
25.60
21.91
18.01
13.45
7.96
1.60
-5.23
-12.04
-18.42
-24.28
-29.74
-35.12
-40.76
-47.04
-54.21
-62.33
-71.06
-79.51
-86.27
-89.82
-88.93
-83.15
-73.02
-59.84
-45.24
-30.71
-17.26
-5.44
4.63
13.00
19.86
25.42
29.92
33.64
36.75
39.34
41.36
42.73
43.39
43.38
42.90
42.26
41.77
41.65
41.99
42.61
43.20
43.34
42.66
40.90
38.05
34.29
29.99
25.57
21.38
17.57
14.00
10.33
6.11
1.10
-4.67
-10.83
-16.80
-22.08
-26.50
-30.31
-34.14
-38.78
-44.87
-52.56
-61.40
-70.32
-77.79
-82.22
-82.31
-77.47
-67.92
-54.74
-39.51
-24.01
-9.71
2.50
12.39
20.27
26.72
32.24
37.09
41.24
44.50
46.68
47.78
47.93
47.32
46.14
44.49
42.47
40.22
37.96
35.91
34.21
32.79
31.42
29.78
27.63
24.83
21.45
17.69
13.81
10.05
6.64
3.71
1.36
-0.39
-1.57
-2.22
-2.43
-2.36
-2.20
-2.17
-2.63
-3.98
-6.67
-11.03
-17.11
-24.45
-32.05
-38.46
-42.21
-42.18
-38.05
-30.40
-20.48
-9.83
0.22
8.86
15.93
21.70
26.58
30.88
34.63
37.66
39.75
40.79
40.85
40.19
39.08
37.81
36.60
35.61
34.94
34.60
34.56
34.66
34.73
34.51
33.82
32.46
30.36
27.51
24.06
20.27
16.46
12.84
9.41
5.95
2.13
-2.31
-7.37
-12.81
-18.21
-23.16
-27.46
-31.20
-34.72
-38.49
-43.00
-48.57
-55.28
-62.84
-70.57
-77.39
-81.97
-83.03
-79.69
-71.82
-60.16
-46.11
-31.38
-17.39
-4.91
5.99
15.71
24.70
33.13
40.76
47.09
51.62
54.07
54.52
53.33
51.01
48.11
45.11
42.44
40.47
39.47
39.61
40.89
43.11
45.86
48.60
50.83
52.15
52.42
51.74
50.42
48.77
47.04
45.30
43.54
41.66
39.62
37.43
35.14
32.83
30.53
28.21
25.72
22.84
19.33
14.90
9.45
3.10
-3.68
-10.12
-15.19
-17.91
-17.56
-13.97
-7.63
0.47
9.03
16.81
22.97
27.14
29.50
30.52
30.76
30.68
30.46
30.02
29.10
27.39
24.67
20.91
16.28
11.06
5.65
0.44
-4.24
-8.18
-11.28
-13.68
-15.70
-17.86
-20.69
-24.59
-29.66
-35.61
-41.96
-48.14
-53.76
-58.74
-63.26
-67.67
-72.32
-77.44
-83.05
-89.01
-95.10
-101.03
-106.51
-111.29
-115.20
-118.23
-120.63
-122.86
-125.38
-128.40
-131.58
-133.99
-134.34
-131.44
-124.66
-114.24
-101.21
-86.97
-72.81
-59.51
-47.26
-35.83
-24.95
-14.39
-4.11
5.76
14.94
23.01
29.44
33.77
35.81
35.90
34.87
33.85
33.80
35.22
38.05
41.79
45.85
49.78
53.25
55.94
57.48
57.53
55.95
52.82
48.47
43.19
37.14
30.36
22.95
15.28
8.05
1.95
-2.64
-5.94
-8.74
-12.06
-16.75
-23.18
-31.26
-40.67
-51.20
-62.79
-75.35
-88.42
-100.99
-111.54
-118.48
-120.63
-117.66
-110.14
-99.30
-86.60
-73.28
-60.13
-47.45
-35.23
-23.33
-11.68
-0.35
10.33
19.81
27.35
32.25
34.02
32.53
28.15
21.79
14.80
8.75
5.00
4.16
5.88
9.04
12.36
15.22
18.02
22.11
29.04
39.91
54.86
72.94
92.35
110.79
125.80
135.20
137.54
132.62
121.74
107.55
93.26
81.61
73.99
70.16
68.88
68.86
69.65
71.75
76.04
82.84
91.24
99.23
104.48
105.47
102.15
95.89
88.67
82.35
78.24
77.38
80.93
90.09
105.45
126.13
149.31
170.81
186.45
193.61
192.01
183.60
171.41
158.26
145.81
134.41
123.57
112.59
101.11
89.09
76.71
64.02
50.88
37.04
22.37
7.10
-8.25
-23.05
-36.74
-48.96
-59.44
-67.83
-73.51
-75.80
-74.12
-68.21
-58.25
-44.86
-29.04
-12.10
4.51
19.67
32.94
44.82
56.50
69.09
82.65
95.78
106.13
111.44
111.07
106.72
102.15
101.96
110.24
129.58
160.52
201.25
247.60
293.23
330.56
352.53
354.63
336.40
301.53
256.43
207.91
161.18
118.97
81.89
49.60
21.64
-2.28
-22.66
-40.53
-57.37
-74.50
-92.48
-110.87
-128.62
-144.63
-158.54
-171.06
-183.65
-197.96
-215.05
-234.94
-256.58
-278.28
-298.43
-316.18
-331.86
-346.96
-363.71
-384.24
-409.52
-438.54
-467.98
-492.82
-507.69
-508.57
-494.00
-465.43
-426.26
-380.51
-331.44
-280.99
-230.08
-179.48
-130.50
-85.38
-47.07
-18.63
-2.59
-0.23
-10.83
-31.33
-56.43
-79.54
-94.33
-96.50
-84.81
-61.01
-28.89
7.12
42.94
75.15
100.88
117.81
124.23
119.53
104.33
80.22
49.40
14.34
-22.05
-56.28
-84.49
-103.27
-111.07
-109.09
-101.23
-92.68
-87.86
-88.72
-94.20
-100.99
-105.07
-103.34
-94.38
-78.66
-57.96
-34.72
-11.41
9.94
28.10
42.64
53.77
62.28
69.15
75.38
81.66
88.16
94.43
99.48
102.09
101.29
96.89
89.72
81.59
74.90
71.81
73.59
80.15
90.06
100.99
110.50
116.64
118.31
115.23
107.67
96.16
81.34
64.00
45.15
26.03
7.95
-7.93
-20.78
-30.20
-36.21
-39.41
-41.07
-43.22
-48.43
-59.06
-76.32
-99.42
-125.37
-149.49
-166.82
-173.49
-167.90
-151.03
-125.94
-96.68
-67.22
-40.55
-18.45
-1.51
10.62
19.03
25.37
31.52
39.20
49.46
62.28
76.49
90.12
101.08
107.80
109.66
107.01
100.88
92.49
83.07
73.76
65.53
59.20
55.17
53.25
52.65
52.07
50.10
45.59
37.97
27.34
14.44
0.38
-13.58
-26.34
-37.27
-46.32
-54.02
-61.31
-69.12
-77.95
-87.46
-96.38
-102.80
-104.75
-100.81
-90.68
-75.21
-56.10
-35.35
-14.79
4.20
20.75
34.35
44.90
52.68
58.35
62.80
66.82
70.84
74.67
77.75
79.47
79.55
78.17
75.78
72.81
69.38
65.32
60.43
54.73
48.61
42.66
37.43
33.14
29.66
26.58
23.38
19.66
15.10
9.54
2.96
-4.52
-12.57
-20.65
-28.18
-34.69
-40.10
-44.79
-49.46
-54.84
-61.24
-68.28
-74.86
-79.48
-80.63
-77.35
-69.47
-57.64
-43.10
-27.26
-11.41
3.48
16.87
28.53
38.45
46.76
53.56
58.91
62.70
64.80
65.23
64.30
62.60
60.94
60.00
60.25
61.69
63.82
65.87
67.17
67.46
66.90
65.93
64.98
64.20
63.50
62.47
60.68
57.97
54.47
50.45
46.18
41.71
37.06
32.26
26.84
20.36
12.72
4.32
-4.18
-12.02
-19.05
-25.27
-30.59
-35.68
-40.56
-44.04
-43.88
-37.98
-25.52
-8.53
9.63
25.40
34.52
34.45
25.19
9.04
-10.87
-31.53
-52.18
-72.42
-91.76
-112.03
-135.12
-162.10
-192.45
-224.64
-256.25
-286.28
-312.95
-320.87
-298.86
-246.33
-175.66
-103.16
-43.83
6.11
51.59
95.34
137.33
170.37
186.54
181.04
154.84
114.21
68.74
26.06
-8.59
-33.43
-51.90
-69.16
-89.35
-112.97
-136.46
-153.00
-156.32
-141.35
-105.73
-51.67
16.08
91.92
170.77
247.92
318.47
376.22
415.60
433.52
430.06
409.08
376.50
338.01
296.83
253.33
205.86
153.37
96.91
39.35
-15.61
-65.00
-107.05
-141.00
-166.25
-182.14
-187.94
-183.63
-170.59
-151.63
-130.54
-111.12
-96.17
-86.68
-81.49
-77.55
-70.77
-57.68
-36.79
-9.54
19.96
46.75
67.47
82.32
94.94
110.41
132.11
159.35
187.01
207.64
214.55
204.54
179.04
143.06
103.22
65.68
34.92
13.75
4.03
6.99
22.86
50.24
85.45
122.95
156.85
182.61
198.46
205.54
206.98
206.16
205.10
203.73
199.96
190.53
172.21
143.03
103.40
56.69
9.00
-32.22
-60.39
-72.14
-68.64
-55.24
-39.40
-28.15
-25.85
-33.36
-48.63
-68.11
-88.26
-106.27
-120.14
-128.38
-130.04
-125.08
-114.62
-100.71
-85.53
-70.78
-57.35
-45.75
-36.77
-31.59
-31.12
-34.97
-40.82
-45.02
-44.28
-37.28
-25.43
-11.94
0.01
9.06
15.99
22.50
29.44
35.53
37.51
31.49
14.82
-12.45
-47.37
-84.88
-119.34
-146.13
-162.91
-169.99
-170.10
-167.47
-166.33
-169.59
-177.85
-189.33
-200.69
-208.22
-208.95
-200.94
-183.09
-154.81
-116.54
-70.72
-22.64
19.90
48.66
57.90
46.82
19.76
-15.73
-52.27
-84.91
-111.30
-130.11
-139.36
-136.42
-119.76
-91.57
-58.53
-30.13
-14.68
-15.56
-29.81
-49.78
-66.93
-75.33
-73.33
-62.94
-48.06
-32.90
-21.27
-16.40
-20.57
-34.37
-55.88
-80.83
-103.82
-120.11
-127.26
-125.44
-116.55
-102.64
-84.82
-63.30
-38.14
-10.15
18.81
46.30
70.14
88.98
102.29
110.06
112.39
109.56
102.36
92.48
82.44
74.98
72.16
74.69
81.68
91.07
100.36
107.28
110.25
108.72
103.44
96.54
91.19
90.58
96.59
108.58
123.18
135.18
139.53
133.20
116.28
91.80
64.40
38.67
18.00
4.13
-2.53
-2.50
3.07
12.52
23.90
35.30
45.34
53.46
59.78
64.68
68.23
69.97
68.99
64.48
56.13
44.38
30.07
13.93
-3.62
-22.40
-41.86
-60.57
-76.24
-86.22
-88.41
-81.93
-67.47
-46.95
-23.00
1.49
23.75
41.19
51.69
53.79
47.16
32.85
13.03
-9.49
-32.04
-52.63
-70.20
-84.47
-95.79
-104.94
-112.96
-121.10
-130.44
-141.55
-154.10
-166.73
-177.31
-183.53
-183.69
-177.19
-164.70
-147.78
-128.42
-108.36
-88.94
-70.87
-54.46
-39.82
-26.97
-15.96
-6.83
0.49
6.20
10.74
14.66
18.50
22.62
27.08
31.65
35.92
39.53
42.34
44.51
46.39
48.35
50.54
52.69
54.24
54.46
52.86
49.33
44.22
38.15
31.67
25.12
18.46
11.36
3.33
-6.15
-17.48
-30.75
-45.45
-60.25
-73.07
-81.42
-83.18
-77.29
-64.24
-45.95
-25.14
-4.46
14.20
30.01
42.97
53.50
62.01
68.67
73.55
76.76
78.63
79.70
80.49
81.39
82.38
83.12
83.13
82.01
79.76
76.65
73.24
70.00
67.20
64.70
62.05
58.64
53.89
47.46
39.35
29.94
19.91
9.97
0.63
-7.90
-15.85
-23.74
-32.21
-41.82
-52.92
-65.41
-78.61
-91.15
-101.05
-106.03
-104.23
-94.75
-78.17
-56.43
-32.28
-8.41
13.29
32.04
48.04
61.86
74.01
84.60
93.45
100.38
105.47
109.06
111.56
113.25
114.05
113.71
112.01
109.00
105.09
100.90
96.95
93.42
90.11
86.54
82.19
76.75
70.18
62.62
54.28
45.27
35.59
25.26
14.45
3.51
-7.09
-16.98
-26.14
-35.03
-44.44
-55.24
-67.90
-82.11
-96.65
-109.45
-118.14
-120.61
-115.66
-103.44
-85.38
-63.81
-41.30
-19.95
-1.03
15.07
28.59
39.97
49.60
57.61
64.02
68.74
71.84
73.46
73.89
73.44
72.44
71.12
69.66
68.11
66.48
64.73
62.88
60.93
58.87
56.63
54.03
50.83
46.79
41.73
35.56
28.29
20.07
11.16
2.01
-6.97
-15.43
-23.32
-30.94
-38.87
-47.77
-58.14
-70.04
-82.89
-95.44
-105.82
-111.96
-112.07
-105.20
-91.66
-72.98
-51.51
-29.77
-9.78
7.27
21.04
31.78
39.97
46.16
50.74
54.09
56.44
57.95
58.71
58.80
58.28
57.28
55.92
54.21
52.11
49.41
46.01
41.91
37.38
32.88
28.86
25.62
23.07
20.74
17.92
13.93
8.38
1.34
-6.75
-15.30
-23.84
-32.21
-40.59
-49.34
-58.93
-69.71
-81.85
-95.16
-108.90
-121.64
-131.37
-135.83
-133.17
-122.62
-104.85
-81.86
-56.36
-30.96
-7.56
12.92
30.36
45.11
57.42
67.33
74.71
79.51
81.92
82.34
81.33
79.39
77.03
74.55
72.16
70.04
68.41
67.49
67.52
68.63
70.77
73.97
77.89
81.84
84.86
86.05
84.78
80.95
75.01
67.93
61.44
56.68
53.87
52.47
51.72
51.04
50.07
48.47
45.73
42.42
38.47
33.68
28.48
24.59
24.59
30.70
43.50
61.55
83.68
106.89
127.58
143.02
152.67
158.08
161.57
164.77
167.80
171.52
173.83
170.62
157.23
130.97
92.27
44.39
-7.41
-72.17
-145.76
-214.68
-264.07
-288.91
-295.37
-295.03
-298.51
-311.17
-331.51
-349.76
-356.81
-346.07
-316.31
-271.52
-219.51
-169.72
-130.38
-106.04
-94.79
-96.11
-106.39
-121.02
-135.29
-145.20
-148.43
-144.61
-134.83
-120.10
-103.60
-90.15
-86.13
-96.60
-122.10
-156.70
-188.59
-203.80
-191.18
-148.10
-81.26
-4.46
66.94
121.50
154.32
166.47
162.43
147.53
126.27
102.64
80.26
62.60
52.47
51.15
57.93
70.33
84.71
97.48
106.16
109.69
108.50
104.14
98.69
93.97
90.91
89.46
88.73
87.61
85.17
81.04
75.36
68.67
61.53
54.39
47.56
41.32
36.02
31.94
29.09
26.93
24.36
20.06
13.10
3.61
-6.93
-15.97
-20.61
-18.51
-8.70
8.04
29.31
51.66
71.39
85.37
91.64
89.71
80.38
65.25
46.15
24.70
2.11
-20.68
-42.67
-62.54
-78.58
-89.00
-92.37
-88.25
-77.46
-62.06
-44.95
-29.14
-16.99
-9.75
-7.35
-8.61
-11.80
-15.21
-17.75
-19.15
-19.90
-20.88
-22.82
-26.07
-30.42
-35.38
-40.46
-45.41
-50.23
-55.14
-60.42
-66.46
-73.81
-83.07
-94.55
-107.80
-121.21
-132.05
-137.13
-133.80
-120.95
-99.55
-72.45
-43.44
-16.19
6.59
23.58
34.79
41.26
44.71
47.04
49.78
53.85
59.29
65.45
71.41
76.50
80.66
84.51
88.88
94.33
100.90
108.17
115.47
122.18
127.87
132.34
135.80
138.23
139.42
139.19
137.72
135.50
133.24
131.36
129.76
128.26
125.62
120.09
110.23
95.66
77.37
57.58
39.09
25.00
19.20
24.01
39.72
64.62
95.57
128.58
159.63
185.03
202.10
210.37
209.13
197.19
173.70
139.14
95.89
47.94
-0.55
-53.21
-106.06
-151.11
-180.97
-193.17
-190.21
-179.02
-166.23
-157.69
-157.92
-168.16
-188.28
-214.92
-243.16
-266.85
-280.20
-279.11
-262.73
-233.34
-194.77
-152.84
-113.73
-82.42
-61.38
-50.56
-48.28
-52.72
-62.18
-74.76
-88.87
-103.12
-116.18
-126.51
-132.68
-133.50
-128.28
-116.80
-98.97
-75.48
-47.92
-18.59
10.00
35.68
57.02
73.53
85.59
94.31
100.85
106.02
110.07
112.69
113.31
111.45
107.00
100.40
92.51
84.41
77.06
71.06
66.45
62.68
58.65
52.79
43.42
29.13
9.15
-16.44
-46.76
-80.30
-115.15
-149.13
-179.93
-205.30
-223.34
-232.84
-233.43
-225.62
-210.54
-189.89
-165.76
-140.56
-116.70
-95.88
-78.50
-63.15
-47.03
-27.01
-1.13
30.30
64.63
97.80
125.89
146.50
159.26
165.51
167.28
166.35
163.74
159.73
154.29
147.40
139.13
129.43
118.06
104.66
89.08
71.82
54.03
37.28
23.01
12.05
4.43
-0.47
-3.53
-5.62
-7.37
-9.23
-11.48
-14.29
-17.64
-21.38
-25.39
-29.77
-35.11
-42.46
-53.00
-67.36
-84.94
-103.60
-120.02
-130.66
-133.02
-126.58
-112.88
-94.89
-75.81
-57.97
-42.39
-29.02
-17.40
-7.28
1.20
7.74
12.23
14.96
16.48
17.15
16.96
15.53
12.45
7.77
2.29
-2.61
-5.47
-5.31
-1.98
3.90
11.27
19.07
26.55
33.19
38.64
42.52
44.48
44.36
42.31
38.86
34.70
30.38
26.04
21.35
15.64
8.30
-0.84
-11.20
-21.37
-29.43
-33.30
-31.46
-23.33
-9.55
8.17
27.50
46.04
61.91
74.04
82.13
86.47
87.64
86.34
83.23
79.00
74.25
69.47
64.87
60.36
55.65
50.42
44.56
38.27
32.00
26.29
21.56
17.88
15.02
12.46
9.66
6.20
1.98
-2.79
-7.69
-12.22
-16.01
-18.97
-21.35
-23.65
-26.51
-30.54
-36.06
-42.98
-50.60
-57.71
-62.66
-63.90
-60.37
-51.83
-39.03
-23.42
-6.85
9.01
22.87
34.05
42.30
47.64
50.20
50.09
47.41
42.37
35.38
27.08
18.36
10.17
3.33
-1.70
-4.89
-6.60
-7.35
-7.57
-7.49
-7.16
-6.58
-5.92
-5.57
-6.05
-7.82
-10.98
-15.16
-19.67
-23.86
-27.53
-31.14
-35.62
-41.76
-49.70
-58.68
-67.26
-73.79
-77.00
-76.12
-70.72
-60.54
-45.47
-25.85
-2.96
20.89
42.73
59.76
70.23
73.76
71.21
64.07
53.96
42.50
31.39
22.42
17.22
16.69
20.45
26.55
32.03
33.88
30.28
21.49
9.80
-1.15
-7.77
-7.73
-0.73
11.67
26.74
41.65
54.21
63.20
68.27
69.57
67.50
62.57
55.40
46.71
37.17
27.33
17.53
8.07
-0.62
-7.82
-12.42
-13.27
-9.45
-0.78
12.07
27.59
43.72
58.44
70.15
77.99
81.87
82.22
79.69
74.86
68.15
59.83
50.16
39.51
28.46
17.66
7.78
-0.68
-7.48
-12.62
-16.25
-18.63
-20.09
-21.08
-22.17
-24.05
-27.33
-32.41
-39.29
-47.56
-56.62
-65.83
-74.67
-82.81
-89.96
-95.89
-100.40
-103.44
-105.11
-105.55
-104.78
-102.47
-97.98
-90.58
-79.81
-65.84
-49.48
-32.08
-15.10
0.19
12.90
22.60
29.21
32.95
34.20
33.74
32.87
33.38
37.14
45.37
57.94
73.02
87.49
97.94
101.84
98.33
88.25
73.59
56.67
39.53
23.66
10.08
-0.49
-7.56
-10.97
-11.04
-8.57
-4.85
-1.38
0.33
-0.83
-5.23
-12.44
-21.33
-30.57
-39.19
-46.99
-54.42
-62.08
-70.02
-77.34
-82.24
-82.66
-77.21
-65.87
-50.09
-32.32
-15.11
-0.20
11.85
21.39
29.17
35.67
41.01
45.12
48.14
50.55
52.94
55.58
58.16
59.85
59.86
57.84
54.19
49.71
45.12
40.76
36.46
31.93
27.11
22.31
17.97
14.39
11.38
8.42
4.89
0.49
-4.57
-9.73
-14.30
-17.90
-20.58
-22.83
-25.36
-28.91
-34.03
-40.85
-48.98
-57.45
-64.79
-69.32
-69.60
-64.89
-55.48
-42.65
-28.23
-14.07
-1.56
8.66
16.48
22.12
25.78
27.62
27.78
26.46
24.04
21.01
17.87
15.00
12.60
10.75
9.45
8.71
8.51
8.80
9.38
9.96
10.08
9.25
7.07
3.37
-1.74
-7.85
-14.40
-20.82
-26.69
-31.88
-36.48
-40.77
-44.98
-49.21
-53.38
-57.33
-60.93
-64.37
-68.20
-73.25
-80.19
-89.06
-99.00
-108.39
-115.38
-118.65
-117.84
-113.82
-108.18
-102.69
-98.61
-96.40
-95.72
-95.52
-93.96
-88.48
-75.98
-53.97
-21.93
17.67
59.40
96.52
123.40
137.53
140.20
135.34
127.41
119.46
112.51
106.34
100.87
97.08
96.60
100.59
108.53
118.08
125.82
128.85
125.93
117.88
107.05
96.10
86.84
79.77
74.15
68.62
61.93
53.26
42.29
29.12
14.24
-1.35
-16.07
-28.02
-35.47
-37.50
-34.39
-27.46
-18.58
-9.50
-1.33
5.47
10.85
14.82
17.35
18.42
18.30
17.55
16.82
16.53
16.60
16.40
15.03
11.71
6.06
-1.60
-10.37
-18.99
-26.17
-30.92
-32.84
-32.22
-29.90
-27.00
-24.52
-23.00
-22.45
-22.48
-22.61
-22.56
-22.45
-22.66
-23.62
-25.55
-28.31
-31.50
-34.61
-37.33
-39.74
-42.33
-45.70
-50.23
-55.63
-60.93
-64.66
-65.36
-61.97
-54.00
-41.53
-25.05
-5.41
16.10
37.70
57.25
72.73
82.82
87.32
87.15
83.87
79.06
73.81
68.68
63.84
59.41
55.49
52.12
49.15
46.18
42.78
38.67
33.91
28.90
24.09
19.82
16.10
12.66
9.13
5.25
0.97
-3.56
-8.13
-12.65
-17.15
-21.86
-26.98
-32.66
-38.83
-45.30
-51.82
-58.22
-64.51
-70.77
-76.97
-82.74
-87.26
-89.34
-87.80
-81.89
-71.62
-57.91
-42.33
-26.67
-12.46
-0.62
8.58
15.40
20.37
23.98
26.58
28.27
29.01
28.67
27.24
24.85
21.80
18.57
15.78
14.08
14.05
16.01
19.83
24.87
30.12
34.45
36.99
37.36
35.68
32.34
27.76
22.21
15.82
8.74
1.23
-6.25
-13.22
-19.32
-24.39
-28.50
-31.83
-34.57
-36.87
-38.82
-40.39
-41.38
-41.43
-39.99
-36.48
-30.53
-22.14
-11.88
-0.69
10.25
19.91
27.64
33.21
36.83
38.88
39.78
39.83
39.21
37.98
36.20
33.93
31.35
28.68
26.16
24.01
22.36
21.25
20.61
20.29
20.03
19.57
18.61
16.88
14.27
10.78
6.55
1.81
-3.22
-8.41
-13.64
-18.83
-23.89
-28.67
-32.98
-36.66
-39.70
-42.20
-44.45
-46.80
-49.63
-53.08
-56.88
-60.28
-62.13
-61.19
-56.61
-48.21
-36.67
-23.24
-9.39
3.61
14.97
24.34
31.73
37.29
41.19
43.64
44.80
44.87
44.09
42.67
40.78
38.60
36.21
33.64
30.88
27.92
24.80
21.65
18.61
15.82
13.33
11.10
9.03
7.04
5.07
3.23
1.73
0.81
0.67
1.24
2.19
2.97
3.02
2.02
0.08
-2.44
-5.14
-7.92
-11.07
-15.10
-20.49
-27.33
-35.20
-43.19
-50.08
-54.59
-55.61
-52.43
-44.93
-33.70
-19.94
-5.22
8.90
21.23
31.13
38.39
43.07
45.24
