1542391872.00
64.000000
-0.00
-0.00
-0.00
-0.00
-0.00
-0.00
-0.00
-0.00
-0.00
-0.00
0.00
0.01
0.01
-0.00
-0.03
-0.05
-0.05
0.00
0.13
0.36
0.66
1.01
1.37
1.72
2.06
2.40
2.79
3.24
3.80
4.42
5.06
5.66
6.20
6.68
7.15
7.68
8.31
9.14
10.09
11.04
11.88
12.56
13.14
13.76
14.65
15.96
17.91
20.32
22.90
25.38
27.58
29.57
31.68
34.32
37.81
42.54
48.15
54.10
59.83
64.97
69.58
74.14
79.34
85.71
93.76
103.00
112.62
121.73
129.77
136.75
143.30
150.75
157.77
166.64
177.95
191.79
206.97
220.57
228.25
225.36
208.53
176.87
132.76
80.05
23.07
-34.94
-92.44
-149.16
-205.23
-260.37
-313.74
-363.87
-409.83
-450.91
-486.50
-515.74
-537.23
-549.22
-549.96
-538.37
-514.21
-478.67
-433.88
-382.45
-327.02
-269.84
-212.63
-156.66
-102.95
-52.37
-5.90
35.58
71.43
101.35
125.50
144.38
158.69
169.15
176.37
180.75
182.57
182.07
179.51
175.23
169.65
163.18
156.15
148.81
141.30
133.69
126.02
118.33
110.69
103.16
95.80
88.68
81.83
75.25
68.95
62.95
57.25
51.86
46.78
42.03
37.59
33.45
29.61
26.07
22.81
19.83
17.11
14.67
12.48
10.54
8.83
7.35
6.07
4.97
4.05
3.27
2.62
2.09
1.65
1.30
1.01
0.79
0.61
0.47
0.37
0.29
0.23
0.19
0.17
0.15
0.15
0.16
0.18
0.20
0.23
0.26
0.30
0.34
0.38
0.42
0.47
0.51
0.56
0.61
0.66
0.72
0.78
0.85
0.94
1.04
1.14
1.22
1.28
1.32
1.36
1.42
1.53
1.70
1.94
2.21
2.50
2.76
3.00
3.21
3.45
3.76
4.18
4.71
5.33
5.95
6.50
6.94
7.31
7.70
8.22
8.95
9.89
10.93
11.93
12.72
13.25
13.59
13.97
14.59
15.64
17.01
18.41
19.35
19.37
18.22
15.92
12.87
9.57
6.44
3.55
0.57
-3.04
-7.79
-13.85
-20.82
-27.79
-33.74
-37.80
-39.72
-39.91
-39.33
-39.13
-40.34
-43.55
-48.56
-54.18
-58.23
-58.30
-52.52
-40.59
-24.39
-7.24
7.11
16.03
18.78
16.56
11.86
7.46
5.50
6.91
11.16
16.56
20.81
21.80
18.60
11.99
4.29
-1.47
-3.09
0.14
7.17
15.94
24.35
31.06
35.57
37.93
38.24
36.47
32.72
27.33
21.12
15.37
11.26
9.53
10.13
12.20
14.36
15.41
14.80
12.89
10.65
9.17
8.85
9.22
9.43
8.22
4.76
-0.84
-7.50
-13.66
-18.12
-20.56
-21.73
-23.00
-25.76
-30.73
-37.63
-45.26
-51.78
-55.22
-54.00
-47.41
-35.90
-21.15
-5.58
8.29
18.68
25.04
28.00
28.91
29.07
29.17
29.17
28.59
26.99
24.24
20.64
16.65
12.75
9.20
6.21
3.86
2.28
1.54
1.47
1.71
1.66
0.67
-1.77
-5.87
-11.54
-18.41
-25.99
-33.91
-42.04
-50.58
-59.82
-69.87
-80.18
-89.50
-96.24
-99.03
-97.39
-91.93
-84.13
-75.73
-68.14
-62.25
-58.37
-56.50
-56.40
-57.68
-59.71
-61.80
-63.24
-63.61
-62.73
-60.64
-57.38
-53.11
-48.24
-43.55
-40.02
-38.37
-38.52
-39.48
-39.71
-37.84
-33.28
-26.18
-17.04
-6.26
6.12
19.94
34.40
47.85
58.31
64.41
66.31
65.83
65.67
68.15
74.18
82.93
92.25
99.74
103.58
103.12
98.86
92.07
84.25
76.61
69.70
63.45
57.45
51.40
45.32
39.64
34.88
31.36
28.88
26.88
24.72
21.92
18.36
14.19
9.62
4.80
-0.21
-5.39
-10.65
-15.91
-21.17
-26.61
-32.47
-38.97
-45.90
-52.43
-57.01
-57.83
-53.40
-43.14
-27.64
-8.49
12.30
32.82
51.66
67.97
81.38
91.80
99.46
104.85
108.65
111.46
113.54
114.75
114.68
113.12
110.20
106.49
102.51
98.41
93.72
87.62
79.37
68.88
56.81
44.42
32.97
23.31
15.69
9.99
5.98
3.42
1.95
0.80
-1.27
-5.59
-12.95
-23.01
-34.08
-43.67
-49.29
-49.37
-43.66
-33.15
-19.50
-4.57
9.89
22.32
31.35
35.98
35.88
31.70
25.11
18.47
14.16
13.96
18.48
27.02
37.74
48.19
56.00
59.48
57.99
51.96
42.75
32.06
21.50
12.16
4.37
-2.20
-8.36
-15.01
-22.87
-32.11
-42.24
-52.19
-60.48
-65.78
-67.31
-65.14
-60.23
-54.03
-47.93
-42.75
-38.64
-35.16
-31.81
-28.39
-25.16
-22.67
-21.37
-21.27
-22.03
-23.11
-24.16
-25.24
-26.74
-29.07
-32.43
-36.63
-41.15
-45.43
-49.07
-51.98
-54.39
-56.70
-59.27
-62.33
-65.81
-69.45
-72.86
-75.58
-77.18
-77.26
-75.48
-71.46
-64.94
-55.90
-44.64
-31.99
-19.06
-7.03
3.17
11.11
16.88
20.87
23.56
25.29
26.16
26.17
25.28
23.45
20.66
16.81
11.78
5.55
-1.65
-9.26
-16.45
-22.46
-26.82
-29.56
-31.04
-31.83
-32.33
-32.80
-33.38
-34.28
-35.90
-38.72
-43.00
-48.46
-54.19
-58.72
-60.54
-58.62
-52.75
-43.66
-32.68
-21.27
-10.57
-1.22
6.59
12.85
17.45
20.22
21.01
19.98
17.68
14.94
12.61
11.21
10.81
11.12
11.64
11.96
11.82
11.12
9.89
8.22
6.20
4.00
1.70
-0.79
-3.70
-7.44
-12.39
-18.72
-26.18
-34.01
-41.00
-45.75
-47.02
-44.12
-37.20
-27.25
-15.82
-4.57
5.22
12.92
18.56
22.52
25.20
26.78
27.24
26.53
24.82
22.55
20.37
18.85
18.22
18.28
18.49
18.24
17.17
15.31
13.00
10.63
8.38
6.17
3.61
0.26
-4.22
-9.93
-16.76
-24.42
-32.38
-39.92
-46.00
-49.44
-49.20
-44.75
-36.37
-25.14
-12.66
-0.49
10.28
19.22
26.44
32.18
36.54
39.36
40.42
39.71
37.63
34.94
32.43
30.63
29.58
28.88
27.91
26.20
23.63
20.47
17.23
14.38
12.11
10.23
8.27
5.69
2.00
-2.98
-9.18
-16.22
-23.44
-29.92
-34.54
-36.27
-34.41
-28.90
-20.43
-10.26
0.19
9.79
17.99
24.79
30.50
35.43
39.61
42.85
44.90
45.63
45.23
44.09
42.75
41.56
40.57
39.56
38.20
36.29
33.90
31.36
29.02
27.07
25.38
23.51
21.01
17.49
12.78
6.90
-0.06
-7.85
-15.99
-23.69
-29.83
-33.19
-32.89
-28.73
-21.31
-11.83
-1.71
7.90
16.32
23.39
29.16
33.67
36.76
38.17
37.76
35.70
32.52
28.94
25.61
22.82
20.45
18.02
15.02
11.04
5.88
-0.37
-7.45
-14.93
-22.33
-29.19
-35.21
-40.35
-44.88
-49.21
-53.80
-58.87
-64.21
-69.11
-72.39
-72.63
-68.49
-59.14
-44.59
-25.79
-4.42
17.62
38.71
57.84
74.60
88.74
99.78
106.86
108.98
105.57
96.96
84.56
70.53
57.07
45.76
37.17
30.95
26.27
22.33
18.78
15.74
13.53
12.35
12.04
12.04
11.61
10.12
7.21
2.87
-2.66
-8.99
-15.48
-21.27
-25.28
-26.44
-24.03
-18.04
-9.24
1.01
11.25
20.37
27.96
34.02
38.64
41.63
42.39
40.25
34.91
26.79
17.13
7.58
-0.33
-5.66
-8.31
-8.86
-8.22
-7.15
-6.11
-5.20
-4.37
-3.61
-3.01
-2.81
-3.28
-4.62
-6.96
-10.29
-14.55
-19.61
-25.19
-30.73
-35.32
-37.93
-37.54
-33.62
-26.38
-16.75
-6.15
3.95
12.48
18.96
23.47
26.47
28.48
29.93
31.13
32.29
33.61
35.30
37.54
40.35
43.57
46.79
49.37
50.63
50.03
47.40
42.98
37.33
31.12
24.83
18.71
12.74
6.79
0.68
-5.77
-12.81
-20.74
-29.72
-39.50
-49.26
-57.69
-63.40
-65.46
-63.81
-59.23
-53.03
-46.53
-40.54
-35.36
-30.84
-26.77
-23.04
-19.77
-17.08
-15.00
-13.39
-11.96
-10.47
-8.80
-7.02
-5.27
-3.69
-2.37
-1.30
-0.52
-0.10
-0.17
-0.85
-2.11
-3.79
-5.60
-7.25
-8.48
-9.20
-9.49
-9.58
-9.76
-10.14
-10.41
-9.76
-6.99
-1.00
8.64
21.27
35.26
48.46
59.07
66.16
69.88
71.01
70.40
68.52
65.34
60.63
54.36
46.89
38.92
31.15
24.03
17.64
11.86
6.62
2.11
-1.29
-3.18
-3.41
-2.29
-0.46
1.29
2.29
2.21
0.90
-1.55
-5.08
-9.70
-15.52
-22.48
-30.23
-38.01
-44.70
-49.19
-50.80
-49.68
-46.82
-43.66
-41.38
-40.31
-39.66
-37.90
-33.56
-25.98
-15.77
-4.65
5.24
12.18
15.40
15.24
12.74
9.13
5.34
1.82
-1.29
-3.92
-5.97
-7.28
-7.81
-7.79
-7.77
-8.35
-9.96
-12.64
-16.03
-19.67
-23.24
-26.79
-30.62
-34.99
-39.77
-44.23
-47.28
-47.77
-45.11
-39.50
-31.86
-23.55
-15.83
-9.51
-4.87
-1.79
0.05
0.89
0.95
0.40
-0.54
-1.62
-2.53
-2.99
-2.83
-1.99
-0.63
0.93
2.25
2.90
2.53
0.98
-1.72
-5.34
-9.46
-13.56
-17.06
-19.52
-20.76
-21.02
-20.87
-21.02
-21.91
-23.46
-25.03
-25.69
-24.59
-21.41
-16.50
-10.72
-5.11
-0.53
2.65
4.50
5.40
5.80
6.00
5.99
5.61
4.60
2.84
0.52
-1.94
-4.02
-5.41
-6.14
-6.65
-7.50
-9.16
-11.63
-14.54
-17.23
-19.12
-19.94
-19.83
-19.22
-18.59
-18.36
-18.81
-20.12
-22.30
-25.19
-28.23
-30.47
-30.77
-28.11
-22.08
-13.13
-2.46
8.34
17.82
25.12
30.05
32.92
34.29
34.58
34.04
32.79
30.86
28.36
25.47
22.35
19.18
16.10
13.22
10.56
8.12
5.77
3.38
0.85
-1.82
-4.50
-7.01
-9.26
-11.30
-13.38
-15.83
-18.99
-23.03
-27.94
-33.43
-38.93
-43.67
-46.78
-47.48
-45.32
-40.31
-33.02
-24.44
-15.68
-7.68
-0.98
4.31
8.36
11.41
13.58
14.83
15.13
14.50
13.24
11.78
10.57
9.86
9.52
9.16
8.35
6.86
4.78
2.50
0.41
-1.29
-2.72
-4.17
-5.95
-8.15
-10.65
-13.27
-15.85
-18.41
-20.98
-23.38
-25.12
-25.44
-23.68
-19.60
-13.57
-6.42
0.78
7.25
12.64
17.00
20.55
23.38
25.32
26.07
25.46
23.59
20.92
18.10
15.70
14.04
13.12
12.69
12.45
12.13
11.57
10.68
9.42
7.70
5.54
3.04
0.34
-2.38
-5.02
-7.67
-10.54
-13.92
-17.91
-22.30
-26.44
-29.39
-30.22
-28.33
-23.71
-16.92
-8.92
-0.77
6.66
12.76
17.31
20.33
22.06
22.82
22.93
22.65
22.13
21.46
20.72
20.06
19.69
19.73
20.11
20.54
20.56
19.82
18.20
15.89
13.30
10.80
8.58
6.58
4.51
2.03
-1.09
-4.96
-9.50
-14.45
-19.37
-23.65
-26.56
-27.39
-25.72
-21.57
-15.56
-8.78
-2.45
2.55
5.99
8.44
11.00
14.82
20.64
28.58
38.11
48.29
58.09
66.44
72.41
75.30
74.67
70.52
63.31
53.83
43.04
31.85
20.95
10.85
1.85
-5.99
-12.72
-18.45
-23.25
-27.01
-29.56
-30.85
-31.03
-30.45
-29.56
-28.61
-27.57
-26.19
-24.18
-21.52
-18.42
-15.29
-12.51
-10.32
-8.63
-7.25
-5.94
-4.53
-3.03
-1.61
-0.57
-0.15
-0.41
-1.15
-1.95
-2.38
-2.21
-1.50
-0.57
0.16
0.43
0.21
-0.32
-0.94
-1.53
-2.18
-3.11
-4.59
-6.73
-9.52
-12.84
-16.59
-20.64
-24.77
-28.54
-31.31
-32.30
-30.92
-27.01
-20.94
-13.52
-5.70
1.76
8.41
14.13
18.88
22.58
25.03
26.06
25.73
24.31
22.32
20.31
18.72
17.79
17.53
17.80
18.36
18.94
19.24
19.03
18.18
16.69
14.70
12.39
9.87
7.10
3.94
0.18
-4.34
-9.58
-15.24
-20.72
-25.17
-27.64
-27.41
-24.14
-18.02
-9.75
-0.30
9.29
18.18
25.82
31.93
36.43
39.35
40.81
40.98
40.18
38.71
36.94
35.11
33.34
31.57
29.67
27.49
24.93
22.08
19.09
16.16
13.39
10.76
8.15
5.35
2.21
-1.31
-5.15
-9.24
-13.55
-18.13
-23.01
-28.02
-32.67
-36.15
-37.66
-36.62
-32.98
-27.24
-20.25
-12.90
-5.88
0.42
5.85
10.34
13.87
16.43
18.05
18.89
19.16
19.09
18.87
18.61
18.40
18.31
18.34
18.46
18.48
18.17
17.28
15.68
13.40
10.66
7.68
4.59
1.40
-1.97
-5.62
-9.56
-13.78
-18.22
-22.81
-27.34
-31.38
-34.29
-35.36
-34.09
-30.45
-24.83
-18.03
-10.87
-4.07
1.97
7.08
11.23
14.40
16.60
17.83
18.17
17.74
16.74
15.44
14.06
12.77
11.68
10.79
10.11
9.58
9.14
8.68
8.05
7.11
5.73
3.95
1.85
-0.39
-2.66
-4.99
-7.48
-10.31
-13.63
-17.46
-21.68
-26.04
-30.02
-32.96
-34.21
-33.27
-30.08
-25.01
-18.82
-12.36
-6.28
-0.86
3.97
8.39
12.51
16.20
19.13
20.98
21.60
21.10
19.77
17.90
15.69
13.23
10.55
7.75
5.02
2.55
0.43
-1.38
-3.03
-4.54
-5.76
-6.41
-6.28
-5.46
-4.41
-3.85
-4.48
-6.68
-10.42
-15.27
-20.55
-25.51
-29.48
-31.89
-32.41
-30.92
-27.62
-22.95
-17.48
-11.80
-6.37
-1.45
2.85
6.58
9.76
12.43
14.55
16.02
16.81
16.96
16.66
16.19
15.82
15.74
15.92
16.20
16.34
16.12
15.45
14.36
12.93
11.20
9.20
6.97
4.59
2.22
0.01
-1.99
-3.87
-5.85
-8.18
-10.96
-13.97
-16.77
-18.65
-18.97
-17.36
-13.85
-8.95
-3.43
1.92
6.52
10.12
12.71
14.47
15.57
16.11
16.19
15.88
15.34
14.70
14.12
13.65
13.28
12.91
12.43
11.70
10.65
9.25
7.56
5.69
3.74
1.79
-0.15
-2.14
-4.25
-6.54
-8.99
-11.58
-14.36
-17.41
-20.81
-24.50
-28.12
-31.03
-32.54
-32.11
-29.57
-25.20
-19.64
-13.61
-7.73
-2.39
2.29
6.33
9.78
12.61
14.79
16.23
16.94
16.97
16.49
15.73
14.99
14.52
14.42
14.64
14.91
14.92
14.30
12.83
10.44
7.23
3.48
-0.48
-4.28
-7.65
-10.46
-12.73
-14.72
-16.84
-19.58
-23.29
-27.99
-33.18
-37.92
-41.07
-41.64
-39.18
-33.91
-26.62
-18.36
-10.03
-2.26
4.67
10.66
15.61
19.38
21.89
23.18
23.46
23.02
22.11
20.90
19.42
17.75
15.98
14.21
12.51
10.84
9.10
7.20
5.18
3.15
1.21
-0.68
-2.67
-4.94
-7.58
-10.42
-13.21
-15.70
-17.92
-20.12
-22.59
-25.40
-28.13
-30.03
-30.27
-28.34
-24.32
-18.85
-12.85
-7.15
-2.19
2.03
5.75
9.27
12.68
15.84
18.43
20.20
21.07
21.19
20.89
20.56
20.46
20.70
21.21
21.84
22.42
22.80
22.87
22.52
21.69
20.34
18.51
16.29
13.84
11.28
8.71
6.18
3.69
1.14
-1.60
-4.63
-7.90
-11.06
-13.52
-14.64
-13.98
-11.59
-8.02
-4.13
-0.78
1.56
2.91
3.68
4.38
5.28
6.29
7.00
6.91
5.68
3.36
0.29
-2.99
-6.01
-8.48
-10.31
-11.54
-12.16
-12.14
-11.41
-10.00
-8.12
-6.03
-3.99
-1.99
0.19
2.94
6.53
10.89
15.52
19.58
22.24
23.02
22.05
20.01
17.93
16.78
17.15
19.04
21.94
24.99
27.31
28.16
27.17
24.35
20.05
14.80
9.21
3.79
-1.02
-4.98
-7.95
-9.99
-11.24
-11.97
-12.46
-12.96
-13.61
-14.47
-15.49
-16.67
-17.99
-19.48
-21.07
-22.56
-23.65
-24.14
-24.08
-23.96
-24.47
-26.27
-29.48
-33.61
-37.59
-40.29
-40.92
-39.33
-35.93
-31.39
-26.23
-20.73
-14.99
-9.14
-3.54
1.24
4.61
6.16
5.82
3.89
0.88
-2.63
-6.20
-9.52
-12.53
-15.25
-17.77
-20.11
-22.25
-24.17
-25.86
-27.39
-28.82
-30.19
-31.39
-32.32
-32.86
-33.06
-33.16
-33.57
-34.69
-36.78
-39.76
-43.16
-46.28
-48.34
-48.65
-46.63
-41.76
-33.58
-21.86
-6.83
10.69
29.44
48.13
65.74
81.74
95.68
106.97
114.69
118.00
116.69
111.71
105.06
99.12
95.77
95.59
97.76
100.53
101.83
100.02
94.12
83.96
69.95
52.89
33.63
12.98
-8.38
-29.68
-49.92
-67.88
-82.32
-92.42
-97.97
-99.35
-97.23
-92.17
-84.47
-74.39
-62.44
-49.43
-36.41
-24.23
-13.31
-3.61
5.02
12.56
18.62
22.52
23.54
21.22
15.57
7.19
-2.91
-13.45
-23.35
-32.09
-39.77
-46.98
-54.38
-62.20
-70.01
-76.75
-80.94
-81.14
-76.40
-66.81
-53.82
-40.05
-28.57
-21.65
-19.76
-21.34
-23.52
-23.45
-19.56
-11.87
-1.46
10.57
23.74
38.01
53.21
68.40
81.91
92.00
97.68
99.27
98.10
95.84
93.56
91.32
88.28
83.38
75.98
66.37
55.82
46.22
39.53
37.17
39.57
46.04
54.91
63.96
71.06
74.67
74.25
70.13
63.25
54.55
44.67
33.73
21.67
8.52
-5.32
-19.01
-31.59
-42.26
-50.67
-56.99
-61.85
-66.03
-70.19
-74.63
-79.16
-83.26
-86.27
-87.75
-87.65
-86.24
-83.82
-80.44
-75.77
-69.22
-60.37
-49.42
-37.30
-25.58
-15.89
-9.43
-6.61
-7.12
-10.21
-14.98
-20.65
-26.68
-32.72
-38.66
-44.53
-50.47
-56.59
-62.84
-68.92
-74.33
-78.45
-80.65
-80.52
-77.88
-72.89
-66.14
-58.39
-50.42
-42.64
-34.91
-26.66
-17.33
-6.82
4.23
14.71
23.64
30.83
37.04
43.57
51.34
60.17
68.53
74.26
75.54
71.83
63.95
53.63
42.55
31.77
21.68
12.40
4.35
-1.67
-4.76
-4.62
-1.89
1.88
4.85
5.71
4.23
1.31
-1.59
-3.07
-2.37
0.43
4.53
8.82
12.23
14.16
14.47
13.49
11.88
10.43
9.86
10.76
13.51
18.30
25.08
33.56
43.23
53.30
62.83
70.94
76.93
80.51
81.69
80.80
78.19
74.14
68.83
62.32
54.71
46.10
36.70
26.71
16.34
5.95
-3.99
-12.76
-19.57
-23.72
-24.88
-23.22
-19.37
-14.22
-8.72
-3.66
0.39
3.02
4.07
3.57
1.81
-0.81
-3.88
-7.31
-11.33
-16.52
-23.53
-32.68
-43.70
-55.61
-66.80
-75.28
-79.22
-77.33
-69.44
-56.65
-41.19
-25.87
-13.26
-4.98
-1.36
-1.73
-5.00
-10.37
-17.61
-26.86
-38.12
-50.67
-63.16
-73.94
-81.70
-85.83
-86.53
-84.36
-79.94
-73.75
-66.13
-57.46
-48.05
-38.06
-27.30
-15.38
-1.91
13.10
29.09
45.03
59.80
72.48
82.64
90.26
95.60
98.84
99.89
98.36
93.79
86.13
76.22
65.85
57.31
52.49
51.93
54.46
57.72
59.32
57.86
53.45
47.33
40.87
34.88
29.37
24.03
18.84
14.32
11.27
10.08
10.26
10.48
9.19
5.43
-0.62
-7.81
-14.64
-20.03
-23.81
-26.56
-29.15
-32.12
-35.45
-38.73
-41.42
-43.27
-44.22
-44.31
-43.39
-41.23
-37.65
-32.83
-27.38
-22.19
-18.12
-15.77
-15.46
-17.30
-21.22
-26.93
-33.81
-40.96
-47.41
-52.62
-56.73
-60.47
-64.55
-69.01
-72.87
-74.49
-72.28
-65.65
-55.34
-43.29
-31.94
-23.27
-18.12
-15.87
-14.81
-12.72
-7.77
0.89
12.83
26.49
39.77
50.78
58.50
62.94
65.06
66.21
67.70
70.42
74.79
80.78
88.18
96.67
105.73
114.52
121.74
125.77
125.10
118.75
106.65
89.53
68.42
44.20
17.41
-11.46
-41.32
-70.07
-94.79
-112.44
-120.93
-119.96
-111.03
-97.01
-81.18
-66.36
-54.32
-45.66
-39.90
-35.83
-32.02
-27.34
-21.41
-14.95
-9.46
-6.60
-7.38
-11.50
-17.36
-22.62
-25.05
-23.35
-17.53
-8.66
1.59
11.43
19.48
24.83
27.24
27.52
27.90
31.88
43.25
64.22
93.89
127.87
159.50
182.41
192.87
190.82
179.09
161.39
140.48
117.52
92.72
66.66
41.04
18.34
0.61
-11.63
-19.63
-25.68
-31.82
-38.84
-46.16
-52.24
-55.50
-55.16
-51.50
-45.66
-39.18
-33.44
-29.33
-27.14
-26.63
-27.15
-27.92
-28.15
-27.35
-25.47
-22.93
-20.56
-19.18
-19.32
-20.94
-23.41
-25.80
-27.19
-27.09
-25.51
-22.86
-19.71
-16.52
-13.58
-11.16
-9.52
-9.02
-9.95
-12.29
-15.66
-19.43
-22.94
-25.83
-28.30
-31.00
-34.89
-40.89
-49.65
-61.26
-75.14
-89.92
-103.53
-113.43
-117.16
-113.08
-101.03
-82.56
-60.59
-38.62
-19.77
-6.04
1.89
4.43
2.55
-2.70
-10.30
-19.20
-27.97
-34.64
-36.76
-31.93
-18.69
2.51
28.75
55.03
75.47
85.15
81.80
66.44
42.75
15.66
-10.18
-31.73
-48.19
-61.00
-72.91
-86.35
-101.80
-116.46
-124.40
-118.81
-95.32
-55.12
-5.85
40.45
71.83
81.07
68.38
40.56
7.64
-21.21
-40.39
-48.34
-46.36
-36.88
-22.40
-5.26
12.04
26.51
35.06
35.39
26.77
10.55
-10.04
-30.59
-46.57
-54.37
-52.22
-40.33
-20.80
3.02
27.55
49.70
67.24
79.16
85.69
88.27
89.07
90.17
92.67
96.13
98.51
96.85
88.22
70.56
43.12
6.86
-35.41
-78.96
-117.69
-145.54
-158.44
-155.88
-141.27
-120.52
-99.57
-82.25
-69.52
-60.24
-52.79
-46.30
-40.77
-36.47
-33.18
-30.02
-26.05
-21.14
-16.33
-13.48
-14.38
-19.77
-28.91
-39.80
-49.87
-57.03
-60.46
-60.92
-60.65
-62.57
-69.02
-80.76
-96.56
-113.65
-128.70
-138.89
-142.46
-138.84
-128.34
-111.77
-90.25
-65.00
-37.23
-7.96
22.10
52.37
82.21
110.68
136.61
159.03
177.75
193.56
207.83
221.75
235.46
247.84
256.94
260.85
258.51
250.01
236.37
218.74
197.94
174.09
146.86
115.84
81.10
43.51
4.90
-32.11
-64.45
-89.07
-103.68
-107.31
-100.70
-86.18
-67.02
-46.50
-27.15
-10.28
3.75
15.03
23.51
28.72
29.79
25.98
17.20
4.48
-10.04
-23.45
-32.84
-36.19
-33.02
-24.55
-13.18
-1.60
8.14
14.99
18.79
19.61
17.27
11.13
0.46
-15.03
-34.71
-56.84
-78.93
-98.19
-112.34
-119.95
-120.68
-114.96
-103.66
-87.72
-67.96
-45.27
-20.95
3.02
24.17
40.06
49.08
51.08
47.31
40.02
31.55
23.73
17.60
13.53
11.51
11.33
12.52
14.31
15.70
15.74
14.03
10.89
7.18
3.90
1.54
-0.21
-2.21
-5.25
-9.39
-13.57
-15.86
-14.24
-7.50
4.12
18.97
34.62
48.68
59.55
66.75
70.65
72.01
71.48
69.40
65.88
61.04
55.22
48.94
42.75
36.98
31.66
26.55
21.36
16.06
10.93
6.51
3.33
1.55
0.77
0.05
-1.73
-5.51
-11.64
-19.71
-28.63
-36.89
-42.95
-45.63
-44.40
-39.44
-31.59
-22.00
-11.88
-2.24
6.22
13.06
18.00
20.93
21.88
21.16
19.31
17.02
14.92
13.34
12.26
11.38
10.32
8.86
7.08
5.26
3.68
2.54
1.70
0.84
-0.52
-2.81
-6.26
-10.81
-15.99
-20.99
-24.81
-26.48
-25.39
-21.45
-15.10
-7.17
1.40
9.73
17.16
23.28
27.78
30.49
31.42
30.79
29.03
26.72
24.36
22.27
20.46
18.76
16.95
14.91
12.67
10.42
8.37
6.62
5.13
3.75
2.28
0.52
-1.67
-4.39
-7.58
-10.96
-14.04
-16.13
-16.57
-14.96
-11.31
-6.13
-0.24
5.52
10.48
14.31
16.88
18.19
18.18
16.79
14.08
10.29
5.96
1.68
-2.03
-5.02
-7.48
-9.82
-12.41
-15.39
-18.57
-21.64
-24.31
-26.60
-28.84
-31.53
-35.13
-39.83
-45.44
-51.43
-57.10
-61.76
-64.86
-66.11
-65.49
-63.16
-59.45
-54.68
-49.14
-42.99
-36.22
-28.71
-20.29
-10.85
-0.40
10.93
22.84
34.92
46.58
57.23
66.22
73.04
77.41
79.36
79.16
77.21
73.97
69.85
65.25
60.46
55.72
51.11
46.64
42.33
38.30
34.89
32.50
31.44
31.70
32.85
34.19
35.02
34.85
33.58
31.38
28.54
25.30
21.83
18.30
14.92
11.92
9.54
7.91
7.01
6.68
6.73
6.93
7.10
7.13
6.95
6.53
5.78
4.58
2.80
0.32
-2.73
-6.00
-8.89
-10.74
-11.02
-9.61
-6.80
-3.21
0.46
3.62
5.98
7.47
8.20
8.32
7.93
7.17
6.12
4.88
3.52
2.12
0.73
-0.56
-1.63
-2.40
-2.87
-3.11
-3.30
-3.59
-4.10
-4.88
-5.92
-7.29
-9.05
-11.27
-13.79
-16.27
-18.08
-18.59
-17.31
-14.14
-9.47
-4.02
1.23
5.46
8.12
9.09
8.61
7.19
5.37
3.63
2.26
1.37
0.94
0.86
0.99
1.16
1.24
1.10
0.71
0.09
-0.67
-1.51
-2.42
-3.51
-4.94
-6.80
-9.05
-11.37
-13.24
-14.13
-13.64
-11.71
-8.63
-4.95
-1.25
1.98
4.47
6.13
6.97
7.13
6.73
5.96
5.04
4.18
3.57
3.32
3.44
3.80
4.19
4.30
3.91
2.92
1.45
-0.22
-1.82
-3.22
-4.52
-5.95
-7.69
-9.64
-11.44
-12.53
-12.44
-11.01
-8.43
-5.20
-1.88
1.06
3.36
4.99
6.04
6.58
6.65
6.19
5.18
3.75
2.12
0.60
-0.56
-1.26
-1.62
-1.85
-2.18
-2.68
-3.28
-3.85
-4.31
-4.73
-5.33
-6.35
-7.91
-9.84
-11.69
-12.88
-12.90
-11.57
-9.05
-5.85
-2.59
0.22
2.28
3.59
4.27
4.51
4.36
3.83
2.81
1.29
-0.64
-2.72
-4.66
-6.18
-7.22
-7.90
-8.53
-9.40
-10.74
-12.69
-15.26
-18.42
-22.11
-26.22
-30.61
-34.98
-38.96
-42.14
-44.21
-45.02
-44.72
-43.60
-42.04
-40.40
-38.94
-37.94
-37.69
-38.42
-40.20
-42.72
-45.35
-47.26
-47.69
-46.25
-42.91
-37.88
-31.40
-23.66
-14.92
-5.61
3.60
11.90
18.67
23.65
27.03
29.27
30.86
32.15
33.27
34.29
35.35
36.67
38.50
40.99
44.16
47.90
52.11
56.60
61.05
64.87
67.17
66.97
63.67
57.50
49.63
41.98
36.57
34.83
37.12
42.76
50.40
58.71
66.88
74.97
83.66
93.76
105.54
118.31
130.32
139.16
142.49
138.84
128.25
112.21
93.19
73.84
56.04
40.45
26.43
12.57
-2.58
-19.73
-38.49
-57.50
-75.04
-89.83
-101.38
-110.12
-116.96
-122.66
-127.41
-130.56
-130.70
-125.75
-113.42
-91.75
-60.01
-19.38
26.65
72.77
113.10
142.70
158.90
161.81
153.87
138.85
120.60
102.27
86.07
73.31
64.74
60.67
60.87
64.27
68.85
71.96
71.02
64.59
53.29
39.57
26.69
17.18
11.61
8.42
4.73
-2.25
-14.00
-30.14
-48.78
-67.40
-83.66
-96.05
-104.01
-107.75
-108.00
-105.63
-101.39
-95.80
-89.20
-81.89
-74.27
-66.76
-59.68
-52.99
-46.31
-39.14
-31.16
-22.34
-12.99
-3.67
5.05
12.79
19.42
25.08
30.17
35.22
40.80
47.31
54.79
62.88
70.95
78.33
84.59
89.62
93.45
95.96
96.71
94.96
90.09
82.02
71.60
60.46
50.50
43.22
39.19
37.96
38.36
38.99
38.67
36.67
32.81
27.34
20.80
13.81
6.90
0.48
-5.20
-9.92
-13.51
-15.91
-17.27
-17.91
-18.27
-18.54
-18.58
-17.97
-16.24
-13.35
-9.79
-6.47
-4.30
-3.77
-4.80
-6.93
-9.64
-12.72
-16.44
-21.39
-28.14
-36.80
-46.69
-56.38
-64.14
-68.59
-69.28
-66.90
-62.91
-58.78
-55.33
-52.55
-49.87
-46.87
-43.69
-41.04
-39.82
-40.51
-42.78
-45.68
-47.98
-48.92
-48.41
-47.19
-46.31
-46.69
-48.63
-51.66
-54.78
-56.87
-57.17
-55.58
-52.61
-49.13
-45.90
-43.33
-41.31
-39.42
-37.15
-34.24
-30.84
-27.37
-24.28
-21.69
-19.27
-16.42
-12.63
-7.85
-2.67
1.90
4.82
5.57
4.37
2.06
-0.25
-1.82
-2.52
-2.80
-3.34
-4.61
-6.57
-8.73
-10.51
-11.61
-12.13
-12.45
-12.90
-13.43
-13.54
-12.56
-10.04
-6.04
-1.21
3.37
6.55
7.39
5.49
0.94
-5.61
-13.15
-20.57
-26.82
-31.24
-33.60
-34.11
-33.23
-31.45
-29.13
-26.42
-23.33
-19.85
-16.14
-12.58
-9.72
-8.12
-8.16
-9.93
-13.21
-17.63
-22.65
-27.67
-32.00
-34.87
-35.63
-33.96
-30.07
-24.79
-19.32
-14.87
-12.22
-11.51
-12.23
-13.55
-14.71
-15.23
-14.94
-13.91
-12.24
-10.03
-7.40
-4.58
-1.89
0.24
1.45
1.52
0.49
-1.35
-3.51
-5.54
-7.17
-8.36
-9.34
-10.36
-11.50
-12.55
-13.04
-12.44
-10.49
-7.44
-4.00
-1.16
0.29
0.06
-1.57
-3.79
-5.68
-6.51
-6.00
-4.37
-2.21
-0.26
0.77
0.33
-1.87
-5.80
-10.94
-16.37
-20.89
-23.45
-23.49
-21.25
-17.55
-13.47
-9.83
-6.93
-4.63
-2.66
-0.92
0.49
1.43
2.07
2.84
4.28
6.63
9.64
12.60
14.78
15.87
16.15
16.31
17.03
18.43
20.01
20.76
19.78
16.75
12.06
6.60
1.35
-3.16
-6.96
-10.46
-14.22
-18.53
-23.35
-28.41
-33.37
-37.84
-41.35
-43.33
-43.21
-40.71
-36.12
-30.27
-24.29
-19.04
-14.77
-11.08
-7.25
-2.71
2.62
8.28
13.64
18.19
21.76
24.36
26.02
26.56
25.67
23.15
19.19
14.35
9.46
5.20
1.90
-0.64
-2.96
-5.68
-9.15
-13.34
-17.84
-22.12
-25.73
-28.56
-30.73
-32.50
-34.00
-35.21
-36.02
-36.40
-36.45
-36.39
-36.27
-35.86
-34.58
-31.79
-27.12
-20.75
-13.43
-6.13
0.33
5.62
9.90
13.63
17.23
20.88
24.46
27.68
30.32
32.29
33.73
34.87
35.88
36.77
37.31
37.19
36.11
34.06
31.32
28.36
25.67
23.45
21.55
19.52
16.97
13.72
10.02
6.28
2.80
-0.49
-4.07
-8.52
-14.18
-20.91
-28.12
-34.98
-40.71
-44.73
-46.57
-45.89
-42.46
-36.32
-27.96
-18.27
-8.43
0.63
8.39
14.87
20.39
25.27
29.53
32.97
35.31
36.47
36.77
36.73
36.95
37.72
38.93
40.13
40.79
40.52
39.26
37.24
34.82
32.30
29.78
27.16
24.22
20.76
16.67
12.07
7.26
2.68
-1.30
-4.51
-7.06
-9.32
-11.70
-14.57
-18.06
-22.12
-26.44
-30.54
-33.77
-35.38
-34.75
-31.59
-26.14
-19.13
-11.60
-4.52
1.49
6.33
10.23
13.58
16.57
19.16
21.11
22.16
22.26
21.66
20.96
20.88
21.93
24.14
26.94
29.34
30.35
29.41
26.67
22.95
19.30
16.65
15.38
15.29
15.76
16.02
15.34
13.11
9.05
3.36
-2.89
-7.59
-7.94
-1.26
13.61
35.44
60.32
82.66
97.05
100.16
91.77
74.49
52.47
29.69
8.82
-8.96
-23.46
-34.78
-42.94
-48.03
-50.62
-51.82
-53.04
-55.37
-59.03
-63.32
-67.09
-69.36
-69.88
-69.21
-68.28
-67.90
-68.37
-69.47
-70.68
-71.56
-71.91
-71.80
-71.35
-70.61
-69.57
-68.16
-66.37
-64.32
-62.23
-60.39
-59.10
-58.70
-59.43
-61.34
-64.09
-66.96
-68.89
-68.75
-65.67
-59.26
-49.72
-37.82
-24.69
-11.60
0.37
10.52
18.74
25.40
31.13
36.52
41.87
47.07
51.75
55.48
57.83
58.42
56.82
52.64
45.73
36.58
26.47
17.26
10.73
7.82
8.25
10.77
13.96
17.05
20.30
24.65
31.05
39.90
50.99
63.82
77.99
93.21
108.87
123.68
135.64
142.75
143.85
139.29
130.75
120.41
109.84
99.47
88.76
76.96
63.64
48.77
32.50
14.81
-4.36
-24.64
-44.68
-62.18
-74.68
-80.70
-80.69
-76.87
-72.22
-68.96
-67.63
-67.19
-66.24
-64.13
-61.46
-59.53
-59.29
-60.65
-62.58
-63.84
-63.77
-62.73
-61.60
-61.12
-61.20
-60.96
-59.19
-55.02
-48.27
-39.45
-29.48
-19.24
-9.39
-0.26
8.05
15.73
23.24
31.22
40.29
50.72
62.23
73.85
84.18
91.83
96.03
96.92
95.50
93.06
90.63
88.49
86.12
82.60
77.19
69.80
61.05
52.07
44.00
37.53
32.56
28.13
22.84
15.51
5.84
-5.17
-15.47
-22.81
-25.68
-24.02
-19.35
-13.99
-10.18
-9.22
-11.17
-15.03
-19.35
-22.65
-23.81
-22.28
-18.19
-12.53
-6.88
-2.80
-1.09
-1.14
-0.90
2.25
10.19
22.95
38.41
53.12
63.79
68.62
67.72
62.66
55.18
46.25
35.86
23.44
8.88
-6.91
-22.22
-35.23
-44.79
-50.95
-54.63
-57.02
-59.00
-60.83
-62.28
-62.79
-61.66
-58.24
-52.08
-43.19
-32.15
-20.12
-8.46
1.61
9.30
14.12
15.75
13.85
8.16
-1.13
-13.08
-25.76
-36.52
-42.55
-41.67
-33.19
-18.42
-0.71
15.33
25.17
25.92
17.25
1.28
-18.33
-37.88
-54.69
-67.28
-75.08
-77.82
-75.33
-67.73
-55.67
-40.39
-23.36
-5.90
11.10
27.04
41.26
52.82
60.42
62.73
58.95
49.37
35.57
20.12
5.93
-4.81
-11.23
-13.94
-14.52
-14.56
-14.90
-15.46
-15.56
-14.64
-12.63
-9.85
-6.73
-3.44
0.06
3.81
7.87
12.51
18.54
27.24
39.76
56.22
75.19
93.86
109.01
118.16
120.05
114.40
101.19
80.25
51.42
15.42
-25.38
-66.42
-101.39
-123.59
-127.89
-112.61
-80.53
-38.47
4.56
39.89
61.56
67.52
59.45
41.54
18.70
-4.85
-26.40
-44.77
-60.14
-73.67
-86.94
-101.11
-115.76
-128.34
-134.40
-129.11
-109.33
-75.49
-32.07
13.58
53.86
83.69
101.85
110.46
112.76
110.84
104.61
92.63
74.12
50.58
25.96
4.97
-9.01
-15.48
-16.76
-16.40
-17.27
-20.30
-24.72
-29.15
-32.74
-35.64
-38.55
-42.14
-46.60
-51.86
-58.08
-65.95
-76.35
-89.65
-105.02
-120.30
-132.56
-138.78
-136.59
-124.66
-102.95
-72.89
-37.38
-0.35
34.12
62.78
84.03
97.78
104.91
106.52
103.67
97.48
89.36
80.96
73.65
67.77
62.40
55.79
46.35
33.66
18.63
2.99
-11.59
-24.11
-34.31
-42.24
-47.96
-51.47
-53.22
-54.42
-56.97
-62.60
-71.82
-83.15
-93.35
-98.66
-96.54
-86.73
-71.40
-54.06
-37.96
-24.88
-14.90
-7.09
-0.43
5.44
10.21
13.35
14.73
14.77
14.26
13.85
13.62
13.06
11.31
7.84
2.82
-2.76
-7.41
-9.71
-8.70
-4.06
3.95
14.72
27.29
40.35
52.20
61.00
65.25
64.38
58.98
50.70
41.70
33.86
28.28
25.01
23.30
22.02
20.17
17.28
13.66
10.23
8.11
8.09
10.26
13.91
17.88
21.02
22.60
22.46
20.72
17.83
14.97
14.16
17.84
27.81
43.57
61.55
75.78
80.26
71.85
51.87
25.61
-0.16
-20.19
-32.64
-38.90
-41.58
-42.29
-40.48
-34.12
-21.57
-3.22
18.02
37.93
52.98
62.25
67.93
74.32
85.43
102.76
124.67
147.08
165.46
176.96
181.03
178.88
172.27
162.65
150.99
138.10
124.90
112.19
100.16
88.09
74.61
58.47
39.23
17.44
-5.60
-28.53
-50.36
-70.47
-88.41
-103.59
-115.37
-123.38
-127.83
-129.75
-130.83
-132.92
-137.35
-144.38
-153.05
-161.26
-166.39
-166.14
-159.58
-147.71
-133.31
-119.91
-110.39
-105.79
-104.98
-105.14
-102.64
-94.15
-77.58
-52.72
-21.53
11.99
42.62
65.51
77.96
80.62
77.17
72.49
69.90
69.26
67.19
59.55
44.45
23.97
3.34
-11.90
-19.02
-19.44
-17.52
-17.51
-20.49
-23.59
-21.82
-11.57
6.60
27.64
44.33
50.95
46.07
32.85
16.63
1.64
-11.10
-23.22
-36.22
-48.90
-56.89
-55.16
-41.48
-18.80
5.76
24.47
33.07
32.71
28.72
27.12
31.35
41.28
54.63
69.16
83.99
99.15
114.33
128.25
139.26
146.57
150.88
153.97
157.44
161.87
166.59
170.06
170.98
168.69
162.77
152.72
138.28
120.59
102.91
90.19
86.91
94.26
108.77
123.20
129.67
123.04
102.93
73.01
38.41
3.01
-31.70
-65.97
-99.91
-132.00
-159.35
-179.18
-190.43
-194.35
-193.79
-191.75
-190.28
-190.00
-190.21
-189.79
-188.00
-184.83
-180.99
-177.36
-174.54
-172.38
-170.06
-166.31
-160.08
-151.00
-139.59
-127.27
-116.10
-108.29
-105.51
-107.88
-113.32
-117.70
-115.92
-103.89
-80.33
-47.36
-9.73
27.22
59.39
84.61
101.99
110.69
109.30
96.55
73.09
42.95
13.24
-8.00
-15.10
-7.17
11.50
33.44
51.01
59.15
56.71
46.79
35.68
30.96
39.11
62.44
97.12
133.60
160.06
167.49
153.89
125.22
91.92
63.69
45.44
36.95
35.60
39.60
49.08
64.47
83.58
100.44
107.48
99.56
77.35
47.37
18.52
-2.55
-14.73
-22.03
-30.57
-44.65
-64.12
-83.99
-96.40
-94.02
-73.42
-37.58
4.01
38.45
54.96
50.29
30.80
9.79
0.63
9.55
32.40
57.26
71.40
68.28
50.40
26.67
6.51
-5.39
-10.49
-13.91
-20.15
-30.20
-41.30
-49.35
-51.94
-50.08
-47.90
-50.52
-60.99
-78.37
-97.75
-112.73
-119.08
-116.91
-110.33
-104.42
-102.16
-103.01
-104.25
-103.89
-102.39
-101.87
-103.06
-102.90
-95.28
-74.88
-41.39
-1.11
35.78
60.58
70.42
68.86
62.80
58.20
57.61
60.76
66.82
75.89
88.71
104.61
119.66
126.74
118.37
90.72
45.95
-7.95
-60.25
-101.01
-124.15
-128.74
-118.48
-100.03
-80.78
-66.87
-61.51
-64.34
-71.89
-79.16
-81.61
-77.08
-66.49
-53.47
-42.84
-39.01
-44.59
-59.71
-81.86
-105.79
-123.96
-128.59
-114.83
-83.61
-42.48
-3.83
20.09
22.72
6.41
-18.37
-37.81
-41.09
-24.54
7.79
46.95
83.56
111.37
128.44
136.56
139.38
140.84
144.27
151.64
163.09
176.68
188.59
194.50
191.72
181.08
167.20
156.88
156.34
168.50
192.10
222.10
251.47
273.37
282.81
277.60
258.68
229.49
194.74
158.98
125.29
94.90
67.60
42.64
19.55
-1.66
-21.09
-39.35
-57.53
-76.57
-96.12
-114.23
-128.15
-135.85
-137.53
-135.69
-133.81
-134.34
-137.32
-140.64
-141.53
-138.59
-132.73
-126.84
-124.04
-125.76
-130.66
-135.25
-135.68
-129.65
-117.57
-102.29
-87.77
-77.44
-72.99
-73.99
-78.38
-83.39
-86.76
-87.60
-86.45
-84.67
-83.43
-82.99
-82.65
-81.36
-78.46
-74.27
-69.84
-66.29
-64.20
-63.21
-62.37
-60.77
-58.20
-55.18
-52.38
-49.83
-46.41
-40.28
-29.95
-15.46
1.14
16.50
27.49
32.75
33.21
31.37
29.86
30.09
31.83
33.76
34.47
33.01
29.10
22.71
14.02
3.53
-7.39
-16.46
-21.06
-19.17
-10.50
3.23
18.79
32.54
41.57
44.31
40.70
31.82
19.62
6.47
-5.12
-13.09
-16.18
-14.39
-8.95
-1.78
5.15
10.51
13.82
15.15
14.91
13.73
12.81
14.12
20.26
33.57
54.81
82.04
110.51
133.88
146.27
144.50
129.29
105.14
78.59
55.99
41.37
35.44
36.05
39.57
42.55
43.08
41.04
37.42
33.50
30.35
28.80
29.80
34.15
41.56
49.59
53.12
46.06
24.33
-11.15
-53.51
-92.28
-117.97
-126.35
-119.85
-105.49
-90.80
-80.52
-75.94
-76.62
-82.41
-94.08
-111.80
-133.32
-153.63
-166.70
-168.24
-157.71
-138.03
-113.72
-88.81
-65.78
-45.58
-28.17
-12.98
1.02
14.90
28.99
42.17
52.18
56.97
56.34
52.61
49.39
49.25
51.91
54.40
53.28
47.25
38.42
31.01
28.59
31.92
38.25
42.96
42.12
34.40
21.34
6.03
-8.59
-20.92
-30.75
-38.53
-44.70
-49.53
-53.23
-56.25
-58.87
-60.59
-59.86
-54.59
-43.15
-25.40
-2.89
21.61
45.10
64.98
79.43
87.17
87.29
79.42
64.28
43.83
20.95
-1.37
-21.21
-38.08
-52.78
-66.48
-79.50
-90.51
-96.55
-93.93
-79.87
-54.18
-19.77
18.08
53.36
80.78
96.61
98.83
87.41
64.80
35.91
7.43
-13.88
-23.74
-21.92
-12.38
-1.43
4.85
2.67
-8.67
-26.99
-48.00
-66.38
-77.23
-77.76
-68.69
-54.31
-40.27
-30.19
-22.87
-12.46
8.19
42.93
88.80
136.39
173.37
189.62
181.09
150.89
107.14
59.25
14.90
-21.69
-49.31
-68.21
-78.55
-79.93
-71.99
-55.60
-33.69
-11.04
7.13
17.24
18.81
14.66
9.20
6.21
7.14
10.68
13.93
13.94
8.91
-1.22
-14.93
-29.88
-43.85
-55.36
-63.66
-68.43
-69.36
-66.09
-58.66
-47.75
-34.56
-20.04
-4.31
13.42
33.88
56.15
76.75
90.68
94.16
87.21
74.03
60.76
51.81
47.49
44.24
37.67
25.82
10.47
-4.17
-14.14
-17.85
-16.20
-10.88
-2.82
8.25
22.83
40.30
58.39
73.91
84.17
87.78
84.94
77.15
66.89
57.16
50.77
49.53
53.37
60.04
65.82
67.11
62.11
51.58
38.35
25.62
15.41
7.76
1.17
-6.18
-15.34
-26.23
-37.88
-49.20
-59.48
-68.44
-76.13
-82.69
-88.24
-92.88
-96.71
-99.87
-102.52
-104.83
-106.70
-107.46
-105.68
-99.30
-86.77
-68.24
-46.23
-25.07
-9.18
-1.24
-1.28
-7.05
-15.41
-23.59
-29.49
-31.44
-27.76
-17.12
0.42
22.51
44.73
62.05
70.99
71.13
64.99
56.42
48.48
42.10
36.25
29.05
19.49
8.45
-1.19
-5.97
-3.96
4.00
14.15
21.45
22.20
16.04
6.53
-0.30
1.32
14.46
38.44
69.45
102.55
133.25
158.16
174.69
180.66
174.43
155.92
127.55
94.29
62.48
37.75
23.18
18.55
20.95
26.38
31.37
33.84
32.88
27.90
18.19
3.13
-17.07
-40.52
-63.47
-80.93
-87.92
-80.77
-58.06
-20.76
27.56
81.01
131.80
171.18
191.20
186.96
158.40
110.69
52.77
-5.66
-57.11
-98.07
-128.72
-150.97
-166.03
-173.12
-170.10
-155.60
-131.29
-102.43
-76.48
-60.21
-57.08
-66.01
-82.27
-99.27
-110.58
-111.09
-97.60
-69.50
-29.63
15.22
54.95
78.80
79.41
56.33
17.20
-24.51
-54.47
-62.83
-47.60
-14.80
24.74
59.96
83.48
93.09
90.68
79.79
63.33
42.97
20.08
-2.93
-22.27
-34.03
-36.24
-30.33
-21.07
-14.52
-15.35
-24.74
-40.01
-56.02
-67.44
-70.87
-65.84
-54.53
-40.50
-27.16
-16.45
-8.31
-1.23
6.58
15.75
24.81
30.46
29.18
19.31
2.46
-16.63
-32.05
-39.48
-38.08
-30.44
-20.74
-12.09
-5.02
2.49
13.15
28.41
47.40
67.34
84.91
97.28
102.34
98.19
83.10
56.21
18.94
-24.39
-67.27
-103.01
-127.14
-138.64
-139.96
-135.50
-129.84
-126.26
-125.75
-127.24
-128.40
-126.97
-121.75
-113.14
-102.44
-90.76
-78.09
-63.38
-45.57
-25.03
-4.24
13.11
23.90
27.40
25.75
22.68
21.63
24.33
30.53
39.18
49.62
62.13
77.56
96.34
117.58
138.72
156.04
165.65
164.89
153.20
132.51
106.82
81.28
60.93
49.60
49.08
58.96
76.86
99.09
121.37
139.38
149.22
147.69
132.68
103.52
61.51
10.34
-43.90
-93.56
-131.24
-152.04
-155.34
-144.97
-127.81
-111.07
-99.65
-94.56
-93.22
-91.27
-84.91
-72.60
-55.46
-36.45
-18.91
-5.22
3.75
8.58
10.55
10.87
10.19
8.61
5.78
1.60
-3.76
-9.67
-15.01
-17.98
-16.04
-6.55
12.01
38.34
67.38
90.77
99.14
85.84
50.24
-0.82
-54.81
-97.63
-118.80
-115.06
-91.16
-57.40
-25.15
-2.61
7.44
6.98
0.10
-9.94
-22.21
-37.45
-55.92
-75.56
-91.99
-100.33
-97.88
-85.73
-68.45
-51.69
-39.27
-31.40
-25.03
-16.04
-1.95
16.82
37.25
55.41
68.49
75.71
78.07
77.25
74.66
71.06
66.80
62.32
58.46
56.32
56.93
60.82
67.79
76.88
86.34
93.89
96.96
93.31
81.74
62.61
37.91
10.76
-15.51
-38.22
-55.77
-67.81
-74.88
-78.09
-78.71
-77.90
-76.49
-74.91
-73.17
-70.98
-67.89
-63.59
-58.07
-51.70
-45.25
-39.51
-34.98
-31.61
-28.78
-25.70
-21.82
-17.20
-12.51
-8.74
-6.80
-7.14
-9.72
-13.99
-19.11
-24.14
-28.17
-30.45
-30.42
-27.70
-21.99
-13.06
-0.87
14.36
31.82
50.07
67.18
81.11
90.26
93.90
92.27
86.21
76.77
64.71
50.37
34.01
16.24
-1.56
-17.37
-29.16
-35.81
-37.80
-37.30
-37.38
-40.77
-48.76
-60.47
-73.15
-83.09
-86.75
-81.92
-68.32
-47.53
-22.45
3.55
27.47
47.32
62.26
72.49
78.74
81.88
82.49
80.73
76.50
69.87
61.34
51.83
42.41
33.70
25.66
17.69
9.22
0.23
-8.52
-15.94
-21.22
-24.34
-26.01
-27.20
-28.47
-29.67
-30.03
-28.57
-24.53
-17.56
-7.62
5.21
20.95
39.69
61.47
85.81
111.34
135.54
154.91
165.81
165.69
154.15
133.34
107.26
80.44
56.37
36.70
21.35
9.24
-0.76
-9.25
-16.36
-22.08
-26.62
-30.51
-34.36
-38.48
-42.74
-46.59
-49.48
-51.21
-52.11
-52.85
-54.00
-55.62
-57.23
-58.06
-57.44
-55.09
-51.13
-45.77
-39.13
-31.13
-21.64
-10.68
1.60
14.82
28.40
41.47
52.93
61.55
66.25
66.34
61.60
52.16
38.49
21.38
2.15
-17.17
-34.13
-46.48
-52.97
-53.94
-51.00
-46.15
-40.68
-34.70
-27.53
-18.72
-8.97
-0.14
5.49
6.55
3.50
-1.43
-5.18
-5.32
-1.26
5.49
12.04
15.56
14.70
10.18
4.40
0.39
0.32
4.49
11.12
17.04
18.91
14.34
2.76
-14.38
-33.68
-50.25
-58.50
-53.46
-32.63
2.53
46.09
88.81
121.12
136.56
134.23
118.96
99.08
82.68
74.29
73.70
77.24
80.53
81.01
78.50
74.47
70.71
68.54
68.97
73.12
82.01
95.67
112.11
127.36
136.75
136.90
127.36
110.72
91.17
72.44
56.22
41.82
27.38
11.66
-4.65
-18.85
-27.49
-28.45
-22.57
-13.91
-7.98
-8.98
-17.43
-29.98
-41.37
-47.41
-47.24
-43.22
-38.96
-36.83
-36.64
-36.27
-33.56
-27.91
-20.82
-15.13
-13.58
-17.62
-26.73
-38.62
-49.90
-57.24
-58.57
-53.66
-44.18
-32.68
-21.52
-12.12
-4.71
1.05
5.53
8.75
10.62
11.22
10.92
10.11
8.83
6.67
3.12
-1.82
-7.34
-12.10
-14.98
-15.60
-14.48
-12.55
-10.57
-8.81
-7.19
-5.74
-4.81
-4.98
-6.59
-9.22
-11.66
-12.48
-10.79
-6.70
-1.23
4.20
8.45
11.06
12.12
11.95
10.86
9.00
6.59
3.95
1.43
-0.80
-2.90
-5.18
-7.91
-11.00
-14.13
-16.97
-19.58
-22.47
-26.32
-31.52
-37.86
-44.60
-50.84
-56.08
-60.44
-64.48
-68.77
-73.52
-78.47
-83.14
-87.17
-90.45
-93.11
-95.22
-96.69
-97.31
-97.09
-96.49
-96.31
-97.29
-99.65
-102.73
-105.01
-104.69
-100.30
-91.12
-77.34
-59.81
-39.62
-17.82
4.62
26.61
46.83
63.64
75.37
80.85
79.93
73.82
65.02
56.60
50.98
48.83
48.57
46.95
40.57
27.41
7.80
-15.85
-40.22
-62.46
-81.00
-95.34
-105.32
-110.40
-109.69
-102.60
-89.45
-71.98
-52.98
-35.53
-22.05
-13.73
-10.31
-10.24
-11.35
-11.52
-9.42
-4.74
1.94
9.47
16.78
23.51
30.37
38.81
50.33
65.09
81.19
94.90
101.81
99.06
87.13
70.31
55.19
47.98
51.75
65.27
83.68
100.77
111.69
114.43
109.96
101.08
90.71
80.76
71.64
62.83
53.80
44.73
36.59
30.54
27.13
25.88
25.44
24.32
21.78
18.10
14.36
11.54
9.75
8.04
4.81
-1.39
-11.03
-23.22
-36.05
-47.27
-55.04
-58.38
-57.26
-52.54
-45.81
-39.21
-35.09
-35.46
-41.23
-51.66
-64.38
-76.22
-84.36
-87.49
-86.11
-82.13
-77.81
-74.80
-73.66
-73.97
-74.85
-75.44
-75.22
-74.03
-72.00
-69.57
-67.40
-66.33
-67.10
-69.94
-74.03
-77.41
-77.29
-70.96
-57.04
-36.30
-11.69
12.48
32.09
44.66
50.00
49.95
47.36
44.87
43.96
44.76
46.24
46.91
45.53
41.55
35.19
27.24
18.58
9.85
1.45
-6.32
-12.89
-17.23
-18.03
-14.18
-5.42
7.36
22.20
36.68
48.56
56.38
59.60
58.62
54.56
48.87
43.02
38.16
34.69
32.11
29.18
24.40
16.63
5.78
-7.14
-20.16
-30.88
-37.16
-37.55
-31.68
-20.39
-5.75
9.42
22.05
29.62
30.77
25.61
15.66
3.38
-8.40
-17.21
-21.42
-20.47
-14.88
-5.91
4.89
16.14
26.90
36.55
44.61
50.52
53.69
53.58
49.93
42.73
32.23
18.99
3.89
-11.83
-26.68
-39.33
-49.09
-56.14
-61.34
-65.67
-69.66
-73.11
-75.30
-75.52
-73.52
-69.81
-65.43
-61.48
-58.61
-56.65
-54.80
-52.00
-47.42
-40.55
-31.23
-19.57
-6.05
8.43
22.64
35.33
45.69
53.49
59.08
62.95
65.25
65.58
63.25
57.87
49.80
40.19
30.56
22.11
15.29
9.94
5.50
1.53
-2.20
-5.69
-8.82
-11.44
-13.40
-14.61
-14.98
-14.52
-13.31
-11.55
-9.45
-7.17
-4.71
-1.92
1.49
5.90
11.69
19.12
28.27
38.91
50.39
61.73
71.75
79.41
84.10
85.64
84.18
80.02
73.48
65.06
55.53
45.79
36.61
28.26
20.38
12.29
3.47
-6.01
-15.57
-24.59
-32.95
-41.18
-49.94
-59.37
-68.57
-75.84
-79.45
-78.64
-74.04
-67.50
-61.29
-56.98
-54.83
-53.72
-51.85
-47.64
-40.38
-30.34
-18.45
-5.91
5.94
15.60
21.29
21.23
14.38
1.40
-14.82
-29.57
-37.88
-36.42
-24.97
-6.62
13.54
30.36
40.64
44.01
42.72
40.44
40.90
46.75
59.04
77.11
98.74
120.34
137.34
145.10
140.57
123.91
99.45
74.78
57.97
54.00
62.16
76.00
86.15
84.69
68.78
41.75
11.01
-15.63
-33.45
-42.02
-44.05
-42.77
-39.94
-35.44
-28.51
-19.52
-10.80
-5.93
-8.00
-17.64
-32.45
-48.01
-60.07
-66.39
-67.24
-64.66
-60.93
-57.51
-54.92
-53.22
-52.42
-52.36
-52.19
-50.15
-44.27
-33.62
-19.39
-4.61
7.34
14.75
18.60
21.72
26.56
33.17
38.80
39.61
33.20
20.35
4.71
-9.23
-18.52
-22.98
-24.66
-26.04
-28.42
-31.35
-33.25
-32.80
-29.84
-25.41
-21.08
-18.07
-16.73
-16.57
-16.82
-17.04
-17.45
-18.68
-21.22
-24.76
-27.97
-28.82
-25.58
-17.65
-6.06
6.73
17.66
24.00
24.27
18.77
9.51
-0.26
-7.05
-8.28
-3.11
7.29
20.31
32.90
42.60
48.10
49.18
46.26
39.89
30.51
18.45
4.18
-11.45
-27.01
-40.60
-50.08
-53.81
-51.25
-43.39
-32.48
-21.28
-11.98
-5.50
-1.44
1.29
3.66
5.99
8.04
9.36
9.82
9.73
9.61
9.70
9.81
9.27
7.38
3.86
-0.87
-5.66
-9.12
-10.17
-8.47
-4.58
0.36
5.14
9.03
12.04
14.72
17.75
21.30
24.77
26.85
26.01
21.13
12.04
-0.21
-13.38
-24.55
-30.67
-29.33
-19.53
-2.10
20.35
43.96
64.68
79.40
86.85
87.69
83.94
77.87
71.04
63.85
56.00
47.29
38.50
31.56
28.88
32.29
41.92
55.90
71.02
83.88
92.06
94.69
92.32
86.48
78.86
70.69
62.40
53.87
44.87
35.51
26.54
19.06
13.86
10.76
8.38
4.72
-1.96
-12.04
-24.18
-35.77
-43.96
-47.00
-44.97
-39.80
-34.60
-32.61
-36.20
-45.79
-59.64
-74.52
-86.98
-94.76
-97.53
-96.36
-92.32
-85.03
-72.36
-51.86
-22.89
12.24
48.74
81.47
107.15
125.14
136.33
141.29
139.19
128.45
108.71
82.36
54.39
30.31
13.57
3.99
-1.62
-7.36
-15.96
-27.72
-41.14
-54.24
-65.69
-75.17
-82.89
-89.10
-93.67
-96.32
-96.90
-95.72
-93.45
-91.00
-89.10
-88.06
-87.80
-87.86
-87.68
-86.78
-84.97
-82.42
-79.65
-77.31
-75.91
-75.49
-75.41
-74.54
-71.68
-66.15
-58.12
-48.63
-39.13
-30.85
-24.34
-19.31
-14.99
-10.63
-5.93
-1.18
2.95
5.86
7.32
7.54
6.97
6.02
4.85
3.41
1.61
-0.51
-2.70
-4.61
-5.99
-6.84
-7.37
-7.93
-8.84
-10.22
-12.01
-13.91
-15.59
-16.65
-16.76
-15.72
-13.50
-10.23
-6.21
-1.77
2.72
6.94
10.65
13.62
15.75
17.05
17.63
17.80
17.88
18.11
18.52
18.90
18.88
18.08
16.32
13.70
10.52
7.17
4.01
1.22
-1.16
-3.19
-5.01
-6.79
-8.72
-10.87
-13.16
-15.22
-16.51
-16.48
-14.75
-11.34
-6.62
-1.17
4.39
9.58
14.15
17.97
21.04
23.30
24.65
24.98
24.23
22.52
20.13
17.40
14.56
11.69
8.62
5.18
1.34
-2.62
-6.20
-8.94
-10.68
-11.64
-12.31
-13.12
-14.22
-15.42
-16.33
-16.56
-15.91
-14.37
-12.06
-9.19
-6.07
-3.04
-0.46
1.47
2.82
3.96
5.38
7.33
9.64
11.65
12.52
11.66
8.97
4.93
0.28
-4.31
-8.50
-12.34
-15.96
-19.33
-22.23
-24.32
-25.39
-25.58
-25.36
-25.29
-25.87
-27.23
-29.28
-31.78
-34.55
-37.54
-40.78
-44.23
-47.71
-50.83
-53.09
-53.84
-52.44
-48.35
-41.38
-31.84
-20.56
-8.82
2.03
10.88
17.09
20.69
22.24
22.67
22.86
23.47
24.76
26.55
28.35
29.51
29.41
27.59
23.84
18.21
11.02
2.89
-5.32
-12.72
-18.57
-22.48
-24.33
-24.08
-21.58
-16.45
-8.34
2.79
16.26
30.65
44.05
54.72
61.60
64.67
64.84
63.45
61.70
60.21
59.05
57.94
56.54
54.64
52.24
49.43
46.36
43.18
40.03
37.05
34.32
31.85
29.52
27.27
25.09
23.13
21.54
20.34
19.35
18.23
16.71
14.75
12.67
10.99
10.22
10.67
12.42
15.27
18.95
23.09
27.31
31.15
34.09
35.74
35.92
34.80
32.87
30.72
28.80
27.23
25.90
24.50
22.76
20.62
18.17
15.65
13.22
10.98
8.82
6.54
3.95
0.96
-2.44
-6.18
-10.17
-14.30
-18.39
-22.16
-25.20
-27.12
-27.59
-26.60
-24.40
-21.42
-18.11
-14.72
-11.37
-8.06
-4.90
-2.17
-0.22
0.59
0.14
-1.39
-3.57
-5.87
-7.84
-9.28
-10.23
-10.98
-11.84
-13.06
-14.74
-16.77
-18.95
-21.09
-23.07
-24.93
-26.81
-28.86
-31.16
-33.60
-35.84
-37.41
-37.87
-36.95
-34.66
-31.28
-27.15
-22.62
-17.91
-13.18
-8.59
-4.24
-0.23
3.39
6.56
9.14
10.85
11.37
10.55
8.57
6.01
3.61
1.88
0.94
0.45
-0.20
-1.53
-3.70
-6.41
-8.93
-10.37
-10.01
-7.60
-3.44
1.79
7.42
13.22
19.45
26.75
35.74
46.52
58.46
70.16
79.83
85.72
86.72
82.71
74.81
65.20
56.74
52.11
53.02
59.52
69.81
80.70
88.44
89.93
83.57
69.83
51.02
30.49
11.50
-3.75
-14.53
-21.42
-25.65
-28.46
-30.74
-33.01
-35.64
-39.05
-43.63
-49.52
-56.35
-63.20
-68.83
-72.25
-73.04
-71.56
-68.69
-65.38
-62.27
-59.36
-56.10
-51.78
-45.99
-38.94
-31.48
-24.82
-20.02
-17.57
-17.14
-17.71
-18.01
-17.10
-14.73
-11.38
-8.01
-5.48
-4.24
-4.12
-4.59
-5.08
-5.25
-5.09
-4.75
-4.43
-4.20
-4.08
-3.97
-3.78
-3.38
-2.64
-1.40
0.36
2.55
4.96
7.35
9.60
11.71
13.80
15.97
18.16
20.10
21.35
21.45
20.08
17.28
13.45
9.26
5.42
2.40
0.29
-1.15
-2.25
-3.21
-3.97
-4.37
-4.39
-4.26
-4.48
-5.53
-7.62
-10.58
-13.98
-17.30
-20.10
-22.11
-23.11
-22.96
-21.62
-19.23
-16.13
-12.77
-9.52
-6.56
-3.87
-1.38
0.92
2.90
4.39
5.28
5.62
5.62
5.53
5.50
5.51
5.42
5.01
4.16
2.94
1.53
0.18
-0.93
-1.75
-2.34
-2.83
-3.32
-3.90
-4.70
-5.91
-7.68
-10.05
-12.73
-15.12
-16.55
-16.52
-14.93
-12.18
-8.86
-5.54
-2.51
0.19
2.62
4.76
6.48
7.63
8.20
8.32
8.30
8.39
8.73
9.28
9.86
10.23
10.20
9.68
8.68
7.36
5.92
4.52
3.25
2.09
0.87
-0.60
-2.52
-4.95
-7.90
-11.31
-14.99
-18.70
-22.05
-24.60
-25.93
-25.77
-24.05
-20.99
-17.03
-12.76
-8.70
-5.21
-2.37
-0.05
1.95
3.69
5.03
5.75
5.68
4.95
3.98
3.24
3.07
3.40
3.85
3.97
3.58
2.88
2.39
2.55
3.49
4.88
6.07
6.41
5.52
3.39
0.32
-3.24
-6.84
-10.11
-12.74
-14.47
-15.08
-14.46
-12.63
-9.80
-6.34
-2.70
0.65
3.31
5.00
5.55
4.92
3.21
0.85
-1.31
-2.02
0.04
5.73
15.01
26.83
39.47
51.21
60.85
67.88
72.26
74.05
73.29
70.09
64.93
58.74
52.53
46.90
41.60
35.63
27.75
17.14
3.80
-11.53
-27.65
-43.30
-57.25
-68.12
-74.44
-74.92
-69.12
-57.98
-43.84
-29.69
-18.14
-10.42
-6.15
-3.85
-1.89
0.67
3.77
6.73
8.91
10.31
11.56
13.50
16.52
20.28
23.92
26.65
28.36
29.74
32.00
36.13
42.30
49.78
57.38
64.22
70.17
75.91
82.35
90.05
98.85
108.07
116.96
125.18
132.79
140.00
146.67
152.09
155.17
154.98
151.21
144.29
135.03
124.03
111.26
96.23
78.47
58.20
36.52
15.17
-4.07
-20.02
-32.35
-41.33
-47.49
-51.26
-52.97
-52.97
-51.82
-50.26
-49.00
-48.41
-48.38
-48.38
-47.76
-46.11
-43.46
-40.25
-37.05
-34.09
-31.09
-27.41
-22.62
-17.02
-11.67
-8.06
-7.26
-9.38
-13.59
-18.69
-23.88
-29.24
-35.53
-43.53
-53.44
-64.52
-75.38
-84.52
-90.92
-94.32
-95.13
-94.14
-92.06
-89.25
-85.64
-80.96
-75.10
-68.31
-61.27
-54.64
-48.46
-41.84
-33.18
-21.08
-5.38
12.47
29.87
44.30
54.40
60.29
62.88
62.89
60.27
54.45
45.25
33.62
21.61
11.53
4.69
0.77
-1.89
-5.25
-10.66
-18.49
-28.32
-39.52
-51.51
-63.89
-76.36
-88.82
-101.41
-114.60
-128.96
-144.67
-161.13
-176.74
-188.97
-195.03
-192.84
-181.68
-162.59
-137.96
-110.65
-83.12
-56.91
-32.68
-10.46
10.39
31.25
54.16
81.07
112.73
147.68
182.10
211.03
230.13
237.43
233.75
221.74
204.42
184.14
162.49
141.05
121.86
106.97
97.54
93.01
91.09
88.93
84.56
77.87
70.48
64.69
61.88
61.53
61.27
57.96
49.19
34.31
14.62
-7.31
-28.63
-47.15
-61.48
-71.02
-75.72
-76.19
-74.13
-72.37
-74.02
-81.09
-92.97
-106.54
-117.66
-123.88
-126.40
-129.95
-140.25
-160.27
-187.47
-214.02
-230.07
-228.35
-207.54
-172.39
-130.71
-89.32
-51.40
-16.53
17.11
50.03
80.38
104.80
120.33
126.15
124.01
117.35
109.71
103.70
100.66
101.09
105.04
112.13
121.30
130.58
137.24
138.56
132.83
120.04
102.00
81.76
62.35
45.86
32.80
22.34
13.15
4.20
-4.77
-13.47
-21.61
-29.25
-36.68
-44.15
-51.42
-57.73
-62.18
-64.38
-64.68
-63.99
-63.45
-63.75
-65.00
-66.71
-68.15
-68.74
-68.29
-67.03
-65.44
-64.02
-63.13
-62.86
-63.09
-63.61
-64.22
-64.80
-65.31
-65.72
-66.03
-66.20
-66.25
-66.20
-65.99
-65.39
-64.10
-61.86
-58.58
-54.42
-49.56
-44.06
-37.83
-30.73
-22.69
-13.89
-4.70
4.39
12.73
19.55
24.01
25.41
23.45
18.48
11.51
3.94
-2.96
-8.58
-13.09
-17.10
-21.17
-25.35
-29.21
-32.23
-34.12
-35.12
-35.88
-37.08
-39.16
-42.10
-45.51
-48.77
-51.14
-51.89
-50.29
-45.70
-37.80
-27.02
-14.87
-3.62
4.34
7.45
5.65
0.35
-6.33
-12.61
-17.98
-23.18
-29.58
-38.09
-48.22
-57.83
-63.90
-63.96
-57.52
-46.67
-35.58
-29.00
-30.46
-40.92
-58.31
-78.10
-94.74
-103.28
-100.76
-86.89
-63.99
-36.27
-8.60
14.75
31.11
39.75
41.55
38.04
30.51
19.56
5.29
-11.93
-31.00
-50.04
-67.13
-81.09
-92.11
-101.17
-109.03
-115.19
-117.90
-115.05
-105.81
-91.83
-77.03
-66.33
-63.52
-69.27
-80.63
-91.66
-95.01
-83.87
-54.33
-6.83
53.11
115.93
170.61
207.92
223.17
217.15
195.14
164.59
132.73
105.00
84.65
73.09
70.51
76.17
88.33
104.14
119.63
130.23
131.69
121.41
99.51
69.25
36.52
7.90
-11.75
-20.69
-20.62
-15.49
-9.68
-6.44
-7.35
-12.60
-21.50
-33.18
-46.69
-60.96
-74.60
-85.74
-92.24
-92.09
-84.29
-69.38
-49.63
-28.27
-8.22
9.04
23.77
37.31
50.97
65.14
79.34
92.71
104.63
114.75
122.64
127.41
127.74
122.59
111.95
97.22
80.71
64.86
51.49
41.50
35.04
31.73
30.84
31.31
31.74
30.68
27.03
20.63
12.51
4.69
-0.48
-1.19
3.18
11.86
23.20
35.40
47.20
58.03
67.83
76.62
84.10
89.75
92.99
93.46
91.19
86.45
79.69
71.39
62.09
52.37
42.87
34.16
26.71
20.65
15.82
11.74
7.76
3.31
-1.87
-7.65
-13.59
-19.15
-23.86
-27.33
-29.08
-28.49
-24.92
-18.16
-8.76
1.95
12.39
21.37
28.46
33.94
38.21
41.19
42.30
40.89
36.85
31.01
24.76
19.40
15.46
12.57
9.88
6.70
2.90
-1.22
-5.29
-9.26
-13.37
-17.89
-22.82
-27.83
-32.59
-36.99
-41.20
-45.30
-48.91
-51.15
-50.98
-47.81
-41.92
-34.39
-26.60
-19.54
-13.55
-8.47
-4.06
-0.42
1.99
2.66
1.48
-1.14
-4.38
-7.43
-9.83
-11.60
-13.08
-14.65
-16.60
-18.98
-21.71
-24.62
-27.49
-30.04
-31.91
-32.91
-33.10
-32.86
-32.66
-32.73
-32.79
-32.05
-29.63
-25.00
-18.38
-10.65
-2.96
3.76
9.17
13.40
16.71
19.09
20.24
19.73
17.37
13.53
9.03
4.87
1.81
0.04
-0.77
-1.24
-1.95
-3.16
-4.77
-6.51
-8.13
-9.62
-11.28
-13.43
-16.33
-19.94
-23.98
-27.84
-30.86
-32.32
-31.57
-28.21
-22.26
-14.22
-5.04
4.15
12.26
18.53
22.61
24.59
24.87
24.05
22.78
21.60
20.78
20.32
19.96
19.36
18.31
16.87
15.28
13.85
12.75
11.99
11.37
10.65
9.58
7.90
5.28
1.38
-3.96
-10.59
-17.81
-24.43
-29.07
-30.56
-28.33
-22.69
-14.69
-5.71
2.94
10.29
15.82
19.30
20.69
20.04
17.57
13.75
9.26
4.93
1.47
-0.82
-2.09
-2.86
-3.72
-5.03
-6.71
-8.32
-9.31
-9.35
-8.58
-7.58
-7.08
-7.69
-9.58
-12.52
-15.93
-19.03
-21.03
-21.18
-19.00
-14.43
-7.83
-0.02
8.02
15.36
21.43
25.93
28.80
30.02
29.60
27.68
24.70
21.36
18.39
16.15
14.41
12.38
9.09
3.91
-3.06
-10.98
-18.76
-25.64
-31.77
-38.32
-47.10
-59.87
-77.74
-100.76
-128.01
-157.60
-187.06
-213.61
-234.56
-247.68
-251.59
-246.04
-231.80
-210.32
-183.35
-152.61
-119.65
-86.02
-53.59
-24.63
-1.53
14.00
21.91
24.49
26.13
32.17
46.90
71.85
105.10
141.87
176.49
204.22
222.66
231.79
233.12
228.53
219.54
207.20
192.46
176.59
161.35
148.68
140.19
136.63
137.47
141.12
145.33
147.95
147.60
143.97
137.70
129.96
121.82
113.93
106.46
99.20
91.85
84.23
76.21
67.55
57.75
46.15
32.32
16.50
-0.27
-16.40
-30.52
-42.16
-51.93
-61.07
-70.62
-80.73
-90.44
-98.16
-102.24
-101.61
-96.01
-85.99
-72.94
-58.92
-46.34
-37.40
-33.42
-34.50
-39.87
-48.52
-60.02
-74.63
-92.75
-113.83
-135.78
-155.03
-167.43
-169.37
-159.06
-137.16
-106.91
-73.44
-42.36
-18.25
-3.35
2.75
2.29
-2.05
-8.62
-17.38
-29.28
-44.98
-63.64
-82.70
-98.72
-109.02
-112.88
-111.87
-108.70
-105.88
-104.39
-103.54
-101.73
-97.78
-91.98
-86.05
-82.19
-81.63
-83.81
-86.50
-86.89
-83.03
-74.75
-63.74
-52.57
-43.56
-37.86
-35.21
-34.37
-33.82
-32.47
-29.94
-26.74
-23.92
-22.66
-23.77
-27.30
-32.43
-37.56
-40.66
-39.86
-34.02
-23.09
-8.16
8.91
26.04
41.61
54.70
65.15
73.34
79.93
85.63
91.19
97.34
104.47
112.10
118.54
121.39
118.72
110.45
98.90
87.88
80.76
78.66
79.97
81.55
80.81
77.15
71.84
66.52
61.36
54.60
43.62
27.04
6.18
-15.03
-31.80
-40.56
-40.00
-31.00
-15.48
4.33
26.10
46.87
63.19
71.81
71.18
62.55
49.73
37.48
29.37
26.23
26.32
26.87
26.03
23.84
21.81
21.45
22.95
24.94
25.28
22.22
15.20
4.94
-6.97
-18.43
-27.07
-30.28
-25.83
-12.65
8.42
34.59
62.01
87.14
107.84
123.43
134.13
140.13
141.30
137.56
129.56
119.02
108.12
98.45
90.09
81.55
70.50
55.13
35.25
12.45
-10.41
-30.26
-44.81
-53.34
-56.71
-56.92
-56.39
-57.19
-60.53
-66.71
-75.37
-85.83
-97.26
-108.59
-118.37
-124.68
-125.29
-118.24
-102.60
-79.00
-49.74
-18.20
12.10
38.49
59.58
75.11
85.48
91.17
92.61
90.31
85.29
79.08
73.44
69.76
68.45
68.85
69.57
69.27
67.28
63.73
59.36
55.03
51.22
47.82
44.30
39.93
34.20
26.99
18.65
9.88
1.62
-5.07
-9.17
-9.98
-7.33
-1.74
5.61
13.37
20.37
26.13
30.80
34.83
38.48
41.53
43.36
43.47
41.92
39.44
37.12
35.72
35.24
34.86
33.35
29.78
23.93
16.51
8.79
2.15
-2.56
-5.24
-6.65
-8.15
-11.21
-16.95
-25.69
-36.73
-48.51
-58.98
-66.19
-68.91
-66.94
-60.99
-52.40
-42.45
-32.09
-21.90
-12.27
-3.74
3.01
7.36
9.16
8.91
7.54
5.96
4.57
3.01
0.47
-3.80
-9.97
-17.44
-25.10
-31.56
-35.69
-36.82
-34.90
-30.55
-24.96
-19.60
-15.92
-14.87
-16.61
-20.34
-24.61
-27.75
-28.39
-25.88
-20.51
-13.40
-6.23
-0.73
1.89
1.39
-1.39
-4.83
-7.28
-7.80
-6.48
-4.29
-2.41
-1.51
-1.35
-1.03
0.41
3.41
7.51
11.80
15.42
18.08
20.11
21.97
23.77
24.92
24.30
20.78
13.85
3.91
-7.73
-19.26
-28.92
-35.49
-38.56
-38.56
-36.60
-34.05
-32.05
-31.19
-31.24
-31.53
-31.28
-30.18
-28.61
-27.50
-27.86
-30.33
-34.92
-41.11
-48.15
-55.41
-62.60
-69.69
-76.75
-83.75
-90.37
-96.12
-100.50
-103.02
-103.35
-101.21
-96.38
-88.60
-77.77
-63.86
-46.92
-26.91
-3.80
22.13
49.86
77.42
102.29
122.40
137.26
148.47
159.19
172.70
190.79
212.85
236.00
256.01
268.81
271.44
262.65
242.77
213.35
176.94
136.82
96.74
60.11
29.06
3.69
-18.08
-39.55
-63.59
-90.90
-119.36
-144.66
-162.35
-170.07
-168.69
-161.72
-153.28
-146.11
-140.63
-135.66
-130.03
-123.49
-116.67
-109.65
-100.79
-86.55
-63.09
-28.69
14.26
59.18
97.40
121.43
127.92
118.80
100.31
80.14
64.47
56.16
54.67
57.68
63.13
70.58
81.26
96.84
117.55
141.01
162.38
175.44
174.46
155.78
118.76
66.59
6.63
-50.26
-91.78
-107.86
-94.74
-57.41
-8.77
34.47
57.59
52.49
19.63
-33.37
-95.03
-153.32
-197.73
-220.07
-215.37
-183.20
-129.18
-64.98
-6.29
31.32
37.13
9.13
-45.20
-111.18
-171.16
-209.55
-216.71
-190.87
-138.05
-70.27
-2.57
50.46
78.35
77.22
50.38
6.57
-43.28
-88.96
-122.60
-138.80
-134.32
-108.65
-65.12
-11.68
40.24
79.19
97.77
95.03
75.56
46.45
14.25
-15.93
-39.53
-51.45
-47.08
-25.27
8.97
44.75
69.51
74.52
58.69
27.97
-8.88
-44.61
-75.00
-97.43
-108.48
-103.70
-80.43
-41.31
4.27
42.77
62.19
57.23
31.09
-6.76
-44.72
-72.69
-83.64
-73.73
-42.81
4.65
58.78
105.74
131.71
128.46
96.86
46.65
-8.04
-54.05
-82.97
-91.75
-81.09
-53.86
-14.82
28.59
66.32
87.66
85.21
57.82
11.36
-43.79
-96.71
-138.93
-165.33
-172.95
-159.72
-125.12
-71.93
-8.05
54.20
101.66
124.86
121.42
96.12
58.39
18.62
-14.27
-33.73
-35.72
-19.34
12.27
51.37
86.95
108.55
110.05
91.99
60.30
22.73
-14.89
-49.50
-78.99
-99.62
-105.51
-91.47
-57.30
-10.46
35.55
66.74
74.90
60.83
32.67
0.85
-27.30
-49.43
-66.21
-77.39
-79.53
-67.36
-37.97
5.47
52.98
91.36
109.93
104.91
80.12
43.90
4.70
-31.75
-62.27
-84.08
-93.30
-86.00
-61.07
-22.71
19.59
54.30
72.57
71.39
53.70
25.53
-7.45
-41.58
-74.17
-101.38
-117.06
-114.73
-91.24
-49.86
-0.34
44.68
74.64
84.87
77.10
56.92
30.47
2.44
-23.29
-42.26
-48.86
-38.09
-8.87
33.47
77.68
110.29
120.94
106.52
71.99
27.45
-16.29
-51.93
-76.59
-90.23
-93.10
-84.39
-63.19
-31.17
5.59
37.30
53.95
50.10
28.01
-3.00
-30.87
-46.61
-48.00
-39.35
-27.72
-18.16
-10.90
-2.31
11.60
31.45
53.10
69.15
72.52
59.88
33.25
-1.12
-35.46
-63.20
-80.55
-86.33
-80.85
-64.82
-39.11
-5.35
33.36
72.38
106.49
131.52
145.52
149.19
145.34
137.76
130.23
125.81
126.12
130.66
136.37
138.56
132.69
116.63
91.95
63.18
35.83
14.18
-0.00
-7.18
-8.83
-6.46
-1.62
3.53
5.56
0.39
-14.89
-39.80
-69.71
-97.39
-116.24
-123.44
-121.16
-115.10
-111.36
-113.33
-119.96
-126.70
-128.10
-120.43
-103.28
-78.92
-50.66
-21.08
8.66
38.48
68.36
97.69
124.98
148.12
164.85
173.32
172.76
163.73
147.91
127.53
104.85
81.67
59.21
38.34
19.57
3.02
-11.76
-25.83
-40.57
-56.73
-73.79
-89.59
-100.89
-104.73
-100.15
-89.02
-75.77
-65.76
-62.97
-68.16
-78.25
-87.22
-88.52
-77.59
-53.94
-22.12
9.14
29.72
31.80
13.41
-20.19
-58.03
-87.46
-98.79
-88.83
-61.37
-25.28
8.83
31.91
38.61
27.92
2.94
-29.75
-61.38
-82.55
-85.51
-66.66
-28.35
21.14
69.50
104.07
115.61
101.19
64.95
16.52
-31.81
-68.18
-83.66
-74.01
-40.40
10.52
67.33
116.36
145.18
146.44
120.44
74.91
22.37
-23.84
-53.37
-60.85
-46.35
-14.36
27.18
68.25
98.54
109.86
98.62
67.16
23.17
-22.51
-59.00
-78.00
-75.31
-51.15
-9.95
40.06
87.80
121.71
132.94
118.50
82.34
33.93
-15.39
-55.86
-81.12
-88.03
-75.77
-45.79
-2.80
44.52
84.45
105.93
102.68
75.94
33.85
-12.14
-51.57
-77.72
-88.03
-82.81
-64.28
-36.21
-4.21
24.77
44.05
49.17
39.39
17.54
-11.69
-43.14
-71.81
-92.40
-99.20
-87.56
-56.66
-11.79
35.75
72.30
86.96
75.91
43.57
-0.07
-44.03
-80.32
-104.85
-116.14
-113.38
-96.05
-65.35
-26.10
12.86
40.89
49.43
35.56
3.36
-37.79
-76.64
-103.59
-112.65
-101.80
-72.54
-29.32
21.07
70.07
108.78
129.79
129.21
107.79
70.62
25.63
-18.71
-55.25
-78.90
-86.53
-76.83
-50.83
-12.71
29.86
66.78
88.33
88.36
66.68
29.07
-15.09
-56.38
-87.89
-105.93
-108.97
-96.61
-69.78
-31.80
10.67
48.39
72.14
76.34
61.10
31.80
-3.70
-38.39
-67.82
-89.32
-100.08
-96.04
-73.53
-32.49
20.88
74.37
113.70
128.11
114.79
79.49
33.53
-11.25
-46.03
-66.01
-69.19
-55.29
-25.91
14.31
56.90
91.12
107.47
101.57
76.06
39.43
2.11
-27.76
-46.82
-55.96
-57.64
-53.24
-42.33
-24.02
0.50
26.71
47.61
56.55
50.45
31.26
4.93
-21.90
-44.83
-62.56
-75.13
-81.42
-78.30
-62.50
-33.90
2.02
35.03
54.27
53.21
32.64
0.13
-33.95
-61.33
-78.56
-86.24
-85.90
-77.24
-57.88
-26.05
16.05
60.76
96.89
114.18
107.97
81.30
43.33
5.33
-23.54
-38.11
-36.97
-20.80
8.33
46.50
87.12
121.11
139.11
134.93
108.33
65.38
16.03
-29.96
-66.69
-93.42
-113.23
-129.73
-143.89
-152.68
-150.38
-132.09
-97.47
-52.40
-7.34
26.73
43.08
41.80
28.75
11.83
-3.45
-16.21
-28.91
-43.47
-57.83
-65.14
-57.08
-29.18
15.54
66.30
108.69
130.66
127.31
102.13
64.52
25.08
-8.00
-30.06
-38.91
-33.48
-13.67
18.07
55.57
89.39
109.42
108.69
86.26
47.48
1.63
-41.25
-73.19
-89.07
-86.33
-64.73
-26.82
21.07
68.93
105.20
120.26
109.55
75.12
24.37
-32.66
-86.20
-128.34
-153.28
-157.11
-138.58
-100.50
-50.73
-1.53
33.66
44.76
28.57
-10.22
-61.27
-112.76
-155.20
-183.26
-195.40
-192.07
-174.09
-142.35
-98.54
-46.08
9.64
62.26
106.17
138.04
157.47
166.43
167.68
163.39
154.42
140.72
122.51
101.24
79.73
61.32
48.43
41.32
37.95
34.93
29.00
18.32
3.06
-14.86
-32.51
-46.70
-54.74
-54.89
-46.75
-31.46
-11.44
10.15
30.31
46.83
58.75
66.11
69.47
69.43
66.51
61.27
54.62
47.96
42.98
41.10
42.88
47.68
53.95
59.85
64.13
66.46
67.36
67.48
67.02
65.49
61.89
54.91
43.33
25.94
1.64
-30.08
-68.36
-110.28
-150.75
-183.62
-203.52
-207.71
-196.87
-174.56
-145.58
-114.20
-82.93
-52.28
-21.46
10.50
43.90
77.81
110.25
138.93
162.33
180.51
195.34
209.37
224.21
238.70
248.47
247.05
228.41
189.49
131.86
61.41
-13.61
-84.85
-145.59
-191.36
-219.82
-230.54
-225.12
-207.82
-185.35
-165.61
-154.95
-155.42
-163.57
-171.72
-171.28
-156.96
-129.03
-92.81
-55.75
-23.92
0.07
16.56
26.82
30.62
25.73
9.60
-17.69
-51.51
-83.00
-102.19
-102.20
-82.08
-47.21
-6.66
30.78
59.95
80.56
95.78
109.74
124.79
140.59
154.73
164.77
170.05
172.52
175.87
183.61
196.87
212.91
225.51
227.10
211.89
178.36
129.83
73.17
16.48
-32.85
-69.02
-87.95
-87.93
-70.61
-42.00
-12.38
6.12
3.47
-24.16
-72.20
-128.87
-179.57
-212.43
-222.60
-213.27
-192.95
-170.90
-153.19
-141.31
-133.41
-126.87
-120.11
-112.52
-103.02
-88.75
-65.42
-29.67
18.28
73.32
126.69
169.06
193.97
199.56
188.41
165.66
136.86
106.50
77.55
51.69
29.94
13.19
2.46
-1.18
2.77
13.65
29.55
47.68
65.32
80.65
93.20
103.66
113.24
122.98
133.10
142.59
149.08
149.11
138.94
115.78
79.07
31.31
-21.51
-70.50
-105.58
-118.21
-104.55
-67.66
-17.65
30.91
63.33
69.24
45.40
-3.93
-69.04
-137.79
-198.36
-240.93
-258.50
-248.11
-212.00
-158.40
-100.34
-52.46
-26.59
-27.96
-53.89
-95.51
-141.10
-179.98
-204.80
-211.80
-199.76
-169.01
-121.38
-61.14
3.99
63.62
107.43
128.72
127.10
108.44
82.02
56.28
35.93
21.84
13.43
11.29
17.69
34.50
60.19
88.23
108.92
113.59
98.79
67.73
28.00
-12.31
-47.86
-76.40
-96.70
-106.45
-102.31
-82.22
-48.37
-8.25
27.42
48.89
51.49
36.81
11.13
-18.49
-47.19
-72.87
-94.28
-108.52
-110.55
-95.32
-61.53
-14.37
34.91
72.90
89.37
81.00
52.00
11.47
-30.41
-65.15
-86.68
-90.97
-75.89
-42.25
4.85
55.81
98.59
122.47
121.56
96.55
53.58
1.67
-49.61
-91.56
-116.64
-119.19
-97.01
-53.33
2.69
57.62
98.01
114.79
105.95
76.35
35.06
-7.77
-43.28
-64.79
-68.19
-52.49
-20.74
19.61
57.97
83.55
89.36
74.77
45.69
11.75
-17.65
-36.59
-43.86
-41.72
-33.43
-21.43
-7.08
8.39
22.88
33.36
37.07
33.16
23.65
12.83
5.69
5.79
13.97
28.38
45.50
61.61
73.90
80.86
82.12
78.02
69.14
56.37
41.24
25.98
13.24
4.98
1.26
-0.14
-2.71
-8.86
-17.84
-25.38
-25.78
-15.30
4.86
28.18
45.44
48.45
33.04
-0.31
-47.91
-104.73
-165.33
-223.75
-273.17
-306.63
-318.87
-308.37
-278.02
-234.06
-183.39
-131.11
-79.71
-30.03
17.15
59.87
95.41
121.54
137.68
145.20
146.62
144.35
139.92
133.76
125.79
116.08
105.31
94.50
84.58
75.75
67.15
57.18
44.15
27.20
6.87
-14.77
-34.70
-49.99
-58.73
-60.70
-57.16
-50.36
-42.59
-35.58
-29.95
-25.32
-20.71
-15.16
-8.36
-0.97
5.69
10.40
12.94
14.59
17.88
25.60
39.50
59.25
82.13
103.78
119.85
127.58
126.98
120.66
112.55
106.13
103.13
103.07
103.69
101.82
94.01
77.31
50.11
12.95
-30.37
-72.67
-104.39
-116.43
-103.96
-69.32
-22.64
20.78
45.95
43.98
15.63
-29.38
-77.02
-114.93
-136.95
-143.86
-140.89
-133.83
-126.17
-118.56
-110.01
-99.70
-87.99
-76.19
-65.84
-58.00
-53.13
-50.77
-49.40
-46.08
-36.54
-16.27
17.75
65.27
122.31
181.89
236.02
277.85
303.34
311.76
305.25
287.37
261.57
230.15
194.09
153.88
110.51
66.20
24.27
-11.70
-39.11
-57.23
-67.10
-70.98
-71.09
-68.72
-64.03
-56.68
-46.74
-35.36
-24.76
-17.70
-16.73
-23.83
-39.76
-63.64
-92.55
-121.20
-142.35
-148.22
-132.69
-93.97
-36.54
28.99
88.39
127.96
138.53
117.80
70.44
6.02
-63.67
-126.91
-173.40
-195.15
-187.72
-152.17
-96.53
-35.14
15.06
40.40
35.77
6.26
-35.77
-76.76
-107.30
-124.54
-130.19
-126.41
-113.28
-89.23
-54.30
-13.07
25.34
51.07
58.38
48.66
29.28
9.16
-6.09
-16.31
-24.85
-34.54
-44.19
-48.08
-39.11
-13.10
27.78
74.98
116.35
141.05
143.82
126.92
98.69
69.31
46.32
31.57
21.92
12.29
-0.26
-14.19
-24.56
-26.53
-18.95
-5.74
6.30
11.52
8.63
1.10
-5.28
-6.03
-0.17
9.84
20.37
29.09
36.22
44.03
54.90
69.48
85.95
100.76
110.11
111.45
104.23
89.81
70.96
50.90
32.52
17.75
7.23
0.42
-3.99
-7.54
-11.40
-16.08
-21.40
-26.74
-31.42
-34.63
-35.40
-32.73
-26.01
-15.71
-3.55
7.99
16.59
21.03
21.47
19.15
15.71
12.55
10.25
8.24
4.89
-2.12
-15.06
-35.45
-63.43
-97.52
-134.79
-171.27
-202.50
-223.92
-231.44
-222.12
-195.15
-152.80
-100.50
-45.60
4.47
44.15
70.88
84.99
88.81
85.55
78.34
69.77
61.69
55.32
51.31
49.85
50.70
53.31
56.95
60.91
64.66
67.90
70.57
72.76
74.62
76.29
77.91
79.59
81.40
83.40
85.47
87.24
88.09
87.36
84.55
79.70
73.36
66.45
59.81
53.80
48.28
42.85
37.29
31.86
27.06
23.22
19.92
15.94
9.66
-0.09
-13.34
-28.79
-44.16
-57.05
-65.69
-69.44
-68.77
-64.89
-59.17
-52.81
-46.59
-40.93
-35.88
-31.24
-26.32
-19.90
-10.30
3.95
23.25
46.21
69.78
90.35
105.18
113.45
115.98
113.98
107.57
95.20
74.74
45.15
8.09
-31.81
-68.30
-95.47
-109.18
-107.74
-91.70
-63.59
-28.00
8.42
37.68
52.17
47.05
22.13
-17.80
-64.58
-109.33
-145.02
-167.89
-177.25
-174.42
-161.58
-141.07
-115.41
-87.68
-61.63
-41.35
-30.22
-29.90
-39.44
-55.32
-72.32
-85.19
-90.32
-86.86
-76.73
-63.36
-50.00
-38.26
-27.88
-17.35
-5.38
8.14
22.02
34.59
44.80
52.99
60.61
69.38
80.21
92.73
105.49
116.73
125.05
129.74
130.63
127.87
121.64
111.97
98.61
81.07
58.66
30.72
-2.71
-40.32
-79.24
-115.44
-144.83
-164.40
-173.03
-171.56
-162.17
-147.40
-129.55
-110.50
-91.83
-75.15
-62.02
-53.54
-49.97
-50.42
-52.99
-55.46
-55.99
-53.79
-49.27
-43.73
-38.82
-35.75
-34.88
-35.68
-37.16
-38.47
-39.33
-40.16
-41.72
-44.62
-48.89
-53.91
-58.82
-62.91
-65.92
-67.88
-68.83
-68.38
-65.68
-59.77
-50.09
-36.91
-21.36
-5.14
9.99
22.65
32.04
37.88
40.30
39.73
36.83
32.36
27.11
21.75
16.84
12.76
9.85
8.37
8.47
10.01
12.58
15.48
17.86
18.96
18.17
15.16
9.82
2.48
-6.11
-14.66
-21.65
-25.61
-25.63
-21.53
-13.71
-2.85
10.47
25.82
42.74
60.33
77.19
91.53
101.77
107.11
107.73
104.67
99.23
92.30
84.17
74.68
63.52
50.74
36.80
22.46
8.51
-4.31
-15.20
-23.21
-27.38
-27.31
-23.76
-18.86
-15.59
-16.48
-22.45
-32.18
-42.66
-50.59
-53.80
-51.97
-46.37
-38.84
-30.80
-23.06
-16.18
-10.97
-8.49
-9.46
-13.52
-18.99
-23.39
-24.24
-19.89
-9.80
5.69
25.63
48.36
71.35
91.41
105.55
112.30
112.53
109.24
106.08
105.63
108.36
112.76
116.22
116.17
110.58
98.17
78.78
53.58
25.35
-1.93
-24.37
-39.77
-48.60
-53.39
-57.11
-61.32
-65.52
-67.73
-65.92
-59.25
-48.56
-35.99
-24.19
-15.43
-10.75
-9.37
-8.55
-4.16
7.85
29.70
60.55
96.57
132.47
163.47
186.87
202.10
209.82
210.52
204.16
190.67
171.05
147.90
125.16
106.75
95.11
90.34
90.39
92.16
92.85
91.03
86.82
81.40
76.01
71.30
67.00
62.31
56.48
49.35
41.45
33.68
26.78
20.85
15.39
9.57
2.74
-5.22
-13.86
-22.39
-30.00
-36.10
-40.49
-43.30
-44.88
-45.72
-46.40
-47.42
-49.11
-51.42
-53.92
-55.79
-56.19
-54.56
-50.87
-45.58
-39.52
-33.45
-27.83
-22.79
-18.22
-14.08
-10.50
-7.81
-6.25
-5.87
-6.31
-6.96
-7.23
-6.74
-5.51
-3.94
-2.63
-2.12
-2.65
-4.10
-5.97
-7.77
-9.13
-10.13
-11.18
-12.84
-15.57
-19.47
-24.23
-29.26
-33.89
-37.52
-39.78
-40.52
-39.85
-38.09
-35.61
-32.85
-30.10
-27.48
-24.92
-22.34
-19.69
-17.08
-14.76
-12.96
-11.79
-11.00
-10.11
-8.54
-5.96
-2.48
1.35
4.65
6.70
7.12
6.11
4.21
2.06
0.10
-1.59
-3.17
-4.99
-7.36
-10.50
-14.42
-18.91
-23.44
-27.31
-29.73
-30.11
-28.25
-24.43
-19.34
-13.87
-8.78
-4.60
-1.47
0.66
1.99
2.71
2.92
2.69
2.11
1.27
0.30
-0.75
-1.87
-3.19
-4.81
-6.75
-8.90
-11.07
-13.09
-14.91
-16.61
-18.36
-20.32
-22.56
-25.11
-27.94
-31.08
-34.54
-38.23
-41.88
-45.01
-46.95
-47.12
-45.22
-41.32
-35.90
-29.74
-23.68
-18.38
-14.18
-11.04
-8.66
-6.71
-5.05
-3.73
-2.97
-2.89
-3.41
-4.16
-4.70
-4.64
-3.88
-2.58
-1.11
0.13
0.82
0.72
-0.22
-1.92
-4.00
-5.80
-6.49
-5.38
-2.19
2.69
8.32
13.48
16.95
17.89
16.02
11.64
5.55
-1.15
-7.42
-12.61
-16.59
-19.77
-22.78
-26.16
-30.06
-34.23
-38.16
-41.46
-43.90
-45.43
-45.99
-45.36
-43.27
-39.68
-34.96
-29.87
-25.35
-22.10
-20.39
-20.05
-20.71
-22.02
-23.77
-25.83
-27.94
-29.70
-30.62
-30.40
-29.07
-26.93
-24.32
-21.37
-17.89
-13.55
-8.08
-1.58
5.53
12.72
19.64
26.29
32.93
39.76
46.60
52.77
57.32
59.43
58.79
55.75
51.10
45.63
39.75
33.31
25.77
16.60
5.70
-6.40
-18.68
-29.98
-39.43
-46.72
-52.16
-56.49
-60.49
-64.82
-69.67
-74.77
-79.49
-83.00
-84.52
-83.59
-80.12
-74.44
-67.08
-58.64
-49.63
-40.38
-31.16
-22.27
-14.06
-6.88
-0.94
3.68
7.07
9.40
10.86
11.61
11.80
11.56
10.96
10.09
9.15
8.50
8.56
9.61
11.53
13.69
15.08
14.75
12.18
7.47
1.22
-5.84
-13.02
-19.79
-25.62
-29.88
-31.95
-31.38
-28.23
-23.10
-16.98
-10.85
-5.33
-0.61
3.48
7.05
10.06
12.29
13.51
13.72
13.28
12.71
12.55
12.97
13.78
14.47
14.45
13.36
11.17
8.16
4.72
1.23
-2.06
-5.09
-8.00
-11.06
-14.67
-19.22
-24.89
-31.47
-38.27
-44.25
-48.31
-49.64
-47.95
-43.54
-37.07
-29.31
-20.91
-12.30
-3.87
3.99
10.82
16.16
19.71
21.51
21.88
21.37
20.49
19.56
18.67
17.75
16.71
15.50
14.19
12.82
11.47
10.14
8.82
7.39
5.69
3.42
0.32
-3.83
-8.97
-14.80
-20.80
-26.40
-31.02
-34.16
-35.35
-34.19
-30.50
-24.46
-16.66
-7.89
1.12
9.90
18.28
26.19
33.43
39.61
44.29
47.23
48.63
49.05
49.20
49.57
50.29
51.02
51.25
50.53
48.68
45.86
42.54
39.25
36.40
34.16
32.38
30.60
28.17
24.42
18.82
11.16
1.75
-8.54
-18.30
-25.81
-29.55
-28.67
-23.26
-14.39
-3.64
7.38
17.54
26.36
33.78
39.96
45.06
49.12
52.16
54.19
55.26
55.42
54.77
53.43
51.64
49.63
47.60
45.56
43.33
40.59
37.11
32.83
27.85
22.39
16.68
10.92
5.24
-0.26
-5.62
-11.10
-17.11
-23.98
-31.69
-39.56
-46.29
-50.36
-50.55
-46.53
-38.92
-29.18
-19.01
-9.80
-2.26
3.66
8.49
12.76
16.80
20.53
23.68
25.99
27.42
28.19
28.67
29.16
29.77
30.31
30.44
29.85
28.42
26.16
23.24
19.84
16.08
12.00
7.55
2.73
-2.48
-8.03
-13.95
-20.33
-27.36
-35.18
-43.63
-52.06
-59.30
-63.90
-64.44
-60.14
-51.16
-38.64
-24.33
-10.00
3.01
14.14
23.50
31.54
38.76
45.47
51.78
57.63
62.93
67.57
71.39
74.22
75.88
76.18
75.05
72.58
68.99
64.63
59.91
55.16
50.59
46.17
41.74
37.10
32.15
26.93
21.53
15.92
9.88
3.10
-4.55
-12.78
-20.71
-27.03
-30.41
-29.94
-25.47
-17.56
-7.24
4.32
16.14
27.51
37.90
46.87
54.07
59.17
62.11
63.13
62.74
61.64
60.42
59.38
58.42
57.17
55.16
52.04
47.79
42.59
36.79
30.66
24.27
17.53
10.38
2.82
-4.93
-12.53
-19.70
-26.29
-32.37
-38.20
-44.13
-50.52
-57.47
-64.70
-71.47
-76.67
-79.16
-78.16
-73.52
-65.79
-56.00
-45.33
-34.73
-24.78
-15.75
-7.72
-0.77
4.98
9.43
12.60
14.72
16.15
17.25
18.30
19.32
20.12
20.45
20.16
19.29
18.07
16.75
15.35
13.71
11.49
8.47
4.71
0.54
-3.58
-7.27
-10.48
-13.45
-16.53
-20.02
-24.05
-28.58
-33.44
-38.35
-42.88
-46.37
-48.06
-47.29
-43.81
-37.99
-30.80
-23.54
-17.45
-13.33
-11.30
-11.02
-11.95
-13.72
-16.24
-19.59
-23.80
-28.59
-33.40
-37.52
-40.41
-41.86
-42.04
-41.31
-40.07
-38.55
-36.80
-34.71
-32.09
-28.80
-24.80
-20.26
-15.61
-11.37
-7.94
-5.45
-3.73
-2.49
-1.57
-1.12
-1.51
-3.07
-5.74
-8.88
-11.42
-12.19
-10.39
-5.91
0.58
7.95
15.00
20.95
25.63
29.36
32.64
35.71
38.46
40.57
41.76
42.05
41.73
41.05
40.02
38.30
35.46
31.36
26.39
21.42
17.33
14.66
13.24
12.44
11.49
9.88
7.56
4.84
2.11
-0.35
-2.52
-4.57
-6.73
-9.20
-12.13
-15.60
-19.61
-23.99
-28.35
-32.08
-34.47
-34.96
-33.29
-29.64
-24.49
-18.53
-12.40
-6.59
-1.38
3.10
6.78
9.59
11.49
12.54
12.97
13.17
13.55
14.37
15.53
16.62
17.06
16.37
14.38
11.33
7.65
3.82
0.07
-3.55
-7.10
-10.59
-13.89
-16.78
-19.10
-20.88
-22.42
-24.20
-26.71
-30.09
-34.00
-37.62
-39.86
-39.82
-37.12
-32.05
-25.47
-18.38
-11.59
-5.47
-0.03
4.89
9.35
13.26
16.44
18.71
20.00
20.34
19.89
18.91
17.67
16.45
15.42
14.65
14.03
13.38
12.43
10.96
8.88
6.30
3.51
0.83
-1.55
-3.68
-5.82
-8.35
-11.59
-15.65
-20.43
-25.68
-30.98
-35.86
-39.71
-41.81
-41.49
-38.34
-32.46
-24.50
-15.53
-6.65
1.32
8.05
13.58
18.04
21.49
23.80
24.83
24.62
23.45
21.87
20.43
19.51
19.11
18.94
18.57
17.61
15.92
13.57
10.76
7.66
4.36
0.86
-2.88
-6.78
-10.76
-14.70
-18.63
-22.69
-27.17
-32.17
-37.49
-42.49
-46.22
-47.75
-46.52
-42.51
-36.26
-28.65
-20.63
-12.95
-6.04
-0.02
5.10
9.31
12.50
14.53
15.34
15.03
13.91
12.41
10.86
9.47
8.28
7.22
6.15
4.97
3.59
1.95
0.09
-1.86
-3.68
-5.15
-6.23
-7.18
-8.44
-10.47
-13.52
-17.56
-22.38
-27.76
-33.47
-39.21
-44.37
-48.04
-49.20
-47.22
-42.11
-34.67
-26.15
-17.77
-10.34
-4.11
1.02
5.21
8.44
10.54
11.32
10.74
9.08
6.76
4.31
2.17
0.63
-0.23
-0.50
-0.43
-0.38
-0.75
-1.89
-3.93
-6.71
-9.91
-13.04
-15.72
-17.82
-19.50
-21.17
-23.33
-26.40
-30.66
-36.10
-42.32
-48.52
-53.54
-56.20
-55.57
-51.36
-44.04
-34.65
-24.54
-14.91
-6.47
0.53
6.23
10.93
14.79
17.80
19.83
20.82
20.89
20.42
19.96
19.97
20.66
21.88
23.27
24.37
24.93
24.90
24.32
23.14
21.12
17.99
13.67
8.48
3.02
-2.03
-6.35
-10.13
-13.97
-18.61
-24.37
-30.90
-37.17
-41.75
-43.32
-41.13
-35.25
-26.51
-16.13
-5.35
4.91
14.14
22.16
28.92
34.27
38.03
40.12
40.70
40.26
39.44
38.74
38.40
38.33
38.18
37.67
36.63
35.03
32.91
30.34
27.33
23.89
20.14
16.28
12.59
9.22
6.12
2.90
-1.01
-6.19
-13.02
-21.41
-30.72
-39.84
-47.36
-51.94
-52.66
-49.24
-42.17
-32.57
-21.86
-11.40
-2.15
5.55
11.86
17.21
21.96
26.17
29.61
31.83
32.53
31.76
30.02
28.03
26.52
25.88
26.05
26.55
26.79
26.30
24.92
22.77
20.12
17.22
14.19
10.98
7.53
3.78
-0.25
-4.58
-9.30
-14.62
-20.77
-27.78
-35.17
-41.89
-46.51
-47.68
-44.65
-37.63
-27.70
-16.43
-5.33
4.56
12.81
19.48
24.83
29.10
32.36
34.60
35.77
35.98
35.46
34.60
33.79
33.36
33.39
33.62
33.56
32.66
30.59
27.29
23.03
18.27
13.52
9.17
5.49
2.53
0.14
-2.02
-4.44
-7.66
-12.14
-17.99
-24.77
-31.42
-36.38
-38.01
-35.14
-27.55
-16.09
-2.46
11.37
23.79
34.00
41.97
48.08
52.71
55.98
57.68
57.52
55.38
51.50
46.51
41.24
36.50
32.84
30.42
28.99
28.03
26.92
25.14
22.37
18.51
13.75
8.42
2.97
-2.10
-6.37
-9.60
-11.82
-13.41
-15.07
-17.74
-22.26
-29.01
-37.53
-46.43
-53.68
-57.35
-56.28
-50.58
-41.58
-31.23
-21.44
-13.40
-7.53
-3.57
-1.01
0.57
1.52
2.02
2.29
2.58
3.08
3.94
5.15
6.60
8.16
9.70
11.11
12.25
12.97
13.05
12.34
10.79
8.48
5.68
2.74
-0.00
-2.25
-3.90
-5.12
-6.31
-8.19
-11.49
-16.82
-24.27
-33.16
-42.09
-49.17
-52.64
-51.36
-45.30
-35.49
-23.66
-11.69
-1.02
7.65
14.31
19.33
23.11
25.80
27.25
27.25
25.78
23.16
20.01
16.97
14.49
12.64
11.22
9.96
8.79
7.81
7.23
7.04
6.93
6.30
4.62
1.62
-2.46
-7.10
-11.86
-16.68
-21.89
-28.09
-35.66
-44.45
-53.60
-61.76
-67.44
-69.52
-67.52
-61.74
-53.08
-42.73
-31.90
-21.55
-12.30
-4.48
1.81
6.58
9.99
12.23
13.60
14.43
15.00
15.46
15.80
15.91
15.63
14.95
14.04
13.15
12.50
12.14
11.86
11.25
9.93
7.68
4.58
0.89
-3.08
-7.09
-11.14
-15.44
-20.29
-25.83
-31.83
-37.58
-41.95
-43.75
-42.14
-37.01
-29.05
-19.48
-9.58
-0.26
8.14
15.72
22.65
28.93
34.25
38.15
40.29
40.67
39.60
37.67
35.52
33.65
32.33
31.49
30.87
30.11
28.83
26.80
23.96
20.48
16.61
12.73
9.23
6.39
4.36
3.01
2.03
0.91
-0.87
-3.74
-7.82
-12.87
-18.29
-23.16
-26.43
-27.16
-24.76
-19.19
-11.06
-1.46
8.30
17.05
24.09
29.27
32.90
35.42
37.18
38.32
38.77
38.46
37.44
36.00
34.48
33.12
31.94
30.75
29.30
27.44
25.21
22.76
20.21
17.55
14.65
11.41
7.78
3.86
-0.13
-3.98
-7.60
-11.00
-14.33
-17.85
-21.94
-26.85
-32.60
-38.76
-44.42
-48.36
-49.49
-47.21
-41.64
-33.52
-23.97
-14.04
-4.44
4.54
12.81
20.26
26.58
31.39
34.41
35.79
36.05
36.00
36.37
37.55
39.50
41.88
44.19
45.95
46.68
45.96
43.45
39.07
33.11
26.21
19.10
12.36
6.19
0.49
-4.92
-10.11
-15.05
-19.74
-24.42
-29.59
-35.82
-43.26
-51.44
-59.20
-65.01
-67.52
-66.05
-60.84
-52.95
-43.87
-35.04
-27.56
-21.96
-18.22
-15.93
-14.48
-13.25
-11.81
-10.04
-8.02
-5.95
-3.89
-1.70
0.89
4.04
7.54
10.85
13.30
14.53
14.63
14.11
13.48
12.82
11.69
9.48
5.78
0.80
-4.62
-9.43
-12.83
-14.61
-15.11
-15.04
-15.15
-16.01
-17.86
-20.52
-23.38
-25.51
-25.77
-23.25
-17.57
-9.07
1.26
12.19
22.64
31.97
39.99
46.78
52.34
56.57
59.21
60.14
59.50
57.77
55.66
53.79
52.53
51.87
51.54
51.20
50.62
49.72
48.52
47.02
45.13
42.64
39.30
34.95
29.67
23.81
17.92
12.53
7.95
4.09
0.49
-3.46
-8.20
-13.88
-20.29
-26.99
-33.42
-38.99
-43.15
-45.36
-45.26
-42.73
-38.05
-31.78
-24.72
-17.58
-10.92
-5.07
-0.22
3.51
6.02
7.31
7.50
6.88
5.82
4.70
3.72
2.90
2.10
1.09
-0.28
-2.06
-4.19
-6.54
-9.03
-11.59
-14.20
-16.80
-19.36
-21.85
-24.29
-26.70
-29.16
-31.73
-34.51
-37.60
-41.14
-45.19
-49.55
-53.73
-56.89
-58.04
-56.41
-51.62
-43.98
-34.35
-23.91
-13.76
-4.62
3.36
10.45
17.05
23.36
29.14
33.86
36.96
38.25
38.06
37.11
36.14
35.54
35.24
34.81
33.86
32.28
30.40
28.70
27.46
26.52
25.28
23.02
19.31
14.31
8.73
3.42
-0.99
-4.43
-7.37
-10.55
-14.58
-19.75
-25.86
-32.32
-38.32
-42.93
-45.35
-45.05
-41.90
-36.31
-29.00
-20.86
-12.71
-5.07
1.79
7.79
12.88
16.99
20.01
21.84
22.44
21.92
20.51
18.60
16.63
14.89
13.55
12.51
11.48
10.14
8.23
5.69
2.73
-0.30
-3.04
-5.36
-7.40
-9.47
-11.87
-14.59
-17.29
-19.55
-21.16
-22.46
-24.21
-27.18
-31.54
-36.52
-40.57
-41.93
-39.39
-32.87
-23.33
-12.42
-1.80
7.41
14.69
19.96
23.42
25.53
27.24
30.21
36.48
47.78
64.47
84.88
105.47
121.93
130.79
130.67
122.66
109.52
94.45
79.87
66.96
55.92
46.58
38.76
32.33
27.07
22.45
17.66
11.83
4.32
-5.01
-15.76
-26.97
-37.36
-45.60
-50.83
-52.92
-52.61
-51.15
-49.76
-49.06
-49.02
-49.24
-49.44
-49.78
-50.66
-52.39
-54.79
-57.19
-58.80
-59.25
-58.70
-57.73
-56.85
-56.20
-55.47
-54.25
-52.35
-50.06
-47.95
-46.63
-46.47
-47.41
-49.11
-51.13
-53.02
-54.42
-55.20
-55.34
-55.16
-55.22
-56.18
-58.52
-62.07
-65.73
-67.52
-65.14
-56.60
-40.91
-18.52
8.74
37.93
65.54
88.08
102.81
108.34
104.93
94.40
79.58
63.50
48.69
36.83
28.79
24.81
24.66
27.62
32.29
36.80
39.23
38.23
33.47
25.73
16.49
7.30
-0.67
-6.96
-11.71
-15.45
-18.86
-22.51
-26.82
-32.06
-38.36
-45.80
-54.36
-63.77
-73.34
-81.88
-87.87
-89.86
-87.00
-79.45
-68.44
-55.87
-43.58
-32.78
-23.79
-16.17
-9.30
-2.85
2.96
7.54
10.34
11.24
10.70
9.53
8.54
8.17
8.37
8.73
8.73
7.97
6.29
3.81
0.81
-2.30
-5.16
-7.53
-9.43
-11.18
-13.32
-16.35
-20.55
-25.84
-31.89
-38.17
-44.10
-49.00
-52.08
-52.54
-49.73
-43.55
-34.58
-23.98
-13.17
-3.31
4.99
11.76
17.37
22.22
26.52
30.24
33.15
35.06
35.86
35.58
34.47
32.90
31.25
29.82
28.66
27.61
26.51
25.25
23.92
22.62
21.27
19.50
16.69
12.41
6.69
0.14
-6.34
-11.92
-16.10
-18.71
-19.63
-18.63
-15.39
-9.90
-2.63
5.32
12.67
18.51
22.73
26.06
29.62
34.33
40.40
47.23
53.70
58.64
61.31
61.65
60.18
57.69
54.87
52.08
49.23
46.03
42.29
38.10
33.87
30.08
27.03
24.62
22.40
19.87
16.71
12.98
9.03
5.14
1.28
-3.12
-8.89
-16.61
-26.06
-36.01
-44.50
-49.64
-50.41
-47.10
-41.03
-33.92
-27.15
-21.50
-17.25
-14.53
-13.48
-14.09
-15.81
-17.43
-17.33
-14.29
-8.08
0.27
8.88
15.93
20.31
21.94
21.49
19.88
17.79
15.50
13.08
10.64
8.40
6.66
5.56
4.94
4.32
3.01
0.22
-4.71
-12.19
-22.12
-33.70
-45.39
-55.21
-61.20
-62.16
-58.03
-49.96
-39.72
-29.07
-19.08
-10.01
-1.72
5.92
12.69
18.12
21.90
24.16
25.57
27.00
29.22
32.47
36.57
41.05
45.46
49.40
52.51
54.34
54.34
52.06
47.32
40.43
32.09
23.15
14.35
6.02
-1.97
-10.08
-18.86
-28.68
-39.41
-50.35
-60.19
-67.36
-70.34
-68.27
-61.19
-50.12
-36.74
-22.89
-10.05
0.95
9.89
16.99
22.53
26.68
29.48
30.98
31.35
30.99
30.42
30.11
30.31
30.91
31.49
31.52
30.60
28.67
26.16
23.80
22.42
22.57
24.33
27.25
30.56
33.39
35.07
35.08
33.09
28.85
22.40
14.20
5.37
-2.45
-7.64
-9.10
-6.82
-1.78
4.42
10.33
15.09
18.58
21.10
22.93
24.02
24.05
22.77
20.25
17.04
13.97
11.78
10.84
10.98
11.65
12.25
12.31
11.68
10.40
8.62
6.43
3.82
0.80
-2.55
-6.15
-9.87
-13.73
-17.95
-22.86
-28.74
-35.49
-42.49
-48.61
-52.44
-52.68
-48.77
-40.98
-30.52
-19.04
-8.11
1.26
8.80
14.81
19.83
24.16
27.73
30.18
31.15
30.59
28.94
26.98
25.58
25.30
26.19
27.80
29.38
30.23
29.88
28.34
25.94
23.25
20.84
19.09
18.16
17.89
17.81
17.17
14.94
9.99
1.41
-10.96
-26.22
-42.36
-56.71
-66.82
-71.19
-69.84
-64.06
-55.81
-46.93
-38.64
-31.41
-25.41
-20.70
-17.43
-15.67
-15.21
-15.48
-15.70
-15.17
-13.55
-10.97
-8.00
-5.31
-3.52
-3.02
-3.88
-5.96
-8.97
-12.58
-16.43
-20.23
-23.78
-26.97
-29.79
-32.41
-35.21
-38.66
-43.15
-48.65
-54.61
-59.87
-63.07
-63.02
-59.15
-51.62
-41.34
-29.56
-17.55
-6.30
3.62
12.09
19.27
25.44
30.84
35.59
39.78
43.49
46.90
50.24
53.71
57.32
60.90
64.10
66.50
67.71
67.44
65.53
62.04
57.32
52.01
46.84
42.41
38.85
35.77
32.43
28.07
22.34
15.40
7.97
1.10
-4.13
-6.86
-6.59
-3.36
2.23
9.22
16.42
22.78
27.72
31.19
33.59
35.40
36.89
37.91
37.96
36.61
33.73
29.77
25.54
21.94
19.55
18.40
18.08
17.89
17.24
15.81
13.61
10.85
7.74
4.43
1.00
-2.49
-5.99
-9.54
-13.35
-17.76
-23.01
-28.97
-34.84
-39.30
-40.97
-38.88
-33.09
-24.62
-15.06
-5.89
2.02
8.64
14.39
19.64
24.42
28.30
30.81
31.73
31.40
30.52
29.88
29.95
30.77
31.94
32.95
33.42
33.30
32.74
31.89
30.68
28.78
25.82
21.60
16.27
10.23
3.87
-2.75
-9.92
-18.02
-26.99
-36.01
-43.45
-47.54
-47.23
-42.76
-35.66
-28.04
-21.70
-17.45
-15.10
-13.89
-13.16
-12.72
-12.81
-13.77
-15.67
-18.26
-21.02
-23.41
-25.03
-25.62
-25.15
-23.75
-21.79
-19.81
-18.39
-17.98
-18.79
-20.73
-23.63
-27.23
-31.42
-36.18
-41.50
-47.45
-53.95
-60.81
-67.61
-73.63
-77.96
-79.67
-78.18
-73.50
-66.30
-57.60
-48.48
-39.75
-31.81
-24.87
-19.11
-14.81
-12.24
-11.40
-11.80
-12.41
-12.01
-9.58
-4.79
1.86
9.19
15.78
20.52
22.98
23.49
22.88
21.94
21.07
20.17
18.85
16.84
14.16
11.02
7.45
3.16
-2.31
-9.20
-17.06
-24.74
-30.72
-33.94
-34.22
-32.33
-29.51
-26.71
-24.17
-21.37
-17.43
-11.78
-4.41
4.08
12.76
20.71
27.32
32.25
35.43
36.94
37.05
36.07
34.38
32.21
29.51
25.96
21.05
14.45
6.15
-3.48
-13.84
-24.44
-35.08
-45.78
-56.51
-66.87
-76.02
-82.74
-85.87
-84.69
-79.23
-70.28
-59.11
-47.11
-35.36
-24.44
-14.44
-5.26
3.14
10.49
16.37
20.41
22.59
23.31
23.27
23.18
23.44
24.09
24.83
25.25
25.06
24.19
22.75
20.98
19.11
17.24
15.31
13.08
10.17
6.27
1.21
-4.97
-12.03
-19.53
-26.82
-33.08
-37.31
-38.56
-36.23
-30.42
-21.93
-12.08
-2.21
6.78
14.62
21.49
27.59
32.88
36.91
39.15
39.39
37.91
35.51
33.12
31.43
30.64
30.40
30.04
28.91
26.65
23.24
19.01
14.49
10.16
6.28
2.82
-0.60
-4.53
-9.52
-15.91
-23.70
-32.39
-41.07
-48.45
-53.16
-54.05
-50.58
-42.92
-32.11
-19.66
-7.16
4.16
13.68
21.31
27.30
31.84
35.05
36.89
37.42
36.87
35.70
34.44
33.47
32.90
32.49
31.83
30.46
28.13
24.88
21.03
17.03
13.25
9.81
6.55
3.05
-1.15
-6.42
-12.98
-20.75
-29.38
-38.14
-45.94
-51.44
-53.33
-50.74
-43.56
-32.64
-19.57
-6.23
5.78
15.52
22.84
28.18
32.16
35.22
37.42
38.58
38.55
37.43
35.64
33.83
32.55
32.01
31.94
31.77
30.86
28.83
25.69
21.81
17.67
13.63
9.77
5.93
1.83
-2.81
-8.12
-14.16
-20.85
-27.99
-35.05
-41.13
-45.03
-45.56
-42.06
-34.67
-24.40
-12.84
-1.52
8.47
16.74
23.39
28.77
33.07
36.23
38.03
38.32
37.18
35.05
32.54
30.31
28.81
28.17
28.19
28.37
28.20
27.30
25.49
22.88
19.70
16.20
12.51
8.63
4.48
0.00
-4.85
-10.10
-15.83
-22.09
-28.70
-35.03
-39.94
-42.04
-40.24
-34.26
-24.96
-13.93
-2.96
6.74
14.77
21.46
27.32
32.54
36.91
39.94
41.31
41.07
39.68
37.81
36.00
34.59
33.55
32.67
31.62
30.16
28.09
25.39
22.16
18.57
14.78
10.86
6.77
2.39
-2.36
-7.55
-13.22
-19.39
-26.02
-32.77
-38.92
-43.35
-44.84
-42.51
-36.27
-26.98
-16.20
-5.60
3.59
10.97
16.78
21.54
25.63
29.03
31.46
32.66
32.68
31.90
30.93
30.28
30.11
30.18
29.97
28.94
26.80
23.61
19.76
15.81
12.15
8.93
5.93
2.77
-0.94
-5.37
-10.51
-16.19
-22.29
-28.64
-34.91
-40.42
-44.17
-45.08
-42.45
-36.38
-27.84
-18.33
-9.35
-1.81
4.12
8.81
12.68
15.95
18.44
19.87
20.12
19.36
18.08
16.80
15.86
15.31
14.93
14.40
13.43
11.85
9.61
6.82
3.68
0.44
-2.66
-5.45
-7.93
-10.31
-12.98
-16.38
-20.83
-26.34
-32.50
-38.43
-42.98
-44.99
-43.69
-38.95
-31.38
-22.18
-12.74
-4.25
2.59
7.64
11.19
13.66
15.38
16.45
16.84
16.56
15.77
14.81
14.08
13.81
13.93
14.09
13.78
12.63
10.59
7.96
5.23
2.85
1.02
-0.38
-1.66
-3.11
-4.94
-7.26
-10.23
-14.03
-18.76
-24.15
-29.37
-33.15
-34.21
-31.82
-26.17
-18.31
-9.69
-1.48
5.75
12.08
17.78
22.95
27.28
30.23
31.35
30.61
28.44
25.59
22.81
20.64
19.19
18.29
17.52
16.41
14.61
12.05
8.86
5.34
1.79
-1.69
-5.16
-8.79
-12.66
-16.73
-20.93
-25.27
-29.95
-35.13
-40.73
-46.10
-50.12
-51.50
-49.37
-43.70
-35.36
-25.79
-16.45
-8.31
-1.71
3.52
7.70
11.06
13.56
15.00
15.25
14.39
12.81
11.16
10.08
9.95
10.73
11.91
12.79
12.77
11.64
9.57
6.98
4.29
1.71
-0.78
-3.35
-6.17
-9.39
-13.14
-17.56
-22.73
-28.46
-34.10
-38.57
-40.58
-39.17
-34.15
-26.29
-17.04
-7.97
-0.24
5.82
10.50
14.35
17.66
20.28
21.75
21.65
19.98
17.25
14.30
11.98
10.70
10.40
10.53
10.41
9.51
7.65
5.03
2.08
-0.75
-3.23
-5.40
-7.56
-10.09
-13.28
-17.25
-21.93
-27.14
-32.60
-37.89
-42.36
-45.16
-45.42
-42.58
-36.72
-28.61
-19.57
-10.90
-3.46
2.50
7.24
11.12
14.32
16.72
18.08
18.30
17.58
16.35
15.12
14.19
13.65
13.37
13.05
12.43
11.31
9.66
7.58
5.27
2.94
0.69
-1.54
-3.97
-6.88
-10.44
-14.71
-19.65
-25.13
-30.98
-36.82
-41.98
-45.50
-46.38
-43.97
-38.37
-30.46
-21.64
-13.32
-6.33
-0.75
3.89
8.20
12.38
16.14
18.87
20.13
19.92
18.75
17.41
16.51
16.29
16.54
16.82
16.73
16.06
14.79
13.07
11.03
8.80
6.45
3.97
1.31
-1.66
-5.14
-9.31
-14.28
-20.07
-26.46
-32.96
-38.77
-42.84
-44.18
-42.18
-36.88
-29.02
-19.78
-10.37
-1.62
6.09
12.74
18.37
22.91
26.16
27.94
28.27
27.44
25.97
24.39
23.08
22.15
21.48
20.82
19.89
18.48
16.55
14.16
11.43
8.49
5.40
2.16
-1.27
-5.02
-9.24
-14.14
-19.88
-26.47
-33.58
-40.48
-46.03
-48.97
-48.37
-43.88
-36.05
-26.10
-15.57
-5.80
2.40
8.92
14.14
18.47
22.10
24.87
26.39
26.43
25.12
23.03
20.96
19.53
18.91
18.80
18.62
17.85
16.32
14.23
11.94
9.68
7.47
5.09
2.25
-1.26
-5.53
-10.63
-16.64
-23.66
-31.53
-39.57
-46.55
-50.85
-51.09
-46.57
-37.74
-26.08
-13.56
-1.98
7.64
15.15
21.07
26.01
30.35
33.98
36.57
37.83
37.81
36.95
35.96
35.47
35.80
36.79
37.90
38.44
37.81
35.79
32.54
28.56
24.53
21.10
18.73
17.64
17.75
18.70
19.79
20.01
18.28
13.79
6.55
-2.29
-10.65
-16.32
-17.99
-16.03
-12.36
-9.55
-9.49
-12.47
-17.19
-21.69
-24.59
-25.81
-26.37
-27.54
-29.88
-32.84
-35.05
-35.16
-32.61
-27.87
-22.22
-17.16
-13.69
-12.01
-11.50
-11.17
-10.22
-8.51
-6.63
-5.60
-6.28
-8.95
-13.15
-18.11
-23.24
-28.41
-33.84
-39.53
-44.88
-48.62
-49.41
-46.53
-40.34
-32.15
-23.48
-15.33
-7.74
-0.10
8.22
17.16
25.82
32.83
37.11
38.38
37.35
35.24
33.28
32.13
31.77
31.67
31.12
29.64
27.08
23.65
19.74
15.70
11.71
7.74
3.60
-0.94
-6.12
-12.12
-19.07
-26.97
-35.52
-44.06
-51.46
-56.34
-57.38
-53.79
-45.70
-34.10
-20.67
-7.18
5.02
15.27
23.60
30.36
35.86
40.15
43.01
44.27
44.07
42.96
41.75
41.14
41.37
42.15
42.75
42.41
40.64
37.43
33.12
28.17
22.91
17.42
11.57
5.22
-1.76
-9.45
-17.90
-27.10
-36.74
-45.99
-53.47
-57.57
-56.98
-51.36
-41.54
-29.18
-16.22
-4.11
6.48
15.60
23.46
30.05
34.96
37.64
37.81
35.75
32.41
29.04
26.71
25.87
26.17
26.63
26.15
23.94
20.00
14.94
9.70
5.02
1.15
-2.25
-5.84
-10.25
-15.88
-22.81
-30.85
-39.52
-48.00
-55.01
-59.07
-58.79
-53.52
-43.57
-30.29
-15.54
-1.11
11.88
23.06
32.58
40.68
47.34
52.23
54.94
55.33
53.75
51.02
48.17
46.03
44.84
44.22
43.30
41.17
37.36
32.06
26.03
20.16
14.96
10.37
5.74
0.28
-6.59
-15.01
-24.77
-35.42
-46.36
-56.74
-65.29
-70.51
-71.05
-66.27
-56.60
-43.52
-28.98
-14.72
-1.81
9.43
19.08
27.15
33.36
37.24
38.47
37.26
34.40
31.03
28.23
26.53
25.72
24.96
23.21
19.73
14.51
8.19
1.80
-3.73
-7.96
-11.12
-13.88
-17.06
-21.36
-27.14
-34.57
-43.51
-53.47
-63.47
-71.98
-77.15
-77.37
-71.81
-60.81
-45.87
-29.12
-12.67
2.01
14.26
24.16
32.04
38.19
42.69
45.50
46.74
46.80
46.30
45.92
46.12
46.88
47.65
47.65
46.23
43.19
38.92
34.20
29.74
25.87
22.42
18.84
14.58
9.29
2.86
-4.67
-13.09
-21.94
-30.20
-36.32
-38.47
-35.31
-26.57
-13.45
1.79
16.63
29.17
38.60
45.14
49.45
52.08
53.16
52.56
50.19
46.43
42.08
38.15
35.42
34.06
33.56
32.94
31.17
27.68
22.58
16.60
10.74
5.76
1.85
-1.41
-4.83
-9.25
-15.16
-22.63
-31.31
-40.48
-49.13
-55.99
-59.74
-59.40
-54.60
-45.88
-34.55
-22.26
-10.52
-0.22
8.35
15.34
20.98
25.32
28.23
29.59
29.48
28.26
26.52
24.81
23.49
22.51
21.48
19.91
17.49
14.30
10.80
7.68
5.45
4.22
3.58
2.71
0.79
-2.74
-7.97
-14.55
-21.78
-28.69
-34.18
-37.11
-36.49
-31.76
-23.04
-11.14
2.61
16.71
29.90
41.39
50.79
57.98
62.88
65.36
65.42
63.38
60.01
56.33
53.36
51.60
50.89
50.39
48.94
45.55
39.82
32.02
22.98
13.61
4.56
-3.96
-12.17
-20.45
-29.16
-38.57
-48.88
-60.19
-72.32
-84.61
-95.72
-103.78
-106.91
-103.99
-95.13
-81.84
-66.36
-50.96
-37.15
-25.58
-16.24
-8.98
-3.72
-0.42
1.18
1.74
2.03
2.62
3.53
4.31
4.43
3.69
2.39
1.08
0.08
-0.86
-2.40
-5.29
-9.86
-15.81
-22.44
-28.99
-35.07
-40.76
-46.41
-52.24
-57.91
-62.50
-64.69
-63.38
-58.23
-49.99
-40.24
-30.80
-22.91
-16.83
-11.96
-7.30
-2.30
2.91
7.59
10.97
12.83
13.72
14.72
16.94
20.96
26.59
33.06
39.42
45.01
49.69
53.80
57.88
62.18
66.50
70.21
72.58
73.07
71.54
68.23
63.60
58.18
52.61
47.61
43.97
42.33
42.98
45.57
49.27
52.95
55.54
56.42
55.41
52.72
48.78
44.03
38.86
33.55
28.22
22.89
17.53
12.06
6.50
0.90
-4.61
-9.86
-14.69
-18.88
-22.32
-25.03
-27.22
-29.19
-31.08
-32.82
-34.10
-34.63
-34.27
-33.15
-31.39
-28.98
-25.68
-21.34
-16.29
-11.53
-8.41
-7.98
-10.32
-14.43
-18.93
-23.08
-27.48
-33.81
-43.68
-57.32
-73.04
-87.79
-98.61
-104.12
-105.28
-104.62
-104.82
-107.17
-111.11
-114.84
-116.68
-116.25
-114.68
-114.01
-116.13
-122.03
-131.53
-143.48
-156.12
-167.42
-175.31
-178.02
-174.48
-164.70
-149.82
-131.70
-112.24
-92.76
-73.93
-56.07
-39.58
-25.19
-13.62
-5.20
0.49
4.53
8.13
12.10
16.48
20.61
23.45
24.06
22.04
17.68
11.80
5.47
-0.45
-5.66
-10.44
-15.53
-21.75
-29.61
-39.09
-49.61
-60.11
-69.26
-75.67
-78.09
-75.76
-68.57
-57.23
-43.10
-27.79
-12.69
1.37
14.18
25.84
36.33
45.40
52.56
57.40
59.95
60.67
60.27
59.35
58.17
56.58
54.31
51.27
47.71
44.08
40.75
37.63
34.14
29.37
22.50
13.23
1.92
-10.44
-22.50
-32.88
-40.27
-43.71
-42.61
-36.95
-27.32
-14.85
-0.92
13.15
26.34
37.93
47.35
54.03
57.43
57.42
54.51
50.13
46.35
45.18
47.86
54.23
62.67
70.52
74.99
74.16
67.66
56.82
44.10
32.22
23.13
17.52
14.83
13.81
13.35
13.05
13.44
15.55
20.25
27.60
36.70
46.01
54.03
59.95
64.05
67.41
71.19
75.80
80.56
84.07
85.00
82.96
78.74
73.91
69.88
67.08
64.70
61.27
55.51
47.02
36.45
24.99
13.56
2.34
-9.16
-21.64
-35.47
-50.43
-65.71
-80.08
-92.07
-100.18
-103.14
-100.23
-91.66
-78.63
-63.12
-47.22
-32.55
-19.89
-9.23
-0.20
7.49
13.83
18.54
21.27
21.87
20.36
16.91
11.74
5.14
-2.58
-11.00
-19.53
-27.46
-34.07
-38.88
-41.81
-43.31
-44.38
-46.33
-50.36
-57.12
-66.28
-76.32
-84.73
-88.61
-85.53
-74.39
-55.83
-31.94
-5.62
20.48
44.56
65.88
84.36
100.06
112.86
122.47
128.75
132.09
133.38
133.72
133.96
134.27
134.13
132.70
129.31
123.79
116.45
107.82
98.21
87.52
75.38
61.47
45.91
29.44
13.32
-1.08
-12.59
-20.49
-24.63
-25.25
-22.92
-18.27
-11.89
-4.14
4.88
15.23
27.06
40.30
54.58
69.27
83.57
96.68
107.86
116.58
122.52
125.72
126.45
125.14
122.09
117.28
110.45
101.37
90.24
77.76
64.90
52.42
40.28
27.68
13.60
-2.41
-19.62
-36.16
-49.76
-58.77
-62.86
-63.06
-61.18
-58.92
-57.22
-56.12
-55.08
-53.57
-51.37
-48.53
-45.27
-41.64
-37.57
-32.98
-28.02
-23.11
-18.83
-15.76
-14.21
-14.14
-15.22
-16.95
-18.88
-20.72
-22.43
-24.24
-26.60
-29.98
-34.64
-40.39
-46.47
-51.66
-54.64
-54.41
-50.64
-43.70
-34.48
-24.03
-13.28
-2.98
6.29
13.97
19.48
22.21
21.75
18.03
11.55
3.51
-4.28
-9.82
-11.42
-8.41
-1.31
8.29
18.38
27.19
33.72
37.74
39.37
38.66
35.42
29.43
20.98
11.14
1.74
-5.17
-8.09
-6.63
-1.57
5.51
12.87
19.34
24.49
28.52
31.89
34.93
37.73
40.32
42.81
45.56
48.98
53.31
58.36
63.52
67.98
71.12
72.79
73.46
73.89
74.83
76.60
78.98
81.26
82.53
81.90
78.79
72.97
64.69
54.62
43.84
33.60
25.04
18.86
15.17
13.50
13.08
13.17
13.16
12.69
11.58
9.82
7.65
5.53
3.96
3.32
3.62
4.45
5.22
5.48
5.18
4.74
4.79
5.89
8.28
11.74
15.64
19.07
20.94
20.21
16.19
8.83
-0.99
-11.58
-20.95
-27.45
-30.46
-30.62
-29.47
-28.78
-29.78
-32.60
-36.20
-38.67
-37.92
-32.71
-23.33
-11.80
-1.14
5.87
8.10
6.59
4.11
3.69
7.23
14.79
24.86
35.49
45.26
53.59
60.23
64.48
64.96
60.16
49.55
34.32
17.05
0.72
-12.70
-22.89
-30.85
-37.88
-44.75
-51.42
-57.54
-63.21
-69.10
-76.02
-83.93
-91.48
-96.25
-95.94
-89.56
-78.02
-63.64
-49.01
-35.74
-23.87
-12.21
0.70
15.39
30.80
44.29
52.38
51.99
41.65
22.34
-2.69
-28.91
-51.93
-68.98
-79.46
-84.72
-86.93
-87.89
-88.32
-87.95
-86.24
-83.23
-79.92
-77.85
-78.25
-81.23
-85.61
-89.50
-91.33
-90.57
-87.97
-84.98
-82.91
-82.28
-82.58
-82.78
-81.91
-79.64
-76.34
-72.92
-70.32
-69.05
-69.05
-69.60
-69.61
-68.04
-64.18
-57.97
-49.98
-41.19
-32.64
-25.13
-18.99
-14.17
-10.45
-7.63
-5.65
-4.57
-4.37
-4.90
-5.88
-7.07
-8.32
-9.62
-11.05
-12.64
-14.25
-15.65
-16.51
-16.55
-15.65
-13.95
-11.88
-10.08
-9.13
-9.19
-9.75
-9.68
-7.59
-2.57
5.30
14.76
23.87
30.78
34.45
34.91
33.02
29.87
26.21
22.23
17.76
12.61
6.79
0.74
-4.83
-9.11
-11.44
-11.60
-9.84
-6.94
-3.92
-1.79
-1.22
-2.35
-4.85
-8.15
-11.64
-14.76
-17.02
-17.94
-17.16
-14.48
-10.16
-4.86
0.54
5.22
8.74
11.03
12.32
12.89
12.93
12.55
11.87
11.14
10.59
10.33
10.22
9.86
8.81
6.73
3.53
-0.63
-5.43
-10.50
-15.52
-20.25
-24.45
-27.90
-30.45
-32.03
-32.61
-32.21
-30.73
-28.06
-24.06
-18.85
-12.87
-6.90
-1.81
1.81
3.94
5.14
6.27
7.90
9.89
11.35
11.01
7.97
2.20
-5.20
-12.39
-17.53
-19.53
-18.36
-15.00
-10.85
-7.12
-4.57
-3.56
-4.43
-7.54
-13.11
-20.70
-28.85
-35.26
-37.57
-34.40
-25.97
-14.03
-1.00
11.16
21.55
30.34
38.03
44.72
49.78
52.10
50.78
45.67
37.48
27.57
17.34
7.92
-0.07
-6.47
-11.40
-15.07
-17.75
-19.61
-20.71
-21.10
-20.87
-20.31
-19.86
-19.94
-20.71
-21.89
-22.87
-22.99
-21.85
-19.38
-15.70
-10.85
-4.66
3.14
12.55
22.93
33.03
41.30
46.63
48.92
49.16
48.97
49.61
51.28
53.01
53.28
51.07
46.60
41.32
37.10
35.08
34.99
35.37
34.47
31.40
26.65
21.63
17.75
15.44
14.12
12.84
11.23
10.00
10.56
14.00
20.13
27.37
33.53
37.18
38.54
39.38
42.02
48.00
57.26
68.28
78.95
87.48
92.88
95.12
94.83
93.23
92.05
93.30
98.54
108.05
120.19
131.55
138.14
136.88
126.81
109.31
87.11
63.06
39.01
15.68
-6.71
-27.56
-45.54
-58.94
-66.55
-68.34
-65.64
-60.42
-54.44
-48.62
-43.08
-37.81
-33.07
-29.60
-28.22
-29.27
-32.37
-36.68
-41.41
-46.28
-51.47
-57.21
-63.43
-69.60
-74.97
-78.96
-81.31
-82.09
-81.37
-78.94
-74.35
-67.18
-57.37
-45.41
-32.30
-19.29
-7.63
1.77
8.37
12.12
13.41
12.95
11.69
10.49
10.04
10.64
12.18
14.22
16.12
17.23
17.02
15.23
11.85
7.05
1.08
-5.79
-13.26
-20.94
-28.27
-34.53
-39.04
-41.26
-41.06
-38.69
-34.72
-29.68
-23.94
-17.53
-10.23
-1.70
8.28
19.72
32.33
45.60
58.89
71.43
82.44
91.06
96.50
98.20
96.11
90.80
83.24
74.46
65.14
55.42
45.09
33.92
21.96
9.53
-2.94
-15.06
-26.47
-36.79
-45.52
-52.19
-56.68
-59.44
-61.30
-63.08
-65.04
-66.74
-67.46
-66.82
-65.30
-64.04
-64.23
-66.44
-70.28
-74.50
-77.57
-78.20
-75.58
-69.29
-59.20
-45.18
-27.19
-5.35
19.91
47.80
77.13
106.51
134.51
159.81
181.33
198.01
208.61
211.67
205.84
190.53
166.66
136.93
105.30
76.03
52.35
35.59
25.06
18.59
13.67
8.44
2.15
-4.88
-11.80
-17.78
-22.45
-25.91
-28.48
-30.41
-31.54
-31.52
-29.94
-26.67
-22.13
-17.27
-13.41
-11.81
-13.24
-17.51
-23.41
-29.13
-32.86
-33.56
-31.23
-26.79
-21.55
-16.54
-12.15
-8.25
-4.51
-0.88
2.35
4.56
5.18
3.91
0.97
-2.98
-6.96
-10.07
-11.69
-11.79
-10.79
-9.37
-8.14
-7.39
-7.07
-6.99
-7.04
-7.37
-8.44
-10.78
-14.71
-20.04
-25.96
-31.26
-34.79
-35.86
-34.61
-31.87
-28.82
-26.51
-25.64
-26.44
-28.82
-32.56
-37.27
-42.42
-47.27
-51.02
-53.03
-53.02
-51.18
-48.07
-44.31
-40.45
-36.84
-33.69
-31.18
-29.51
-28.87
-29.50
-31.58
-35.25
-40.47
-46.91
-53.80
-59.96
-64.11
-65.18
-62.74
-57.12
-49.28
-40.38
-31.42
-23.07
-15.67
-9.43
-4.50
-1.11
0.57
0.53
-1.05
-3.67
-6.54
-8.75
-9.45
-8.15
-5.01
-0.77
3.49
6.74
8.48
8.74
7.97
6.60
4.84
2.50
-0.69
-4.85
-9.69
-14.49
-18.26
-20.07
-19.33
-16.00
-10.62
-4.10
2.52
8.42
13.14
16.51
18.50
19.04
18.02
15.42
11.58
7.21
3.25
0.45
-0.95
-1.46
-1.96
-3.30
-5.81
-9.05
-12.07
-13.85
-13.80
-12.02
-9.26
-6.62
-5.12
-5.38
-7.31
-10.05
-11.95
-10.99
-5.28
6.13
22.61
41.81
60.21
74.35
82.02
83.08
79.32
73.48
67.88
63.37
59.08
52.85
42.42
26.46
5.37
-18.68
-42.24
-61.65
-74.10
-78.59
-76.08
-68.91
-59.87
-51.07
-43.47
-36.99
-31.21
-25.85
-21.04
-16.98
-13.42
-9.45
-3.79
4.46
15.10
26.76
37.41
45.36
50.03
52.17
53.31
54.88
57.57
61.09
64.71
67.77
70.10
71.96
73.66
75.22
76.27
76.23
74.54
70.92
65.26
57.56
47.82
35.97
21.91
5.64
-12.82
-33.17
-54.71
-76.23
-95.98
-112.15
-123.29
-128.92
-129.55
-126.38
-120.62
-112.91
-103.14
-90.79
-75.56
-57.81
-38.67
-19.60
-1.97
13.37
26.12
36.29
43.99
49.33
52.48
53.81
53.90
53.39
52.75
52.03
50.79
48.33
43.86
36.85
27.15
15.05
1.24
-13.40
-27.82
-40.93
-51.73
-59.49
-63.92
-65.17
-63.78
-60.40
-55.58
-49.75
-43.32
-36.88
-31.32
-27.57
-26.25
-27.32
-30.12
-33.67
-37.18
-40.34
-43.31
-46.37
-49.56
-52.54
-54.78
-55.96
-56.28
-56.52
-57.76
-60.99
-66.57
-74.13
-82.51
-90.01
-94.83
-95.61
-91.74
-83.52
-72.03
-58.68
-44.84
-31.50
-19.23
-8.29
1.11
8.77
14.45
18.03
19.63
19.61
18.43
16.40
13.70
10.28
6.22
1.74
-2.74
-6.73
-9.97
-12.56
-14.94
-17.74
-21.57
-26.89
-33.95
-42.69
-52.50
-62.15
-69.77
-73.27
-70.96
-62.20
-47.65
-29.10
-8.87
10.89
28.63
43.52
55.20
63.62
68.92
71.38
71.51
69.93
67.25
63.83
59.74
54.78
48.71
41.45
33.25
24.62
16.22
8.56
1.76
-4.53
-11.10
-18.93
-28.87
-41.15
-55.03
-68.70
-79.55
-84.88
-82.84
-73.08
-56.97
-37.12
-16.50
2.53
18.74
31.97
42.71
51.43
58.19
62.67
64.48
63.57
60.39
55.81
50.69
45.56
40.39
34.76
28.22
20.66
12.47
4.36
-3.01
-9.40
-15.19
-21.26
-28.69
-38.36
-50.65
-65.05
-80.14
-93.66
-103.00
-105.89
-101.16
-89.16
-71.65
-51.13
-29.90
-9.46
9.63
27.30
43.41
57.25
67.75
73.92
75.54
73.46
69.39
65.17
62.06
60.25
58.98
57.09
53.67
48.51
42.08
35.18
28.50
22.30
16.32
9.89
2.06
-8.18
-21.65
-38.38
-57.21
-75.58
-90.10
-97.50
-95.85
-85.23
-67.70
-46.43
-24.57
-4.37
13.04
27.35
38.51
46.57
51.79
54.94
57.45
61.04
67.09
76.06
87.35
99.64
111.48
121.91
130.61
137.71
143.39
147.56
149.84
149.77
147.07
141.65
133.49
122.45
108.18
90.48
69.78
47.60
26.62
10.07
0.72
-0.19
6.44
17.85
30.48
41.32
48.85
53.21
55.51
56.83
57.45
56.76
53.84
48.19
40.22
31.11
22.19
14.37
7.76
1.89
-3.90
-9.88
-15.85
-21.21
-25.38
-28.10
-29.58
-30.48
-31.64
-33.92
-37.97
-44.26
-52.90
-63.48
-74.88
-85.26
-92.38
-94.20
-89.70
-79.20
-64.36
-47.50
-30.74
-15.36
-1.67
10.61
21.76
31.58
39.41
44.52
46.57
45.88
43.35
40.10
37.00
34.41
32.18
30.01
27.75
25.68
24.36
24.32
25.69
27.88
29.73
29.87
27.15
20.95
11.11
-2.13
-18.32
-36.51
-55.11
-71.75
-83.67
-88.51
-85.12
-74.09
-57.52
-38.31
-19.17
-1.88
12.87
25.17
35.39
43.81
50.54
55.53
58.80
60.54
61.03
60.69
59.82
58.63
57.13
55.12
52.35
48.65
44.02
38.65
32.74
26.47
19.92
13.11
6.08
-1.04
-8.15
-15.24
-22.50
-30.31
-39.04
-48.72
-58.79
-67.97
-74.47
-76.51
-72.95
-63.67
-49.73
-33.05
-15.69
0.73
15.43
28.35
39.71
49.52
57.32
62.30
63.81
61.78
56.90
50.41
43.57
37.26
31.74
26.92
22.62
18.86
15.81
13.56
11.80
9.91
7.15
3.06
-2.38
-8.76
-15.56
-22.43
-29.33
-36.47
-44.14
-52.55
-61.55
-70.55
-78.46
-83.78
-84.96
-80.91
-71.48
-57.69
-41.53
-25.31
-10.97
0.52
9.14
15.49
20.29
23.93
26.39
27.50
27.20
25.71
23.55
21.37
19.65
18.60
18.09
17.78
17.32
16.47
15.17
13.52
11.64
9.62
7.42
4.96
2.10
-1.25
-5.16
-9.72
-15.05
-21.26
-28.28
-35.60
-42.29
-47.00
-48.39
-45.57
-38.44
-27.87
-15.37
-2.72
8.66
17.99
25.14
30.45
34.33
37.03
38.59
38.93
38.07
36.17
33.56
30.61
27.63
24.79
22.15
19.74
17.64
15.91
14.49
13.16
11.53
9.18
5.84
1.62
-3.05
-7.57
-11.50
-14.74
-17.59
-20.68
-24.71
-30.18
-37.16
-45.11
-52.86
-58.82
-61.42
-59.62
-53.33
-43.44
-31.53
-19.30
-8.06
1.51
9.26
15.33
19.88
23.04
24.97
25.95
26.33
26.43
26.38
26.14
25.58
24.54
23.03
21.21
19.33
17.72
16.64
16.19
16.23
16.39
16.17
15.19
13.36
10.94
8.35
5.93
3.72
1.42
-1.45
-5.33
-10.45
-16.72
-23.71
-30.63
-36.31
-39.48
-39.05
-34.57
-26.53
-16.27
-5.51
4.25
12.21
18.26
22.78
26.12
28.42
29.50
29.20
27.55
24.90
21.83
18.86
16.36
14.36
12.77
11.37
10.05
8.75
7.35
5.62
3.20
-0.28
-4.99
-10.76
-17.06
-23.19
-28.49
-32.66
-35.86
-38.61
-41.66
-45.73
-51.24
-58.12
-65.64
-72.49
-77.05
-77.83
-74.03
-65.84
-54.43
-41.56
-28.93
-17.77
-8.52
-1.06
4.97
9.83
13.54
16.05
17.35
17.68
17.41
16.90
16.34
15.70
14.86
13.78
12.59
11.57
10.90
10.58
10.31
9.60
8.07
5.56
2.25
-1.48
-5.19
-8.58
-11.52
-14.15
-16.78
-19.87
-23.91
-29.23
-35.65
-42.36
-47.93
-50.67
-49.25
-43.23
-33.27
-20.96
-8.19
3.40
12.87
19.93
24.80
27.80
29.23
29.30
28.22
26.31
24.01
21.67
19.54
17.66
15.85
13.89
11.68
9.25
6.84
4.75
3.14
1.92
0.71
-1.06
-3.87
-7.93
-13.04
-18.62
-23.92
-28.33
-31.65
-34.18
-36.75
-40.34
-45.68
-52.79
-60.78
-67.92
-72.25
-72.15
-66.90
-56.95
-43.64
-28.76
-13.96
-0.37
11.49
21.55
29.97
36.80
42.05
45.69
47.79
48.62
48.55
47.95
47.03
45.81
44.19
42.10
39.67
37.17
34.95
33.18
31.71
30.02
27.48
23.54
18.02
11.18
3.65
-3.86
-10.83
-17.12
-23.05
-29.22
-36.35
-45.01
-55.31
-66.79
-78.18
-87.68
-93.34
-93.67
-88.19
-77.67
-63.92
-49.05
-34.83
-22.14
-11.01
-1.04
8.08
16.30
23.30
28.78
32.72
35.43
37.30
38.62
39.51
39.99
40.21
40.52
41.35
43.04
45.51
48.31
50.71
52.00
51.75
49.94
46.84
42.96
38.74
34.42
30.03
25.32
19.79
12.75
3.49
-8.34
-22.32
-37.02
-50.15
-59.14
-62.00
-58.10
-48.32
-34.74
-19.73
-5.28
7.49
18.17
26.66
32.84
36.59
37.92
37.16
34.97
32.04
28.82
25.38
21.51
16.99
11.82
6.30
0.79
-4.43
-9.40
-14.41
-19.80
-25.79
-32.37
-39.32
-46.32
-53.09
-59.36
-65.00
-70.00
-74.55
-79.11
-84.33
-90.77
-98.43
-106.45
-113.03
-115.81
-112.65
-102.35
-85.19
-62.85
-37.81
-12.57
11.04
32.10
50.40
66.00
78.88
88.85
95.71
99.44
100.35
99.00
95.98
91.78
86.77
81.27
75.69
70.55
66.35
63.28
61.15
59.29
56.77
52.69
46.47
38.06
27.93
16.94
6.06
-4.00
-12.97
-21.17
-29.41
-38.67
-49.65
-62.29
-75.44
-86.96
-94.15
-94.70
-87.38
-72.66
-52.45
-29.59
-6.92
13.37
30.11
43.07
52.66
59.57
64.54
68.15
70.79
72.62
73.59
73.59
72.53
70.43
67.41
63.62
59.21
54.39
49.34
44.28
39.28
34.22
28.77
22.59
15.54
7.84
0.02
-7.27
-13.49
-18.56
-22.82
-26.97
-31.90
-38.40
-46.89
-57.12
-67.94
-77.33
-82.83
-82.29
-74.60
-60.21
-41.04
-19.86
0.64
18.60
33.36
45.15
54.53
61.90
67.23
70.36
71.29
70.57
69.05
67.64
66.81
66.43
65.94
64.74
62.56
59.58
56.14
52.40
48.15
42.81
35.80
26.95
16.65
5.76
-4.73
-14.15
-22.36
-29.84
-37.48
-46.19
-56.48
-68.06
-79.68
-89.25
-94.43
-93.38
-85.41
-71.29
-53.08
-33.39
-14.62
1.72
15.17
26.06
34.97
42.32
48.16
52.31
54.64
55.17
54.24
52.28
49.69
46.70
43.41
39.90
36.39
33.18
30.58
28.64
27.07
25.27
22.55
18.44
12.83
6.13
-0.97
-7.79
-13.96
-19.57
-25.16
-31.50
-39.20
-48.39
-58.40
-67.78
-74.56
-76.85
-73.46
-64.35
-50.71
-34.59
-18.25
-3.49
8.72
18.26
25.48
30.86
34.65
36.99
38.01
37.97
37.35
36.62
36.07
35.70
35.24
34.36
32.91
31.07
29.26
27.93
27.24
27.00
26.64
25.43
22.82
18.66
13.20
7.05
0.89
-4.76
-9.73
-14.24
-18.82
-24.22
-31.08
-39.65
-49.58
-59.72
-68.32
-73.45
-73.61
-68.25
-58.04
-44.60
-29.98
-16.03
-3.85
6.27
14.62
21.67
27.67
32.55
36.12
38.31
39.34
39.69
39.86
40.14
40.48
40.62
40.38
39.83
39.29
39.12
39.41
39.78
39.53
37.87
34.42
29.30
23.17
16.91
11.20
6.36
2.19
-1.82
-6.30
-11.83
-18.74
-27.13
-36.70
-46.69
-55.91
-62.92
-66.42
-65.72
-60.99
-53.23
-43.88
-34.36
-25.62
-18.09
-11.75
-6.39
-1.82
2.05
5.22
7.67
9.37
10.31
10.56
10.26
9.62
8.88
8.23
7.82
7.71
7.99
8.67
9.60
10.45
10.61
9.52
6.82
2.64
-2.43
-7.55
-12.00
-15.45
-18.13
-20.72
-24.09
-28.96
-35.60
-43.53
-51.57
-58.04
-61.25
-60.00
-54.07
-44.27
-32.18
-19.63
-8.13
1.48
8.99
14.67
18.90
21.95
23.99
25.15
25.62
25.67
25.56
25.41
25.16
24.59
23.41
21.48
18.89
16.00
13.33
11.29
10.02
9.25
8.38
6.75
3.92
-0.17
-5.18
-10.56
-15.83
-20.77
-25.46
-30.21
-35.44
-41.49
-48.52
-56.38
-64.52
-71.85
-76.96
-78.41
-75.24
-67.41
-55.95
-42.63
-29.40
-17.71
-8.10
-0.29
6.47
12.83
19.09
25.11
30.62
35.43
39.59
43.35
46.93
50.38
53.57
56.18
57.98
58.83
58.90
58.46
57.80
57.05
56.07
54.45
51.71
47.49
41.76
34.86
27.38
19.91
12.87
6.43
0.52
-5.04
-10.55
-16.44
-23.20
-31.25
-40.60
-50.57
-59.73
-66.29
-68.67
-66.17
-59.24
-49.23
-37.93
-27.05
-17.84
-11.05
-6.95
-5.41
-5.96
-7.86
-10.24
-12.28
-13.30
-12.77
-10.31
-5.78
0.58
8.01
15.34
21.32
24.98
25.88
24.06
19.77
13.37
5.36
-3.45
-11.91
-18.68
-22.77
-23.96
-22.86
-20.78
-19.13
-19.09
-21.37
-26.37
-34.15
-44.42
-56.15
-67.51
-76.03
-79.28
-75.89
-66.16
-52.27
-37.54
-25.34
-17.81
-15.17
-15.96
-17.80
-18.50
-16.82
-12.68
-6.82
-0.35
5.86
11.22
15.41
18.17
19.26
18.45
15.72
11.38
6.11
0.79
-3.64
-6.52
-7.57
-7.04
-5.49
-3.64
-2.16
-1.57
-2.22
-4.32
-7.90
-12.68
-17.84
-22.00
-23.46
-20.60
-12.47
0.89
18.27
37.59
56.28
71.78
82.05
85.87
83.17
75.19
64.31
53.51
45.63
42.42
44.03
49.20
55.78
61.75
65.81
67.63
67.57
66.22
63.91
60.67
56.35
50.85
44.24
36.65
28.13
18.61
8.04
-3.55
-16.01
-29.22
-43.19
-58.07
-74.03
-91.07
-108.91
-126.88
-143.93
-158.64
-169.26
-174.08
-171.82
-162.27
-146.56
-126.97
-106.32
-87.02
-70.47
-56.84
-45.55
-35.86
-27.44
-20.43
-15.17
-11.78
-9.87
-8.58
-6.88
-3.98
0.30
5.53
10.81
15.07
17.43
17.46
15.20
11.11
5.87
0.11
-5.69
-11.33
-16.79
-22.18
-27.67
-33.52
-39.92
-46.85
-53.75
-59.41
-62.01
-59.72
-51.39
-37.14
-18.46
2.31
22.81
41.45
57.68
71.68
83.81
94.13
102.25
107.67
110.09
109.66
106.88
102.41
96.77
90.27
83.08
75.33
67.24
59.19
51.57
44.74
38.92
34.04
29.80
25.62
20.84
14.79
7.06
-2.52
-13.92
-26.92
-41.07
-55.52
-68.83
-79.11
-84.35
-83.18
-75.37
-62.08
-45.45
-27.84
-11.04
4.09
17.52
29.56
40.32
49.61
57.01
62.29
65.61
67.49
68.54
69.15
69.35
68.88
67.46
65.06
61.97
58.66
55.59
52.93
50.49
47.85
44.46
39.93
34.04
26.80
18.33
8.72
-2.01
-13.96
-27.22
-41.56
-56.11
-69.38
-79.44
-84.56
-83.81
-77.46
-66.83
-53.76
-39.91
-26.31
-13.27
-0.70
11.50
23.15
33.68
42.39
48.63
52.00
52.47
50.40
46.47
41.61
36.72
32.47
29.09
26.31
23.48
19.81
14.67
7.84
-0.39
-9.26
-17.73
-24.75
-29.62
-32.16
-32.78
-32.45
-32.41
-33.91
-37.72
-43.76
-50.81
-56.79
-59.30
-56.56
-48.10
-35.04
-19.60
-4.26
9.10
19.78
28.12
35.03
41.34
47.41
53.07
57.73
60.72
61.45
59.66
55.38
49.12
41.77
34.36
27.89
22.88
19.32
16.72
14.34
11.59
8.11
3.87
-1.11
-6.81
-13.30
-20.63
-28.80
-37.75
-47.55
-58.33
-70.07
-82.18
-93.21
-101.03
-103.38
-98.84
-87.40
-70.56
-50.80
-30.57
-11.64
5.25
20.15
33.45
45.43
56.10
65.21
72.38
77.30
79.77
79.86
77.90
74.44
70.09
65.39
60.67
56.08
51.68
47.49
43.48
39.42
34.94
29.50
22.62
14.23
4.75
-4.91
-13.65
-20.70
-25.89
-29.81
-33.37
-37.25
-41.23
-44.03
-43.67
-38.31
-27.16
-10.97
8.14
27.41
44.42
57.73
67.05
72.96
76.41
78.36
79.55
80.42
81.25
82.22
83.45
85.03
87.03
89.49
92.39
95.61
98.98
102.19
104.76
106.11
105.47
102.11
95.53
85.69
73.14
58.88
44.09
29.76
16.45
4.22
-7.19
-18.15
-28.96
-39.74
-50.30
-60.11
-68.28
-73.77
-75.63
-73.49
-67.74
-59.59
-50.63
-42.32
-35.47
-30.12
-25.74
-21.68
-17.55
-13.37
-9.47
-6.28
-4.16
-3.33
-3.94
-5.97
-9.27
-13.42
-17.74
-21.46
-23.97
-25.09
-25.15
-24.89
-25.14
-26.47
-29.03
-32.46
-36.08
-39.20
-41.38
-42.62
-43.38
-44.50
-46.87
-51.05
-56.84
-63.20
-68.32
-70.30
-67.72
-60.32
-48.99
-35.42
-21.45
-8.46
2.86
12.41
20.33
26.71
31.56
34.95
37.07
38.27
38.94
39.39
39.81
40.28
40.85
41.41
41.69
41.16
39.21
35.49
30.10
23.69
17.23
11.65
7.41
4.35
1.82
-1.06
-5.00
-10.45
-17.54
-26.14
-35.92
-46.29
-56.29
-64.57
-69.67
-70.41
-66.32
-57.90
-46.42
-33.49
-20.46
-8.12
3.36
14.14
24.29
33.54
41.34
47.10
50.38
51.11
49.44
45.65
40.16
33.59
26.86
21.14
17.54
16.60
17.96
20.37
22.14
21.87
19.07
14.33
8.92
4.09
0.43
-2.27
-4.77
-7.85
-11.98
-17.20
-23.24
-29.70
-35.97
-41.17
-44.18
-43.96
-40.07
-32.97
-24.03
-15.00
-7.33
-1.63
2.36
5.41
8.30
11.39
14.57
17.44
19.56
20.65
20.68
19.84
18.52
17.13
16.00
15.21
14.68
14.11
13.24
11.85
9.83
7.06
3.49
-0.91
-5.98
-11.35
-16.54
-21.11
-24.99
-28.59
-32.69
-38.17
-45.53
-54.40
-63.34
-70.10
-72.30
-68.32
-57.96
-42.56
-24.52
-6.49
9.44
22.08
31.18
37.06
40.33
41.76
42.12
42.17
42.31
42.44
41.89
39.61
34.79
27.41
18.60
10.30
4.62
2.93
5.14
9.63
13.92
15.58
13.19
6.70
-2.67
-13.08
-22.70
-30.14
-34.69
-36.39
-36.13
-35.55
-36.70
-41.18
-49.19
-58.93
-66.95
-69.40
-63.67
-49.60
-29.65
-7.90
11.52
25.71
33.44
34.80
30.56
21.82
10.02
-2.80
-14.13
-21.64
-24.09
-21.82
-16.63
-10.93
-6.70
-4.85
-5.22
-7.07
-9.71
-12.83
-16.48
-20.67
-25.19
-29.55
-33.19
-35.71
-37.04
-37.39
-37.18
-36.93
-37.23
-38.69
-41.99
-47.69
-55.89
-65.84
-75.71
-82.85
-84.55
-79.04
-66.37
-48.50
-28.78
-10.65
3.46
12.81
18.25
21.49
24.21
27.47
31.51
36.02
40.44
44.25
47.05
48.50
48.37
46.49
42.85
37.77
31.84
25.90
20.71
16.72
13.81
11.36
8.42
4.14
-1.85
-9.30
-17.45
-25.41
-32.56
-38.91
-44.99
-51.72
-59.87
-69.60
-80.08
-89.56
-95.77
-96.69
-91.28
-80.04
-64.86
-48.49
-33.57
-21.89
-13.95
-9.22
-6.63
-5.15
-4.13
-3.33
-2.68
-2.14
-1.55
-0.75
0.25
1.19
1.68
1.32
-0.02
-2.04
-4.11
-5.59
-6.16
-6.10
-6.24
-7.60
-10.87
-16.07
-22.54
-29.33
-35.65
-41.29
-46.67
-52.55
-59.59
-68.15
-78.14
-89.03
-99.95
-109.64
-116.54
-119.02
-115.88
-106.88
-92.94
-76.00
-58.34
-41.95
-27.94
-16.55
-7.40
0.02
6.10
10.95
14.60
17.18
19.01
20.53
22.08
23.76
25.36
26.45
26.66
25.80
24.01
21.71
19.27
16.91
14.44
11.41
7.33
1.85
-5.03
-13.07
-21.78
-30.70
-39.50
-48.14
-56.98
-66.61
-77.60
-89.92
-102.53
-113.40
-120.00
-120.26
-113.44
-100.55
-84.00
-66.66
-50.79
-37.35
-25.90
-15.17
-3.79
9.02
23.32
38.77
55.04
72.09
90.00
108.43
126.25
141.39
151.44
154.53
150.25
139.92
126.04
111.26
97.41
85.05
73.76
62.81
51.71
40.44
29.25
18.35
7.75
-2.79
-13.57
-24.81
-36.50
-48.31
-59.42
-68.47
-73.68
-73.36
-66.50
-53.30
-35.22
-14.50
6.55
26.32
44.08
59.82
73.70
85.79
95.93
104.01
110.20
115.02
119.24
123.49
128.13
133.08
137.88
141.89
144.47
145.19
144.10
141.76
139.22
137.71
138.14
140.67
144.52
148.17
150.04
149.13
145.39
139.53
132.33
123.93
113.60
100.26
83.49
64.43
45.86
31.37
23.93
24.46
31.49
41.73
51.60
58.49
61.42
60.84
57.74
52.91
46.60
38.69
29.18
18.62
7.99
-1.49
-8.98
-14.19
-17.48
-19.50
-20.75
-21.33
-20.97
-19.42
-16.83
-14.11
-12.73
-14.26
-19.76
-29.21
-41.47
-54.60
-66.57
-76.05
-82.86
-88.02
-93.33
-100.45
-110.07
-121.41
-132.15
-139.25
-139.94
-132.81
-118.24
-98.25
-75.79
-53.78
-34.35
-18.45
-5.87
4.37
13.40
22.07
30.53
38.38
44.83
49.14
50.94
50.25
47.48
43.19
37.96
32.37
26.98
22.27
18.55
15.83
13.77
11.88
9.62
6.63
2.78
-1.82
-6.98
-12.50
-18.25
-24.33
-31.08
-38.98
-48.23
-58.38
-68.08
-75.21
-77.58
-73.73
-63.61
-48.66
-31.31
-14.14
0.99
13.29
22.92
30.51
36.68
41.65
45.26
47.06
46.62
43.78
38.77
32.34
25.54
19.56
15.27
13.06
12.69
13.42
14.29
14.39
13.12
10.20
5.76
0.22
-5.86
-11.86
-17.32
-22.03
-26.12
-30.00
-34.23
-39.22
-45.02
-51.06
-56.23
-59.09
-58.37
-53.49
-44.87
-33.80
-22.11
-11.48
-2.93
3.31
7.72
11.04
13.82
16.35
18.59
20.45
21.87
22.91
23.66
24.13
24.29
24.07
23.49
22.65
21.73
20.78
19.65
18.02
15.50
11.89
7.29
2.10
-3.14
-8.00
-12.26
-15.96
-19.34
-22.81
-26.79
-31.71
-37.69
-44.45
-51.09
-56.23
-58.41
-56.60
-50.64
-41.37
-30.37
-19.40
-9.81
-2.30
3.20
7.24
10.52
13.55
16.50
19.18
21.23
22.34
22.47
21.92
21.17
20.69
20.72
21.20
21.84
22.31
22.40
22.02
21.17
19.80
17.80
15.08
11.69
7.80
3.75
-0.13
-3.71
-7.10
-10.67
-14.93
-20.22
-26.43
-32.86
-38.26
-41.20
-40.55
-35.94
-27.92
-17.81
-7.22
2.48
10.49
16.69
21.38
25.03
28.01
30.46
32.39
33.82
34.75
35.29
35.45
35.24
34.56
33.36
31.63
29.52
27.26
25.05
23.04
21.18
19.25
16.95
13.95
9.98
4.90
-1.27
-8.29
-15.78
-23.23
-30.17
-36.30
-41.53
-45.82
-48.97
-50.44
-49.41
-45.16
-37.57
-27.38
-16.12
-5.54
3.02
9.12
13.16
15.97
18.17
19.90
20.77
20.22
17.99
14.30
9.88
5.63
2.32
0.27
-0.61
-0.70
-0.26
0.68
2.36
5.04
8.79
13.25
17.73
21.35
23.35
23.20
20.64
15.62
8.31
-0.91
-11.38
-22.19
-32.35
-40.88
-46.91
-49.75
-48.95
-44.35
-36.33
-25.74
-13.74
-1.46
10.21
20.75
29.76
36.83
41.45
43.17
41.97
38.37
33.33
27.87
22.66
17.82
13.10
8.15
2.90
-2.41
-7.32
-11.43
-14.58
-16.91
-18.72
-20.44
-22.48
-25.12
-28.46
-32.30
-36.23
-39.74
-42.43
-44.17
-45.16
-45.80
-46.60
-47.99
-50.31
-53.66
-57.77
-61.89
-64.73
-64.77
-60.77
-52.30
-40.09
-25.89
-11.80
0.40
9.85
16.70
21.70
25.62
28.94
31.69
33.68
34.75
34.94
34.40
33.35
32.03
30.71
29.82
29.96
31.78
35.69
41.52
48.41
54.85
58.99
59.20
54.48
44.74
30.87
14.40
-2.78
-18.89
-32.58
-43.21
-50.85
-56.30
-60.79
-65.65
-71.80
-79.28
-87.01
-92.94
-94.64
-90.21
-79.01
-61.97
-41.41
-20.22
-1.07
14.28
25.14
31.75
34.89
35.50
34.49
32.69
30.79
29.27
28.32
27.73
27.03
25.63
23.14
19.56
15.37
11.27
7.88
5.53
4.07
3.08
2.17
1.27
0.69
0.98
2.51
5.16
8.19
10.34
10.28
6.96
0.01
-10.19
-22.49
-35.07
-45.59
-51.58
-51.09
-43.36
-29.42
-11.87
5.97
21.23
32.55
40.33
46.24
52.07
58.77
65.98
72.40
76.47
77.12
74.03
67.46
57.92
46.00
32.48
18.45
5.43
-4.92
-11.28
-13.21
-11.54
-8.15
-5.51
-5.70
-9.78
-17.38
-27.05
-36.81
-45.03
-50.92
-54.71
-57.46
-60.62
-65.55
-73.20
-83.67
-96.06
-108.42
-118.05
-122.18
-118.93
-107.99
-90.78
-69.93
-48.34
-28.31
-11.04
3.27
15.03
24.81
33.13
40.41
46.97
52.91
58.16
62.30
64.82
65.19
63.03
58.24
51.06
42.10
32.33
22.92
15.00
9.24
5.63
3.52
1.89
-0.10
-2.78
-5.86
-8.74
-10.97
-12.58
-14.13
-16.41
-20.02
-25.24
-31.89
-39.37
-46.60
-52.01
-53.74
-50.13
-40.44
-25.33
-6.94
11.90
28.64
41.82
51.40
58.20
63.25
67.15
69.97
71.59
72.04
71.58
70.59
69.24
67.52
65.33
62.73
60.08
57.83
56.34
55.47
54.63
52.90
49.48
44.02
36.67
27.99
18.61
9.06
-0.26
-8.87
-16.12
-21.36
-24.37
-25.92
-28.04
-33.46
-44.16
-59.85
-77.13
-90.28
-93.50
-83.54
-61.42
-32.15
-2.72
20.83
35.56
42.10
43.45
42.95
42.59
42.60
42.16
40.37
37.10
32.97
28.84
25.24
22.09
18.78
14.65
9.48
3.68
-1.89
-6.34
-9.25
-10.88
-12.14
-14.18
-17.83
-23.24
-29.76
-36.14
-41.13
-44.08
-45.34
-46.31
-48.96
-54.99
-64.85
-77.09
-88.42
-94.58
-91.85
-78.44
-55.23
-25.37
6.99
38.02
65.05
86.47
101.33
108.90
108.86
101.81
89.52
74.62
59.64
46.03
33.80
22.00
9.77
-2.88
-14.78
-24.13
-29.28
-29.34
-24.39
-15.40
-4.06
7.48
16.80
21.73
20.95
14.54
4.08
-7.74
-18.17
-25.53
-30.00
-33.58
-39.35
-50.11
-66.95
-88.20
-109.51
-125.02
-129.35
-119.80
-97.49
-67.14
-35.37
-8.24
10.68
21.06
25.11
25.96
26.12
26.72
27.68
28.47
28.80
28.83
28.96
29.41
29.90
29.79
28.36
25.27
20.85
16.00
11.62
8.15
5.19
1.77
-3.03
-9.34
-16.17
-21.85
-24.87
-24.84
-22.74
-20.60
-20.65
-24.56
-33.05
-45.81
-61.52
-77.84
-91.56
-99.19
-98.05
-87.39
-68.94
-46.33
-23.65
-3.86
12.06
24.73
35.29
44.28
51.38
55.90
57.66
57.42
56.53
56.06
56.11
55.80
53.87
49.50
42.98
35.52
28.73
23.80
21.01
19.67
18.59
16.65
13.25
8.50
2.90
-2.89
-8.42
-13.64
-18.87
-24.67
-31.59
-40.03
-49.97
-60.77
-71.09
-79.05
-82.60
-80.24
-71.53
-57.37
-39.72
-20.92
-3.02
12.79
26.18
37.36
46.62
54.08
59.71
63.44
65.54
66.58
67.25
68.12
69.33
70.61
71.38
71.12
69.59
66.88
63.27
58.94
53.76
47.37
39.40
29.85
19.19
8.24
-2.23
-11.82
-20.68
-29.31
-38.34
-48.31
-59.47
-71.69
-84.23
-95.56
-103.48
-105.68
-100.54
-88.02
-69.93
-49.42
-29.92
-13.91
-2.30
5.43
10.43
13.62
15.33
15.37
13.67
10.68
7.42
5.07
4.43
5.48
7.47
9.30
10.13
9.72
8.50
7.28
6.82
7.51
9.29
11.79
14.52
17.02
18.97
20.13
20.36
19.59
17.84
15.16
11.55
6.87
0.80
-6.80
-15.54
-24.13
-30.36
-31.76
-26.52
-14.37
3.13
23.09
42.35
58.47
70.34
77.95
81.89
82.79
81.02
76.88
70.78
63.42
55.61
48.10
41.40
35.78
31.32
27.97
25.61
24.07
23.22
22.93
23.00
23.05
22.40
20.18
15.68
8.71
-0.31
-10.41
-20.69
-30.64
-40.29
-49.91
-59.70
-69.53
-79.01
-87.43
-93.79
-96.71
-94.69
-86.54
-72.14
-52.84
-31.20
-10.15
8.14
23.03
35.27
46.26
56.99
67.38
76.35
82.40
84.34
81.73
74.98
65.18
53.93
42.97
33.77
27.30
23.77
22.72
23.14
23.87
23.91
22.59
19.73
15.52
10.36
4.62
-1.56
-8.38
-16.36
-26.23
-38.80
-54.61
-73.46
-93.98
-113.38
-127.96
-134.13
-129.73
-115.00
-92.47
-66.14
-39.86
-16.08
4.41
22.00
37.25
50.16
60.20
66.73
69.61
69.25
66.35
61.48
54.95
47.09
38.65
30.82
25.09
22.55
23.27
26.19
29.41
30.93
29.41
24.69
17.67
10.06
3.66
-0.17
-0.89
1.01
4.14
6.40
5.52
-0.25
-11.18
-25.65
-40.22
-50.68
-53.56
-47.51
-33.91
-16.34
0.90
14.32
22.23
24.75
23.15
18.86
12.99
6.31
-0.44
-6.29
-10.16
-11.24
-9.43
-5.43
-0.43
4.37
8.33
11.60
14.84
18.67
23.27
28.14
32.30
34.78
35.01
32.94
28.96
23.58
17.28
10.37
2.94
-5.27
-14.87
-26.56
-40.56
-55.94
-70.26
-80.08
-82.23
-75.25
-60.25
-40.56
-20.46
-3.45
8.86
16.83
22.06
26.25
30.43
34.78
38.94
42.38
44.58
45.02
43.10
38.31
30.56
20.34
8.83
-2.58
-12.79
-21.49
-29.29
-37.20
-46.07
-55.85
-65.62
-73.94
-79.63
-82.37
-82.76
-82.02
-81.37
-81.75
-83.73
-87.55
-93.07
-99.57
-105.51
-108.67
-106.74
-98.28
-83.36
-63.71
-42.16
-21.54
-3.87
10.06
20.54
28.28
34.01
38.18
41.02
42.74
43.54
43.61
43.04
41.87
40.14
37.97
35.62
33.35
31.35
29.51
27.52
24.89
21.20
16.33
10.44
3.98
-2.54
-8.65
-14.13
-19.03
-23.67
-28.62
-34.63
-42.35
-51.98
-62.94
-73.67
-81.90
-85.29
-82.34
-73.00
-58.76
-42.20
-25.96
-11.97
-0.97
7.37
13.87
19.32
24.11
28.24
31.49
33.67
34.79
35.05
34.73
34.12
33.43
32.76
32.14
31.59
31.09
30.51
29.57
27.89
25.12
21.10
16.02
10.36
4.67
-0.67
-5.62
-10.53
-15.98
-22.58
-30.72
-40.28
-50.38
-59.43
-65.31
-66.03
-60.46
-48.89
-33.10
-15.75
0.50
13.90
23.93
31.12
36.44
40.67
44.13
46.74
48.32
48.81
48.39
47.35
45.98
44.49
43.02
41.72
40.73
40.14
39.91
39.81
39.42
38.34
36.20
32.84
28.32
22.95
17.17
11.40
5.96
0.86
-4.33
-10.31
-17.81
-27.04
-37.31
-46.92
-53.68
-55.59
-51.70
-42.45
-29.47
-15.01
-1.09
10.99
20.76
28.35
34.08
38.22
40.90
42.18
42.16
41.06
39.13
36.64
33.86
31.05
28.51
26.55
25.51
25.57
26.74
28.69
30.79
32.26
32.40
30.79
27.46
22.88
17.72
12.60
7.85
3.37
-1.26
-6.64
-13.26
-21.07
-29.30
-36.37
-40.21
-38.85
-31.17
-17.35
1.00
21.34
41.03
58.05
71.47
81.29
88.04
92.26
94.23
94.12
92.21
89.13
85.76
82.98
81.24
80.45
80.07
79.40
77.93
75.49
72.10
67.83
62.54
55.85
47.17
35.87
21.36
3.44
-17.54
-40.43
-63.25
-83.57
-99.22
-109.20
-114.36
-117.55
-122.65
-132.91
-149.22
-169.32
-188.59
-201.99
-206.31
-201.33
-189.52
-174.15
-157.52
-139.91
-120.18
-97.29
-71.79
-46.27
-24.52
-10.00
-4.57
-8.04
-18.45
-32.46
-45.62
-52.42
-47.04
-25.01
14.54
67.11
123.03
169.94
197.09
199.31
178.92
144.43
106.90
75.63
55.21
45.22
41.98
41.11
39.53
36.00
30.50
23.43
15.08
5.95
-2.83
-9.39
-11.53
-7.80
1.65
14.73
27.99
37.83
41.75
39.18
31.54
21.68
12.81
7.46
6.55
9.13
12.68
14.10
11.22
3.83
-5.92
-14.48
-18.40
-15.73
-6.65
6.96
22.53
37.82
51.27
61.96
69.21
72.38
71.07
65.36
55.95
43.93
30.39
16.14
1.80
-11.84
-23.62
-32.02
-35.78
-34.43
-28.70
-20.29
-11.24
-3.24
2.95
7.42
10.80
13.65
16.23
18.38
19.86
20.56
20.65
20.48
20.37
20.51
20.87
21.31
21.69
21.94
22.11
22.32
22.68
23.26
24.05
24.99
25.86
26.38
26.20
24.92
22.24
17.91
11.84
4.14
-4.80
-14.14
-22.63
-28.74
-31.08
-28.86
-22.32
-12.68
-1.74
8.68
17.39
23.99
28.70
31.84
33.50
33.36
31.00
26.23
19.43
11.53
3.79
-2.52
-6.49
-7.71
-6.35
-3.15
0.81
4.29
6.20
5.84
3.12
-1.57
-7.51
-13.99
-20.49
-26.75
-32.72
-38.37
-43.59
-48.18
-51.88
-54.35
-55.23
-54.11
-50.65
-44.80
-36.96
-28.09
-19.43
-12.08
-6.43
-2.01
2.18
7.07
12.85
18.78
23.57
26.14
26.31
24.84
23.08
22.18
22.61
23.99
25.40
25.88
24.78
21.95
17.64
12.39
6.79
1.36
-3.61
-8.09
-12.24
-16.31
-20.47
-24.82
-29.36
-34.09
-38.81
-43.03
-45.90
-46.29
-43.33
-36.75
-27.21
-16.15
-5.27
4.06
11.17
16.16
19.52
21.76
23.04
23.28
22.33
20.22
17.30
14.15
11.32
9.22
7.98
7.42
7.13
6.62
5.47
3.40
0.38
-3.40
-7.56
-11.72
-15.58
-19.02
-22.10
-25.06
-28.21
-31.85
-36.13
-40.80
-45.17
-48.13
-48.51
-45.55
-39.25
-30.56
-20.96
-12.04
-4.87
0.21
3.41
5.28
6.29
6.72
6.73
6.43
5.97
5.47
4.95
4.32
3.38
1.94
-0.05
-2.56
-5.42
-8.38
-11.12
-13.21
-14.26
-14.06
-12.79
-11.05
-9.72
-9.66
-11.44
-15.10
-20.18
-25.82
-30.94
-34.40
-35.29
-33.05
-27.70
-19.90
-10.81
-1.71
6.35
12.86
17.81
21.49
24.14
25.73
25.98
24.58
21.55
17.35
12.81
8.84
6.10
4.75
4.52
4.81
4.96
4.48
3.20
1.24
-1.14
-3.67
-6.28
-9.12
-12.45
-16.50
-21.31
-26.78
-32.71
-38.83
-44.76
-49.75
-52.60
-51.87
-46.43
-36.03
-21.67
-5.46
10.16
23.17
32.60
38.60
42.00
43.84
44.91
45.61
46.02
46.01
45.30
43.52
40.25
35.16
28.13
19.36
9.34
-1.15
-11.19
-19.89
-26.55
-30.96
-33.39
-34.52
-35.14
-35.89
-37.08
-38.73
-40.90
-43.75
-47.56
-52.37
-57.64
-62.08
-63.97
-61.82
-55.03
-44.19
-30.91
-17.19
-4.69
5.65
13.72
19.89
24.63
28.17
30.51
31.51
31.09
29.38
26.67
23.43
20.14
17.26
15.05
13.57
12.64
11.98
11.25
10.22
8.71
6.52
3.41
-0.77
-5.75
-10.71
-14.35
-15.44
-13.48
-9.06
-3.64
1.29
5.09
8.39
12.71
19.46
29.11
40.84
53.06
64.19
73.37
80.46
85.70
89.22
90.91
90.54
88.07
83.76
78.02
71.27
63.78
55.77
47.55
39.47
31.88
24.93
18.51
12.42
6.55
1.00
-3.99
-8.29
-12.04
-15.72
-19.81
-24.58
-29.88
-35.27
-40.41
-45.30
-50.37
-56.08
-62.43
-68.58
-72.98
-73.84
-69.94
-61.18
-48.67
-34.33
-20.26
-8.02
1.54
8.35
12.80
15.46
16.79
17.16
16.78
15.82
14.50
13.07
11.77
10.68
9.73
8.66
7.27
5.51
3.59
1.71
-0.11
-2.30
-5.66
-11.00
-18.74
-28.60
-39.61
-50.44
-59.91
-67.45
-73.12
-77.40
-80.73
-83.09
-83.84
-81.96
-76.42
-66.75
-53.38
-37.65
-21.56
-7.35
3.14
8.86
9.85
7.11
2.22
-3.24
-8.17
-12.18
-15.44
-18.31
-20.95
-23.33
-25.41
-27.49
-30.32
-34.77
-41.42
-50.11
-60.01
-69.95
-78.98
-86.69
-93.24
-99.00
-104.20
-108.67
-111.99
-113.87
-114.52
-114.80
-115.90
-118.76
-123.48
-128.94
-132.85
-132.47
-125.58
-111.52
-91.56
-68.50
-45.56
-25.10
-7.95
6.52
19.51
31.86
43.51
53.64
61.29
66.00
68.05
68.36
67.95
67.60
67.65
68.06
68.60
68.91
68.57
67.12
64.24
59.79
53.96
47.12
39.72
32.08
24.27
16.09
7.12
-3.14
-15.01
-28.37
-42.29
-55.05
-64.44
-68.32
-65.45
-56.00
-41.67
-25.13
-9.09
4.57
15.37
23.96
31.51
38.89
46.10
52.40
56.79
58.72
58.63
57.92
58.30
60.87
65.40
70.20
72.81
71.05
64.07
52.83
39.79
27.89
19.60
16.09
17.11
21.40
27.08
32.05
34.15
31.39
22.39
7.13
-12.58
-33.14
-49.93
-58.76
-57.22
-45.45
-25.95
-2.47
21.24
42.46
60.02
73.95
85.00
93.91
101.01
106.05
108.47
107.72
103.77
97.33
89.75
82.66
77.27
74.10
72.67
71.81
70.03
65.88
58.30
46.85
31.85
14.45
-3.58
-20.25
-33.77
-43.08
-48.03
-49.30
-48.00
-44.91
-39.89
-31.59
-17.92
3.12
32.37
68.95
110.42
153.67
196.11
236.32
273.71
307.50
335.51
353.99
358.45
345.45
314.08
266.64
208.14
144.87
82.95
27.17
-19.51
-55.98
-82.64
-100.95
-112.90
-120.53
-125.64
-129.55
-133.12
-136.86
-141.04
-145.67
-150.59
-155.50
-160.08
-163.86
-166.21
-166.10
-162.18
-152.99
-137.47
-115.40
-87.64
-56.05
-23.05
8.79
37.29
60.90
78.88
91.24
98.50
101.54
101.30
98.74
94.71
89.91
84.76
79.35
73.34
66.15
57.26
46.53
34.41
21.86
10.02
-0.19
-8.37
-14.63
-19.39
-23.11
-26.24
-29.22
-32.61
-36.90
-42.13
-47.51
-51.24
-51.11
-45.43
-34.05
-18.78
-2.92
9.93
17.23
18.21
13.95
6.47
-2.21
-10.85
-19.08
-27.09
-35.12
-43.03
-50.29
-56.24
-60.43
-62.80
-63.65
-63.34
-61.87
-58.81
-53.38
-44.96
-33.55
-20.02
-5.90
7.21
18.18
26.67
32.98
37.67
41.14
43.46
44.73
45.24
45.52
46.18
47.42
49.02
50.72
52.74
55.78
60.41
66.19
71.36
73.46
70.62
62.57
50.77
37.52
24.86
14.01
5.50
-0.34
-3.39
-4.25
-4.80
-7.86
-15.89
-29.38
-46.23
-62.70
-75.65
-84.17
-89.72
-94.69
-100.63
-107.33
-113.27
-117.05
-118.27
-117.47
-115.18
-111.03
-103.87
-92.56
-77.15
-59.15
-40.86
-24.22
-9.90
2.74
14.67
26.50
37.88
47.88
55.72
61.05
63.90
64.30
62.19
57.88
52.35
47.06
43.13
40.56
38.29
34.93
29.91
24.11
19.35
17.07
16.95
16.77
13.37
4.37
-10.49
-29.25
-48.77
-66.19
-79.85
-89.30
-94.60
-95.75
-92.54
-84.71
-72.53
-57.28
-41.16
-26.68
-15.84
-9.26
-6.11
-4.60
-2.95
-0.27
3.24
6.71
9.39
11.18
12.63
14.44
16.92
19.83
22.54
24.52
25.68
26.26
26.42
25.97
24.33
20.90
15.41
8.09
-0.61
-10.16
-20.07
-29.62
-37.71
-42.99
-44.43
-41.84
-36.13
-28.91
-21.74
-15.39
-9.78
-4.37
1.11
6.37
10.79
13.94
16.03
17.92
20.60
24.59
29.54
34.35
37.68
38.58
36.94
33.50
29.49
26.10
23.97
23.00
22.37
20.86
17.34
11.15
2.24
-8.76
-20.84
-32.78
-43.14
-50.39
-53.12
-50.38
-42.17
-29.59
-14.80
-0.35
11.48
19.40
23.34
24.17
23.13
21.32
19.40
17.51
15.55
13.30
10.69
7.83
5.08
2.92
1.75
1.73
2.59
3.82
4.83
5.26
5.07
4.50
3.78
2.84
1.23
-1.78
-6.86
-14.32
-23.90
-34.63
-44.90
-52.66
-55.98
-53.53
-45.18
-32.14
-16.74
-1.70
10.70
19.15
23.49
24.32
22.52
18.87
13.98
8.46
3.03
-1.51
-4.46
-5.54
-5.06
-3.82
-2.94
-3.37
-5.52
-9.07
-13.07
-16.35
-18.08
-18.12
-17.18
-16.51
-17.38
-20.70
-26.66
-34.71
-43.61
-51.54
-56.38
-56.12
-49.55
-36.83
-19.66
-0.93
16.23
29.56
38.27
42.95
44.85
44.93
43.36
39.70
33.56
25.27
16.04
7.58
1.27
-2.42
-4.13
-5.12
-6.63
-9.18
-12.50
-15.76
-18.15
-19.28
-19.37
-19.07
-19.11
-20.14
-22.55
-26.55
-32.06
-38.47
-44.47
-48.13
-47.37
-40.80
-28.41
-11.76
6.51
23.58
37.48
47.51
54.09
58.09
60.26
60.87
59.92
57.48
54.09
50.72
48.45
48.01
49.39
51.79
53.89
54.30
52.18
47.49
41.01
33.96
27.40
21.80
16.69
10.88
2.87
-8.57
-23.93
-42.50
-62.24
-80.06
-92.53
-96.80
-91.36
-76.35
-53.65
-26.43
1.15
24.60
39.80
43.78
35.64
16.92
-8.57
-35.88
-60.45
-79.42
-92.23
-100.21
-105.44
-109.67
-113.75
-117.69
-121.14
-123.72
-125.27
-125.59
-124.36
-121.06
-115.27
-107.03
-97.18
-87.33
-79.42
-75.18
-75.44
-79.77
-86.44
-92.86
-96.31
-94.82
-87.74
-75.95
-61.39
-46.27
-32.17
-19.63
-8.37
2.19
12.30
21.55
29.12
34.20
36.53
36.46
34.88
32.68
30.39
27.96
24.84
20.46
14.52
7.43
0.13
-6.22
-10.87
-13.80
-15.80
-18.07
-21.69
-27.25
-34.79
-43.93
-54.07
-64.36
-73.65
-80.39
-82.92
-79.99
-71.26
-57.49
-40.33
-21.73
-3.36
13.64
28.71
41.40
51.25
57.67
60.25
59.05
54.84
49.02
43.14
38.43
35.43
33.85
32.84
31.49
29.20
25.96
22.17
18.30
14.58
10.85
6.70
1.64
-4.75
-12.86
-22.95
-34.98
-48.27
-61.26
-71.59
-76.66
-74.50
-64.53
-47.80
-26.63
-3.74
18.55
38.74
56.05
70.04
80.26
86.30
88.02
85.90
81.16
75.42
70.28
66.77
65.10
64.71
64.63
63.87
61.84
58.43
53.98
48.97
43.74
38.30
32.33
25.30
16.65
5.99
-6.71
-20.97
-35.64
-48.87
-58.32
-61.74
-57.68
-46.11
-28.55
-7.61
13.89
33.77
50.95
65.26
76.98
86.18
92.60
95.85
95.87
93.27
89.22
85.12
81.97
80.02
78.73
77.16
74.46
70.24
64.73
58.52
52.31
46.53
41.23
36.04
30.39
23.62
15.16
4.72
-7.58
-20.95
-33.85
-44.17
-49.68
-48.67
-40.58
-26.23
-7.66
12.50
31.81
48.52
61.83
71.67
78.34
82.23
83.60
82.72
79.91
75.60
70.33
64.58
58.69
52.79
46.80
40.54
33.88
26.77
19.27
11.58
3.91
-3.60
-10.93
-18.28
-26.06
-34.65
-44.33
-54.98
-65.90
-75.86
-83.44
-87.31
-86.45
-80.15
-68.00
-50.16
-27.73
-3.15
20.14
38.61
50.13
54.83
54.98
53.69
53.28
54.20
55.24
54.68
51.77
47.16
42.49
39.16
37.42
36.35
34.58
31.20
26.31
20.79
15.74
11.72
8.47
5.18
0.89
-4.94
-12.16
-19.94
-27.03
-32.18
-34.45
-33.40
-29.02
-21.65
-11.82
-0.18
12.51
25.42
37.67
48.46
57.16
63.37
66.87
67.67
65.90
61.95
56.34
49.83
43.25
37.30
32.43
28.65
25.63
22.91
20.12
17.21
14.32
11.67
9.23
6.69
3.49
-0.93
-6.91
-14.35
-22.66
-30.80
-37.42
-41.16
-41.03
-36.74
-28.88
-18.75
-7.87
2.48
11.61
19.31
25.62
30.49
33.63
34.72
33.68
30.90
27.14
23.26
19.86
17.10
14.75
12.39
9.68
6.53
3.08
-0.47
-3.93
-7.24
-10.45
-13.64
-16.89
-20.35
-24.22
-28.81
-34.35
-40.84
-47.82
-54.30
-58.96
-60.53
-58.22
-52.04
-42.80
-31.93
-20.97
-11.21
-3.38
2.39
6.36
8.97
10.53
11.11
10.70
9.38
7.49
5.59
4.22
3.63
3.55
3.35
2.33
0.18
-2.91
-6.36
-9.51
-12.07
-14.18
-16.31
-18.97
-22.49
-26.97
-32.40
-38.65
-45.47
-52.30
-58.24
-62.07
-62.70
-59.46
-52.46
-42.54
-31.06
-19.39
-8.68
0.47
7.94
13.95
18.83
22.75
25.65
27.23
27.20
25.52
22.55
19.01
15.67
13.04
11.14
9.55
7.75
5.48
2.85
0.30
-1.77
-3.28
-4.51
-5.99
-8.21
-11.44
-15.69
-20.76
-26.28
-31.66
-36.07
-38.51
-38.07
-34.28
-27.37
-18.34
-8.62
0.37
7.63
12.84
16.25
18.37
19.68
20.33
20.18
18.97
16.61
13.34
9.77
6.61
4.39
3.18
2.61
2.03
0.94
-0.83
-3.06
-5.38
-7.48
-9.30
-10.97
-12.68
-14.57
-16.73
-19.23
-22.11
-25.26
-28.28
-30.42
-30.76
-28.61
-23.78
-16.82
-8.73
-0.64
6.60
12.65
17.54
21.46
24.49
26.53
27.43
27.10
25.69
23.58
21.23
18.98
17.00
15.19
13.31
11.14
8.60
5.76
2.87
0.19
-2.11
-3.99
-5.63
-7.32
-9.42
-12.23
-15.96
-20.61
-25.87
-31.12
-35.42
-37.79
-37.53
-34.50
-29.21
-22.66
-15.92
-9.81
-4.67
-0.42
3.10
5.90
7.74
8.17
6.91
3.98
-0.18
-4.82
-9.19
-12.79
-15.56
-17.93
-20.63
-24.29
-29.23
-35.21
-41.50
-47.22
-51.78
-55.12
-57.83
-60.88
-65.12
-70.92
-78.03
-85.80
-93.39
-100.05
-105.13
-107.98
-108.15
-105.65
-101.19
