1556167074.00
64.000000
-0.00
-0.00
-0.00
-0.00
-0.00
-0.00
-0.00
-0.00
-0.00
-0.00
0.00
0.01
0.01
-0.00
-0.03
-0.05
-0.05
0.00
0.13
0.36
0.66
1.01
1.37
1.72
2.06
2.40
2.79
3.24
3.80
4.42
5.06
5.66
6.20
6.68
7.15
7.68
8.31
9.14
10.09
11.04
11.88
12.56
13.14
13.76
14.65
15.96
17.91
20.32
22.90
25.38
27.58
29.57
31.68
34.32
37.81
42.54
48.15
54.10
59.83
64.97
69.58
74.14
79.34
85.71
93.76
103.00
112.62
121.73
129.77
136.75
143.30
150.75
157.77
166.64
177.95
191.79
206.97
220.57
228.25
225.36
208.53
176.87
132.76
80.05
23.07
-34.94
-92.44
-149.16
-205.23
-260.37
-313.74
-363.87
-409.83
-450.91
-486.50
-515.74
-537.23
-549.22
-549.96
-538.37
-514.21
-478.67
-433.88
-382.45
-327.02
-269.84
-212.63
-156.66
-102.95
-52.37
-5.90
35.58
71.43
101.35
125.50
144.38
158.69
169.15
176.37
180.75
182.59
182.10
179.54
175.25
169.61
163.06
155.93
148.51
140.96
133.34
125.69
118.02
110.37
102.80
95.37
88.15
81.22
74.60
68.32
62.36
56.69
51.27
46.08
41.12
36.44
32.12
28.20
24.71
21.56
18.65
15.85
13.08
10.35
7.78
5.55
3.79
2.56
1.70
0.96
0.04
-1.24
-2.86
-4.58
-6.04
-6.92
-7.15
-6.94
-6.73
-6.99
-8.03
-9.77
-11.81
-13.59
-14.65
-14.85
-14.42
-13.85
-13.67
-14.27
-15.88
-18.57
-22.12
-25.85
-28.40
-28.07
-23.41
-14.03
-1.15
12.68
24.49
32.16
35.17
34.63
32.37
29.96
28.05
26.37
24.36
21.81
19.09
16.89
15.79
15.81
16.47
17.00
16.69
15.28
13.00
10.46
8.34
7.07
6.69
6.82
6.97
6.70
5.95
4.91
3.92
3.16
2.58
2.01
1.40
1.04
1.42
2.94
5.55
8.72
11.64
13.66
14.61
14.81
14.76
14.80
14.91
14.76
14.00
12.55
10.64
8.67
6.96
5.56
4.28
2.86
0.96
-1.57
-4.60
-7.83
-10.88
-13.37
-15.12
-16.16
-16.60
-16.58
-16.17
-15.39
-14.34
-13.25
-12.41
-11.99
-11.98
-12.10
-12.03
-11.59
-10.86
-10.24
-10.11
-10.67
-11.77
-12.88
-13.33
-12.48
-9.99
-5.92
-0.77
4.63
9.33
12.59
14.09
14.01
12.94
11.54
10.29
9.31
8.45
7.46
6.27
5.01
3.97
3.36
3.18
3.28
3.38
3.32
3.11
2.92
2.94
3.25
3.80
4.40
4.84
4.99
4.75
4.04
2.76
0.80
-1.91
-5.10
-8.38
-11.37
-13.72
-15.33
-16.36
-17.19
-18.35
-20.26
-23.11
-26.73
-30.53
-33.57
-34.88
-33.70
-29.78
-23.40
-15.32
-6.48
2.20
10.06
16.75
22.11
26.10
28.78
30.22
30.58
30.08
28.97
27.55
26.13
24.89
23.92
23.14
22.38
21.47
20.28
18.83
17.20
15.51
13.85
12.19
10.42
8.38
5.99
3.25
0.27
-2.80
-5.83
-8.78
-11.65
-14.45
-17.14
-19.67
-22.03
-24.35
-26.96
-30.19
-34.22
-38.86
-43.39
-46.81
-48.05
-46.41
-41.80
-34.77
-26.26
-17.35
-8.86
-1.25
5.36
11.00
15.73
19.51
22.25
23.91
24.57
24.49
23.94
23.16
22.27
21.28
20.12
18.77
17.30
15.85
14.58
13.56
12.77
12.06
11.19
9.93
8.09
5.55
2.36
-1.30
-5.14
-8.82
-12.07
-14.76
-16.98
-18.98
-21.15
-23.89
-27.53
-32.15
-37.50
-42.94
-47.51
-50.13
-49.97
-46.68
-40.49
-32.15
-22.65
-12.90
-3.62
4.81
12.22
18.59
23.93
28.23
31.43
33.50
34.45
34.37
33.48
32.06
30.38
28.63
26.94
25.34
23.89
22.62
21.56
20.64
19.67
18.44
16.75
14.48
11.68
8.44
4.89
1.15
-2.67
-6.44
-10.10
-13.63
-17.08
-20.63
-24.48
-28.80
-33.69
-39.05
-44.58
-49.67
-53.48
-55.01
-53.47
-48.51
-40.46
-30.30
-19.34
-8.77
0.65
8.76
15.84
22.19
27.94
32.88
36.66
39.00
39.89
39.66
38.76
37.65
36.58
35.59
34.55
33.29
31.72
29.83
27.72
25.52
23.32
21.21
19.14
17.01
14.66
11.94
8.77
5.22
1.47
-2.30
-5.92
-9.38
-12.76
-16.26
-20.05
-24.33
-29.20
-34.65
-40.41
-45.90
-50.25
-52.46
-51.74
-47.72
-40.64
-31.24
-20.58
-9.73
0.47
9.53
17.24
23.59
28.64
32.37
34.77
35.83
35.66
34.61
33.14
31.71
30.63
29.90
29.26
28.36
27.04
25.37
23.62
22.09
20.86
19.73
18.30
16.21
13.33
9.86
6.19
2.66
-0.61
-3.77
-7.05
-10.60
-14.36
-18.14
-21.78
-25.33
-29.10
-33.43
-38.40
-43.63
-48.20
-50.98
-50.99
-47.74
-41.44
-32.91
-23.23
-13.45
-4.29
3.92
11.15
17.48
22.92
27.34
30.55
32.39
32.90
32.35
31.12
29.65
28.21
26.87
25.56
24.16
22.62
21.05
19.62
18.48
17.60
16.75
15.55
13.66
10.93
7.49
3.66
-0.14
-3.60
-6.57
-9.11
-11.43
-13.78
-16.42
-19.57
-23.34
-27.75
-32.60
-37.41
-41.46
-43.88
-43.87
-41.00
-35.40
-27.74
-19.03
-10.33
-2.33
4.70
10.84
16.25
20.99
24.90
27.78
29.50
30.15
30.02
29.44
28.67
27.80
26.83
25.78
24.69
23.66
22.80
22.11
21.51
20.79
19.75
18.23
16.17
13.59
10.62
7.43
4.26
1.29
-1.35
-3.65
-5.67
-7.48
-9.12
-10.59
-11.98
-13.51
-15.57
-18.54
-22.48
-26.99
-31.08
-33.56
-33.41
-30.26
-24.53
-17.22
-9.54
-2.39
3.77
8.92
13.26
16.96
19.98
22.20
23.51
23.92
23.63
22.90
21.94
20.85
19.55
17.95
15.96
13.61
10.99
8.20
5.31
2.31
-0.83
-4.10
-7.46
-10.84
-14.22
-17.64
-21.17
-24.86
-28.66
-32.38
-35.78
-38.63
-40.87
-42.63
-44.18
-45.81
-47.73
-50.01
-52.43
-54.58
-55.82
-55.45
-52.88
-47.87
-40.58
-31.66
-21.92
-12.20
-3.07
5.12
12.26
18.26
23.06
26.64
29.09
30.62
31.51
31.95
32.04
31.82
31.36
30.78
30.24
29.83
29.50
29.13
28.58
27.80
26.83
25.66
24.20
22.27
19.71
16.51
12.90
9.22
5.83
2.89
0.37
-1.91
-4.14
-6.48
-9.05
-11.99
-15.45
-19.52
-24.05
-28.59
-32.33
-34.45
-34.28
-31.67
-26.96
-20.84
-14.12
-7.46
-1.23
4.43
9.50
13.95
17.69
20.62
22.67
23.85
24.31
24.26
23.99
23.73
23.61
23.60
23.48
23.01
22.03
20.57
18.80
16.93
15.10
13.28
11.36
9.19
6.77
4.17
1.50
-1.14
-3.72
-6.31
-8.92
-11.58
-14.26
-16.95
-19.68
-22.57
-25.77
-29.34
-33.20
-36.95
-39.98
-41.53
-40.95
-37.94
-32.69
-25.82
-18.16
-10.54
-3.49
2.76
8.18
12.76
16.42
19.02
20.47
20.91
20.64
20.13
19.75
19.68
19.86
20.05
19.97
19.46
18.48
17.13
15.60
14.03
12.57
11.30
10.20
9.12
7.84
6.04
3.56
0.41
-3.11
-6.56
-9.59
-12.09
-14.29
-16.58
-19.34
-22.78
-26.83
-31.28
-35.74
-39.73
-42.66
-43.83
-42.68
-38.97
-32.95
-25.38
-17.27
-9.49
-2.52
3.52
8.74
13.15
16.59
18.87
19.89
19.84
19.16
18.35
17.78
17.57
17.58
17.54
17.19
16.43
15.28
13.95
12.69
11.68
10.96
10.36
9.54
8.16
5.98
3.07
-0.31
-3.80
-7.12
-10.18
-13.12
-16.21
-19.69
-23.67
-28.03
-32.39
-36.19
-38.79
-39.60
-38.25
-34.65
-29.05
-21.98
-14.13
-6.21
1.19
7.71
13.19
17.65
21.18
23.79
25.48
26.23
26.14
25.45
24.50
23.62
22.99
22.52
21.95
21.02
19.70
18.18
16.82
15.94
15.48
15.05
14.03
11.94
8.68
4.67
0.60
-2.91
-5.58
-7.62
-9.51
-11.76
-14.68
-18.32
-22.55
-27.19
-31.96
-36.43
-39.92
-41.65
-40.89
-37.34
-31.27
-23.46
-14.95
-6.64
0.90
7.49
13.21
18.13
22.25
25.46
27.61
28.70
28.90
28.54
27.95
27.40
26.94
26.45
25.74
24.63
23.14
21.46
19.83
18.41
17.19
15.95
14.36
12.16
9.31
5.97
2.49
-0.78
-3.67
-6.18
-8.52
-10.98
-13.85
-17.36
-21.59
-26.48
-31.69
-36.66
-40.58
-42.68
-42.36
-39.46
-34.23
-27.27
-19.36
-11.29
-3.69
2.97
8.46
12.72
15.86
18.06
19.52
20.39
20.80
20.87
20.75
20.59
20.45
20.27
19.86
19.05
17.78
16.23
14.70
13.47
12.64
11.99
11.12
9.61
7.23
4.06
0.49
-3.00
-6.03
-8.49
-10.56
-12.62
-15.09
-18.24
-22.15
-26.68
-31.49
-36.04
-39.64
-41.55
-41.14
-38.13
-32.76
-25.74
-18.04
-10.52
-3.69
2.41
7.99
13.22
17.96
21.84
24.38
25.35
24.92
23.59
22.01
20.62
19.57
18.74
17.88
16.84
15.63
14.33
13.05
11.78
10.41
8.78
6.80
4.49
1.97
-0.62
-3.18
-5.70
-8.22
-10.84
-13.59
-16.51
-19.63
-23.08
-27.00
-31.47
-36.33
-41.07
-44.83
-46.61
-45.59
-41.49
-34.68
-26.11
-16.94
-8.17
-0.36
6.43
12.40
17.69
22.27
25.87
28.26
29.38
29.48
29.05
28.53
28.19
28.03
27.85
27.43
26.65
25.56
24.33
23.12
22.01
20.83
19.33
17.19
14.26
10.59
6.44
2.21
-1.78
-5.34
-8.48
-11.36
-14.22
-17.28
-20.79
-24.91
-29.71
-35.06
-40.50
-45.26
-48.42
-49.12
-46.89
-41.75
-34.23
-25.18
-15.56
-6.17
2.46
10.05
16.51
21.79
25.83
28.56
29.99
30.20
29.46
28.20
26.85
25.77
25.04
24.51
23.89
22.90
21.48
19.79
18.08
16.55
15.17
13.66
11.66
8.87
5.24
0.98
-3.48
-7.72
-11.45
-14.66
-17.54
-20.43
-23.64
-27.35
-31.67
-36.58
-41.95
-47.44
-52.37
-55.80
-56.70
-54.35
-48.61
-40.04
-29.74
-18.91
-8.53
0.87
9.12
16.25
22.27
27.09
30.61
32.83
33.97
34.39
34.43
34.33
34.14
33.72
32.94
31.72
30.15
28.42
26.71
25.07
23.39
21.46
19.04
15.94
12.11
7.65
2.77
-2.20
-6.94
-11.24
-15.06
-18.58
-22.12
-25.99
-30.41
-35.45
-40.94
-46.44
-51.25
-54.42
-54.96
-52.11
-45.67
-36.17
-24.74
-12.72
-1.19
9.22
18.39
26.37
33.13
38.41
41.84
43.29
43.02
41.65
39.98
38.64
37.83
37.35
36.75
35.64
33.83
31.49
28.91
26.45
24.28
22.40
20.61
18.63
16.18
13.08
9.29
4.97
0.40
-4.08
-8.22
-11.96
-15.41
-18.85
-22.55
-26.78
-31.66
-37.14
-42.86
-48.08
-51.79
-52.85
-50.43
-44.28
-34.97
-23.67
-11.74
-0.30
10.09
19.30
27.40
34.31
39.74
43.31
44.84
44.54
43.00
40.97
39.02
37.45
36.21
35.06
33.76
32.19
30.35
28.30
26.13
23.86
21.47
18.94
16.19
13.17
9.83
6.20
2.33
-1.66
-5.63
-9.40
-12.89
-16.06
-19.05
-22.10
-25.55
-29.72
-34.70
-40.25
-45.75
-50.20
-52.51
-51.78
-47.59
-40.18
-30.42
-19.56
-8.87
0.75
8.93
15.71
21.31
25.87
29.28
31.34
31.95
31.33
30.00
28.62
27.68
27.30
27.22
27.01
26.30
25.00
23.28
21.44
19.70
18.09
16.44
14.48
11.97
8.86
5.37
1.83
-1.37
-4.02
-6.23
-8.40
-11.05
-14.61
-19.26
-24.85
-31.00
-37.10
-42.50
-46.48
-48.29
-47.29
-43.20
-36.20
-27.00
-16.65
-6.22
3.53
12.21
19.79
26.27
31.59
35.51
37.80
38.44
37.76
36.40
35.09
34.40
34.44
34.86
35.08
34.57
33.09
30.75
27.85
24.69
21.34
17.68
13.54
8.91
3.97
-0.94
-5.48
-9.39
-12.63
-15.29
-17.56
-19.69
-21.90
-24.36
-27.20
-30.35
-33.56
-36.30
-37.90
-37.67
-35.13
-30.26
-23.50
-15.76
-8.06
-1.23
4.37
8.84
12.60
16.09
19.47
22.58
24.97
26.22
26.04
24.48
21.83
18.54
15.02
11.60
8.48
5.88
3.98
2.98
2.93
3.70
4.88
5.98
6.52
6.23
5.11
3.33
1.22
-0.93
-2.88
-4.56
-6.07
-7.78
-10.22
-13.88
-18.98
-25.21
-31.72
-37.31
-40.82
-41.58
-39.55
-35.33
-29.84
-23.98
-18.39
-13.36
-8.92
-5.02
-1.62
1.28
3.67
5.55
6.94
7.82
8.10
7.73
6.70
5.25
3.82
2.93
3.01
4.14
5.99
7.96
9.44
10.11
9.99
9.32
8.34
7.12
5.49
3.15
-0.12
-4.36
-9.43
-15.04
-20.86
-26.49
-31.45
-35.17
-37.13
-37.00
-34.84
-31.05
-26.26
-21.10
-16.03
-11.31
-7.06
-3.40
-0.50
1.56
2.84
3.59
4.19
4.94
5.99
7.27
8.63
9.96
11.22
12.40
13.44
14.21
14.51
14.22
13.32
11.85
9.85
7.28
4.03
0.06
-4.46
-9.14
-13.49
-17.12
-20.02
-22.50
-25.04
-27.93
-30.97
-33.51
-34.71
-33.90
-30.96
-26.30
-20.69
-14.87
-9.35
-4.28
0.38
4.77
8.95
12.98
16.81
20.40
23.65
26.38
28.41
29.63
30.05
29.75
28.90
27.64
26.08
24.37
22.68
21.23
20.17
19.50
19.03
18.40
17.22
15.20
12.30
8.61
4.37
-0.26
-5.13
-10.09
-14.91
-19.20
-22.54
-24.57
-25.12
-24.22
-22.00
-18.54
-13.87
-7.95
-0.86
7.11
15.47
23.49
30.50
35.97
39.68
41.79
42.70
42.90
42.77
42.35
41.31
39.05
34.97
28.71
20.41
10.66
0.36
-9.59
-18.58
-26.43
-33.40
-40.05
-47.05
-54.93
-63.96
-73.99
-84.43
-94.28
-102.32
-107.42
-108.77
-106.20
-100.15
-91.49
-81.25
-70.27
-59.06
-47.81
-36.53
-25.30
-14.33
-3.98
5.40
13.54
20.35
25.87
30.24
33.65
36.34
38.61
40.74
42.96
45.29
47.58
49.40
50.26
49.69
47.35
43.11
37.01
29.27
20.18
10.02
-0.96
-12.53
-24.34
-35.76
-45.68
-52.77
-55.74
-53.92
-47.61
-37.99
-26.75
-15.42
-4.93
4.54
13.24
21.42
29.02
35.60
40.63
43.73
44.87
44.39
42.75
40.41
37.62
34.44
30.76
26.42
21.33
15.56
9.39
3.29
-2.31
-7.11
-11.17
-14.87
-18.79
-23.49
-29.40
-36.62
-45.08
-54.35
-63.64
-71.70
-76.99
-78.04
-73.95
-64.85
-51.93
-37.07
-22.21
-8.65
3.20
13.62
23.16
32.11
40.28
47.09
51.93
54.48
54.87
53.55
51.07
47.86
44.16
40.05
35.63
31.05
26.44
21.88
17.33
12.67
7.82
2.77
-2.41
-7.66
-13.04
-18.72
-24.99
-32.17
-40.39
-49.52
-58.93
-67.45
-73.48
-75.42
-72.12
-63.40
-50.20
-34.25
-17.58
-1.81
12.19
24.30
34.87
44.28
52.69
59.94
65.71
69.71
71.77
71.93
70.38
67.43
63.46
58.86
54.01
49.21
44.60
40.11
35.53
30.63
25.27
19.51
13.55
7.61
1.82
-3.82
-9.39
-14.99
-20.83
-27.20
-34.43
-42.66
-51.48
-59.70
-65.52
-67.04
-62.99
-53.34
-39.32
-23.05
-6.68
8.20
20.93
31.48
40.21
47.36
53.01
57.16
59.86
61.29
61.68
61.15
59.67
57.12
53.41
48.68
43.32
37.90
32.89
28.52
24.70
21.05
17.15
12.69
7.60
2.08
-3.56
-9.01
-14.07
-18.79
-23.46
-28.56
-34.66
-42.10
-50.71
-59.68
-67.54
-72.51
-73.04
-68.31
-58.52
-44.88
-29.12
-13.03
2.04
15.37
26.71
36.09
43.58
49.24
53.15
55.47
56.45
56.36
55.38
53.64
51.11
47.80
43.74
39.10
34.18
29.35
25.01
21.37
18.40
15.72
12.76
8.98
4.13
-1.60
-7.66
-13.39
-18.32
-22.40
-26.04
-29.95
-34.85
-41.19
-48.85
-57.10
-64.64
-69.88
-71.32
-67.99
-59.80
-47.55
-32.78
-17.26
-2.57
10.25
20.85
29.36
36.09
41.34
45.26
47.88
49.18
49.27
48.36
46.66
44.35
41.51
38.19
34.54
30.86
27.57
25.02
23.32
22.19
21.07
19.26
16.23
11.77
6.06
-0.45
-7.24
-13.88
-20.18
-26.15
-32.05
-38.22
-44.93
-52.16
-59.43
-65.70
-69.61
-69.84
-65.59
-56.96
-44.93
-31.14
-17.23
-4.50
6.40
15.33
22.38
27.67
31.15
32.83
32.86
31.63
29.69
27.50
25.29
23.01
20.44
17.37
13.87
10.26
7.04
4.68
3.38
2.94
2.82
2.40
1.18
-0.98
-3.87
-7.04
-10.06
-12.69
-15.01
-17.35
-20.12
-23.77
-28.55
-34.44
-40.96
-47.15
-51.71
-53.27
-50.94
-44.55
-34.77
-22.91
-10.43
1.43
11.95
20.83
28.10
33.91
38.39
41.65
43.79
44.91
45.11
44.44
42.97
40.80
38.05
34.92
31.60
28.28
25.11
22.25
19.76
17.68
15.90
14.17
12.17
9.60
6.35
2.52
-1.62
-5.73
-9.56
-13.04
-16.26
-19.41
-22.74
-26.49
-30.84
-35.82
-41.19
-46.27
-50.06
-51.44
-49.52
-44.04
-35.53
-25.06
-14.01
-3.59
5.46
12.93
18.94
23.75
27.54
30.32
32.01
32.57
32.05
30.71
28.87
26.86
24.87
22.93
20.95
18.91
16.88
15.00
13.45
12.23
11.14
9.87
8.11
5.73
2.77
-0.52
-3.91
-7.14
-10.10
-12.72
-15.06
-17.29
-19.68
-22.65
-26.56
-31.48
-37.03
-42.31
-46.14
-47.36
-45.32
-40.07
-32.35
-23.29
-14.02
-5.40
2.08
8.22
12.98
16.34
18.36
19.18
19.09
18.49
17.71
16.96
16.25
15.46
14.44
13.16
11.70
10.25
9.03
8.14
7.54
7.08
6.50
5.58
4.16
2.20
-0.27
-3.09
-6.02
-8.83
-11.34
-13.51
-15.47
-17.49
-19.88
-22.92
-26.69
-30.98
-35.22
-38.59
-40.15
-39.24
-35.67
-29.83
-22.59
-14.92
-7.59
-0.92
5.05
10.43
15.14
18.90
21.38
22.45
22.31
21.46
20.45
19.63
19.02
18.32
17.16
15.31
12.83
10.07
7.44
5.23
3.51
2.07
0.59
-1.25
-3.62
-6.54
-9.81
-13.20
-16.47
-19.43
-22.02
-24.25
-26.24
-28.15
-30.22
-32.64
-35.40
-38.26
-40.63
-41.74
-40.86
-37.61
-32.11
-24.96
-17.03
-9.16
-1.91
4.51
10.08
14.87
18.83
21.86
23.84
24.79
24.89
24.41
23.63
22.68
21.56
20.12
18.25
15.99
13.57
11.35
9.65
8.61
8.03
7.49
6.42
4.37
1.13
-3.17
-8.08
-13.01
-17.38
-20.78
-23.12
-24.61
-25.71
-26.96
-28.89
-31.74
-35.37
-39.19
-42.24
-43.46
-42.01
-37.57
-30.52
-21.78
-12.54
-3.89
3.52
9.48
14.19
17.95
21.02
23.49
25.26
26.27
26.52
26.13
25.34
24.40
23.43
22.43
21.25
19.74
17.88
15.79
13.72
11.93
10.49
9.24
7.82
5.87
3.18
-0.11
-3.67
-7.10
-10.13
-12.78
-15.33
-18.16
-21.63
-25.86
-30.73
-35.88
-40.66
-44.27
-45.87
-44.77
-40.68
-33.88
-25.12
-15.45
-5.89
2.82
10.31
16.50
21.46
25.22
27.77
29.11
29.31
28.59
27.22
25.46
23.41
21.07
18.37
15.40
12.41
9.80
7.91
6.83
6.32
5.87
4.96
3.28
0.81
-2.22
-5.49
-8.81
-12.11
-15.38
-18.68
-22.06
-25.72
-29.94
-35.03
-41.09
-47.71
-53.90
-58.26
-59.42
-56.55
-49.62
-39.42
-27.24
-14.44
-2.12
9.01
18.59
26.48
32.67
37.25
40.33
42.10
42.72
42.32
41.08
39.16
36.79
34.18
31.48
28.78
26.10
23.42
20.76
18.19
15.72
13.30
10.71
7.64
3.85
-0.75
-6.01
-11.54
-16.87
-21.68
-25.88
-29.79
-33.97
-39.04
-45.42
-53.08
-61.33
-68.89
-74.19
-75.75
-72.70
-65.02
-53.59
-39.87
-25.42
-11.48
1.24
12.50
22.22
30.28
36.46
40.57
42.61
42.96
42.19
40.92
39.46
37.82
35.78
33.15
29.98
26.64
23.66
21.47
20.19
19.51
18.79
17.32
14.52
10.23
4.70
-1.47
-7.62
-13.24
-18.19
-22.71
-27.22
-32.24
-38.18
-45.25
-53.40
-62.11
-70.32
-76.54
-79.12
-76.76
-69.05
-56.57
-40.79
-23.54
-6.49
9.21
23.00
34.67
44.17
51.43
56.32
58.84
59.15
57.68
55.04
51.81
48.51
45.36
42.41
39.60
36.94
34.50
32.46
30.85
29.54
28.08
25.90
22.44
17.42
11.02
3.78
-3.53
-10.21
-15.90
-20.75
-25.29
-30.32
-36.59
-44.52
-53.94
-63.96
-72.98
-79.02
-80.23
-75.38
-64.39
-48.33
-29.14
-9.05
10.08
27.06
41.42
53.11
62.19
68.67
72.55
73.92
73.15
70.81
67.60
64.05
60.47
56.94
53.38
49.77
46.17
42.75
39.72
37.16
35.00
32.95
30.52
27.16
22.45
16.29
9.01
1.27
-6.15
-12.68
-18.23
-23.17
-28.20
-34.07
-41.28
-49.87
-59.29
-68.42
-75.64
-79.24
-77.72
-70.36
-57.47
-40.36
-21.06
-1.66
16.22
31.64
44.39
54.63
62.60
68.42
72.07
73.55
73.09
71.17
68.39
65.31
62.22
59.09
55.66
51.69
47.13
42.30
37.70
33.83
30.86
28.53
26.23
23.21
18.94
13.31
6.68
-0.29
-6.93
-12.84
-18.00
-22.69
-27.38
-32.52
-38.47
-45.40
-53.26
-61.61
-69.45
-75.30
-77.41
-74.33
-65.54
-51.70
-34.53
-16.23
1.20
16.48
29.17
39.32
47.12
52.66
55.90
56.89
55.99
53.79
51.03
48.25
45.69
43.25
40.71
37.88
34.81
31.76
29.05
26.87
25.16
23.56
21.61
18.84
15.02
10.20
4.72
-0.91
-6.17
-10.72
-14.54
-17.92
-21.40
-25.57
-30.94
-37.71
-45.62
-53.93
-61.43
-66.63
-68.11
-64.93
-56.94
-44.96
-30.55
-15.56
-1.61
10.34
20.05
27.79
33.97
38.84
42.40
44.52
45.16
44.53
43.01
41.08
39.06
37.08
35.04
32.81
30.33
27.71
25.20
23.07
21.44
20.17
18.91
17.16
14.47
10.66
5.88
0.56
-4.73
-9.55
-13.68
-17.23
-20.50
-23.85
-27.62
-32.06
-37.30
-43.23
-49.37
-54.82
-58.36
-58.74
-55.19
-47.76
-37.31
-25.32
-13.34
-2.51
6.64
14.14
20.29
25.31
29.19
31.75
32.87
32.68
31.58
30.13
28.82
27.87
27.16
26.39
25.22
23.54
21.41
19.14
16.97
15.07
13.42
11.91
10.41
8.71
6.68
4.19
1.20
-2.23
-5.97
-9.81
-13.57
-17.16
-20.56
-23.81
-27.07
-30.50
-34.33
-38.66
-43.31
-47.73
-51.00
-52.09
-50.21
-45.19
-37.54
-28.35
-18.84
-9.97
-2.31
4.06
9.26
13.41
16.51
18.49
19.38
19.32
18.63
17.68
16.76
16.05
15.53
15.10
14.66
14.09
13.36
12.44
11.38
10.23
9.04
7.80
6.45
4.84
2.82
0.34
-2.55
-5.63
-8.62
-11.32
-13.71
-15.93
-18.23
-20.88
-24.01
-27.68
-31.79
-36.14
-40.36
-43.90
-46.04
-46.09
-43.63
-38.67
-31.72
-23.59
-15.21
-7.27
-0.23
5.78
10.74
14.71
17.78
20.04
21.56
22.45
22.80
22.70
22.27
21.66
21.01
20.44
19.95
19.48
18.88
18.02
16.82
15.33
13.59
11.74
9.90
8.09
6.26
4.30
2.07
-0.47
-3.28
-6.19
-9.02
-11.61
-13.96
-16.20
-18.55
-21.25
-24.45
-28.23
-32.46
-36.79
-40.57
-43.00
-43.28
-40.88
-35.79
-28.59
-20.29
-11.97
-4.46
1.88
7.12
11.56
15.43
18.74
21.31
22.90
23.45
23.11
22.25
21.20
20.21
19.33
18.45
17.54
16.63
15.87
15.42
15.26
15.16
14.77
13.75
12.03
9.73
7.13
4.49
1.92
-0.63
-3.28
-6.09
-8.97
-11.75
-14.28
-16.52
-18.59
-20.69
-23.07
-25.92
-29.33
-33.26
-37.45
-41.39
-44.34
-45.48
-44.14
-40.07
-33.50
-25.18
-16.08
-7.17
0.86
7.68
13.29
17.86
21.66
24.85
27.53
29.67
31.20
32.03
32.12
31.50
30.29
28.71
26.95
25.23
23.66
22.25
20.90
19.46
17.77
15.72
13.28
10.46
7.35
4.01
0.50
-3.20
-7.09
-11.23
-15.54
-19.91
-24.16
-28.12
-31.73
-35.00
-38.10
-41.24
-44.67
-48.62
-53.21
-58.30
-63.45
-67.91
-70.72
-71.07
-68.55
-63.32
-56.02
-47.58
-38.85
-30.47
-22.79
-15.93
-9.85
-4.46
0.34
4.64
8.43
11.68
14.39
16.67
18.76
20.96
23.46
26.27
29.16
31.76
33.77
35.07
35.73
35.90
35.68
35.03
33.80
31.87
29.25
26.09
22.64
19.10
15.54
11.87
7.97
3.77
-0.67
-5.16
-9.52
-13.65
-17.66
-21.82
-26.49
-31.82
-37.62
-43.26
-47.68
-49.79
-48.80
-44.59
-37.73
-29.27
-20.32
-11.62
-3.48
4.10
11.18
17.63
23.13
27.37
30.27
32.00
32.89
33.29
33.39
33.26
32.86
32.23
31.42
30.54
29.67
28.86
28.03
27.09
25.90
24.36
22.43
20.16
17.67
15.06
12.41
9.70
6.85
3.75
0.33
-3.37
-7.24
-11.08
-14.73
-18.11
-21.30
-24.55
-28.26
-32.80
-38.38
-44.91
-51.85
-58.27
-63.05
-65.13
-63.80
-58.90
-50.87
-40.59
-29.16
-17.61
-6.70
3.14
11.74
19.11
25.31
30.35
34.24
36.95
38.52
39.05
38.72
37.78
36.48
35.05
33.67
32.42
31.36
30.51
29.85
29.28
28.56
27.44
25.69
23.26
20.30
17.06
13.77
10.48
7.09
3.38
-0.79
-5.40
-10.29
-15.18
-19.84
-24.16
-28.17
-32.00
-35.93
-40.28
-45.44
-51.63
-58.68
-65.88
-71.95
-75.30
-74.61
-69.24
-59.55
-46.78
-32.59
-18.56
-5.74
5.41
14.94
23.09
30.04
35.89
40.64
44.27
46.81
48.31
48.89
48.68
47.91
46.79
45.52
44.24
43.04
41.94
40.89
39.77
38.36
36.39
33.69
30.26
26.37
22.37
18.57
15.02
11.52
7.70
3.31
-1.65
-6.90
-12.09
-16.96
-21.53
-26.03
-30.81
-36.19
-42.35
-49.23
-56.42
-63.11
-68.06
-69.90
-67.50
-60.43
-49.17
-35.04
-19.74
-4.87
8.49
19.86
29.23
36.79
42.74
47.23
50.42
52.47
53.56
53.83
53.40
52.38
50.90
49.16
47.36
45.69
44.24
43.01
41.92
40.83
39.54
37.78
35.34
32.09
28.12
23.73
19.27
15.05
11.12
7.31
3.32
-1.08
-5.89
-10.90
-15.79
-20.33
-24.45
-28.30
-32.22
-36.56
-41.66
-47.59
-54.06
-60.24
-64.88
-66.53
-64.08
-57.14
-46.22
-32.64
-18.03
-3.89
8.81
19.59
28.37
35.24
40.32
43.76
45.80
46.74
46.92
46.61
46.00
45.17
44.09
42.70
40.95
38.85
36.50
34.13
31.97
30.16
28.64
27.13
25.28
22.81
19.65
15.99
12.16
8.46
5.04
1.82
-1.42
-4.95
-8.90
-13.24
-17.75
-22.14
-26.21
-29.96
-33.58
-37.44
-41.86
-47.03
-52.75
-58.43
-63.07
-65.47
-64.54
-59.72
-51.22
-40.05
-27.71
-15.71
-5.13
3.62
10.70
16.54
21.50
25.71
29.06
31.39
32.64
32.90
32.43
31.48
30.24
28.84
27.35
25.88
24.54
23.47
22.72
22.21
21.80
21.25
20.43
19.28
17.81
16.01
13.86
11.31
8.34
5.00
1.48
-2.05
-5.43
-8.63
-11.76
-14.96
-18.39
-22.20
-26.52
-31.47
-36.98
-42.71
-47.95
-51.67
-52.84
-50.76
-45.36
-37.25
-27.46
-17.16
-7.26
1.68
9.46
16.07
21.60
26.11
29.67
32.31
34.05
34.91
34.93
34.22
33.01
31.54
30.06
28.69
27.52
26.56
25.81
25.20
24.60
23.75
22.38
20.30
17.59
14.53
11.51
8.81
6.45
4.19
1.61
-1.60
-5.52
-9.89
-14.28
-18.23
-21.43
-23.92
-26.02
-28.30
-31.25
-35.15
-39.84
-44.73
-48.89
-51.37
-51.41
-48.70
-43.40
-36.06
-27.44
-18.29
-9.28
-0.93
6.35
12.32
16.93
20.29
22.68
24.43
25.75
26.72
27.29
27.36
26.94
26.16
25.23
24.37
23.70
23.23
22.86
22.43
21.75
20.62
18.89
16.49
13.55
10.32
7.15
4.38
2.09
0.14
-1.81
-4.08
-6.82
-9.89
-13.01
-15.88
-18.40
-20.72
-23.19
-26.09
-29.60
-33.62
-37.79
-41.44
-43.77
-43.93
-41.32
-35.82
-27.83
-18.30
-8.40
0.81
8.67
15.00
19.98
23.91
27.01
29.26
30.53
30.62
29.51
27.46
24.98
22.77
21.39
21.08
21.70
22.77
23.72
24.10
23.65
22.33
20.22
