1556158049.00
64.000000
-0.00
-0.00
-0.00
-0.00
-0.00
-0.00
-0.00
-0.00
-0.00
-0.00
0.00
0.01
0.01
-0.00
-0.03
-0.05
-0.05
0.00
0.13
0.36
0.66
1.01
1.37
1.72
2.06
2.40
2.79
3.24
3.80
4.42
5.06
5.66
6.20
6.68
7.15
7.68
8.31
9.14
10.09
11.04
11.88
12.56
13.14
13.76
14.65
15.96
17.91
20.32
22.90
25.38
27.58
29.57
31.68
34.32
37.81
42.54
48.15
54.10
59.83
64.97
69.58
74.14
79.34
85.71
93.76
103.00
112.62
121.73
129.77
136.75
143.30
150.75
157.77
166.64
177.95
191.79
206.97
220.57
228.25
225.36
208.53
176.87
132.76
80.05
23.07
-34.94
-92.44
-149.16
-205.23
-260.37
-313.74
-363.87
-409.83
-450.91
-486.50
-515.74
-537.23
-549.22
-549.96
-538.37
-514.21
-478.67
-433.88
-382.45
-327.02
-269.84
-212.63
-156.66
-102.95
-52.37
-5.90
35.58
71.43
101.35
125.50
144.38
158.69
169.15
176.37
180.75
182.57
182.07
179.51
175.23
169.65
163.18
156.15
148.81
141.30
133.69
126.02
118.33
110.69
103.16
95.80
88.68
81.82
75.24
68.96
62.97
57.28
51.89
46.79
41.97
37.45
33.22
29.31
25.71
22.44
19.47
16.77
14.32
12.09
10.08
8.29
6.75
5.44
4.37
3.48
2.72
2.04
1.38
0.75
0.17
-0.30
-0.62
-0.79
-0.87
-0.96
-1.18
-1.59
-2.17
-2.80
-3.32
-3.60
-3.61
-3.47
-3.40
-3.63
-4.28
-5.30
-6.47
-7.47
-8.03
-8.09
-7.85
-7.66
-7.91
-8.83
-10.36
-12.15
-13.76
-14.82
-15.20
-15.06
-14.75
-14.68
-15.21
-16.67
-19.26
-22.86
-26.70
-29.33
-28.88
-23.86
-13.95
-0.49
13.91
26.31
34.58
38.15
37.86
35.28
31.81
28.16
24.41
20.42
16.24
12.23
8.83
6.31
4.66
3.70
3.28
3.50
4.70
7.23
11.12
16.02
21.17
25.63
28.71
30.12
30.12
29.35
28.53
28.12
28.17
28.33
28.07
26.92
24.77
21.85
18.68
15.63
12.91
10.10
6.74
2.55
-2.32
-7.24
-11.48
-14.56
-16.50
-17.86
-19.33
-21.31
-23.70
-26.01
-27.69
-28.42
-28.33
-27.82
-27.27
-26.81
-26.28
-25.52
-24.45
-23.31
-22.30
-21.42
-20.26
-18.17
-14.59
-9.42
-3.17
3.14
8.47
12.05
13.72
13.76
12.78
11.36
9.93
8.61
7.35
6.01
4.51
2.91
1.36
0.06
-0.93
-1.69
-2.43
-3.32
-4.37
-5.38
-6.07
-6.37
-6.41
-6.59
-7.30
-8.70
-10.64
-12.74
-14.54
-15.73
-16.18
-15.98
-15.61
-15.47
-15.94
-17.28
-19.65
-23.05
-27.26
-31.77
-35.77
-38.25
-38.19
-34.88
-28.19
-18.64
-7.33
4.39
15.23
24.27
31.02
35.52
38.11
39.27
39.51
39.29
38.90
38.50
38.17
37.92
37.79
37.70
37.46
36.80
35.48
33.45
30.94
28.41
26.31
24.81
23.71
22.41
20.28
16.93
12.46
7.42
2.56
-1.54
-4.71
-7.26
-9.85
-13.07
-17.34
-22.74
-29.09
-36.06
-43.14
-49.66
-54.73
-57.39
-56.90
-53.01
-46.12
-37.21
-27.47
-17.93
-9.23
-1.61
4.89
10.28
14.50
17.55
19.50
20.63
21.33
22.00
22.86
23.90
24.81
25.17
24.67
23.29
21.40
19.58
18.35
17.86
17.78
17.45
16.24
13.89
10.60
6.89
3.33
0.23
-2.48
-5.14
-8.17
-11.93
-16.61
-22.30
-28.83
-35.81
-42.50
-47.94
-51.17
-51.48
-48.68
-43.07
-35.33
-26.31
-16.81
-7.46
1.28
8.97
15.27
19.83
22.51
23.42
22.96
21.79
20.58
19.79
19.58
19.73
19.86
19.62
18.93
17.95
16.94
16.09
15.36
14.56
13.43
11.81
9.66
7.05
4.07
0.81
-2.72
-6.46
-10.30
-14.12
-17.82
-21.39
-24.89
-28.37
-31.75
-34.73
-36.85
-37.62
-36.66
-33.87
-29.38
-23.59
-17.00
-10.11
-3.39
2.74
7.90
11.76
14.08
14.77
14.09
12.56
10.92
9.84
9.73
10.56
12.00
13.66
15.25
16.79
18.45
20.36
22.47
24.51
26.10
26.97
26.99
26.13
24.48
22.09
19.09
15.65
12.00
8.31
4.61
0.75
-3.47
-8.08
-12.77
-16.81
-19.28
-19.42
-16.93
-12.12
-5.80
1.04
7.48
12.96
17.27
20.47
22.76
24.36
25.41
25.99
26.06
25.52
24.27
22.27
19.64
16.63
13.57
10.77
8.48
6.86
5.95
5.67
5.80
5.98
5.82
5.03
3.49
1.23
-1.67
-5.15
-9.25
-14.08
-19.62
-25.68
-31.78
-37.19
-41.03
-42.48
-40.91
-36.13
-28.48
-18.85
-8.45
1.44
9.83
16.27
20.80
23.83
25.88
27.31
28.24
28.54
28.03
26.57
24.29
21.52
18.77
16.58
15.34
15.23
16.14
17.75
19.56
21.05
21.83
21.76
20.91
19.57
18.08
16.66
15.36
14.05
12.51
10.50
7.88
4.77
1.55
-1.05
-2.18
-1.03
2.86
9.39
17.89
27.28
36.44
44.48
50.97
55.94
59.79
63.14
66.67
70.86
75.89
81.49
87.01
91.57
94.34
94.76
92.59
87.96
81.25
73.04
64.09
55.22
47.20
40.51
35.05
30.10
24.54
17.27
7.68
-4.10
-17.30
-30.90
-44.07
-56.34
-67.59
-77.74
-86.44
-93.08
-96.92
-97.49
-94.90
-89.81
-83.24
-76.17
-69.20
-62.54
-56.06
-49.62
-43.33
-37.59
-32.93
-29.78
-28.20
-27.90
-28.32
-28.86
-29.14
-29.04
-28.65
-28.17
-27.84
-27.83
-28.25
-29.11
-30.34
-31.78
-33.19
-34.39
-35.36
-36.31
-37.57
-39.42
-41.92
-44.85
-47.80
-50.31
-51.96
-52.41
-51.43
-48.85
-44.66
-39.13
-32.71
-25.96
-19.20
-12.45
-5.49
1.89
9.61
17.21
23.93
29.08
32.29
33.59
33.35
32.00
29.92
27.36
24.47
21.41
18.33
15.38
12.64
10.10
7.66
5.21
2.59
-0.33
-3.57
-7.07
-10.70
-14.39
-18.13
-22.07
-26.36
-31.03
-35.81
-40.14
-43.26
-44.49
-43.50
-40.45
-35.89
-30.61
-25.27
-20.30
-15.84
-11.88
-8.41
-5.50
-3.28
-1.81
-0.96
-0.54
-0.29
-0.06
0.19
0.44
0.63
0.75
0.88
1.09
1.41
1.80
2.15
2.36
2.33
2.01
1.43
0.68
-0.16
-1.01
-1.90
-2.95
-4.39
-6.44
-9.24
-12.82
-17.03
-21.50
-25.62
-28.63
-29.80
-28.66
-25.24
-20.07
-13.99
-7.88
-2.28
2.63
6.93
10.72
14.01
16.64
18.48
19.54
19.98
19.99
19.66
18.91
17.63
15.79
13.52
11.16
9.10
7.62
6.83
6.62
6.72
6.79
6.48
5.52
3.77
1.24
-1.94
-5.54
-9.30
-13.01
-16.51
-19.76
-22.74
-25.45
-27.83
-29.74
-30.83
-30.72
-28.99
-25.50
-20.45
-14.40
-8.12
-2.31
2.56
6.35
9.19
11.32
12.91
14.05
14.73
14.96
14.77
14.23
13.38
12.24
10.84
9.23
7.52
5.89
4.55
3.65
3.21
3.14
3.20
3.03
2.31
0.78
-1.57
-4.55
-7.80
-10.99
-13.93
-16.60
-19.15
-21.69
-24.26
-26.78
-29.06
-30.82
-31.73
-31.43
-29.61
-26.22
-21.51
-16.09
-10.70
-5.94
-2.04
1.15
4.00
6.78
9.46
11.71
13.15
13.49
12.75
11.17
9.11
6.90
4.81
3.05
1.81
1.27
1.50
2.43
3.79
5.14
6.02
6.06
5.13
3.44
1.43
-0.38
-1.67
-2.42
-2.95
-3.66
-4.90
-6.78
-9.22
-12.03
-15.02
-17.95
-20.49
-22.13
-22.30
-20.48
-16.47
-10.45
-2.91
5.44
13.91
21.93
29.07
35.08
39.87
43.47
45.98
47.47
48.01
47.75
46.86
45.65
44.36
43.11
41.80
40.19
38.13
35.70
33.17
30.93
29.14
27.65
26.02
23.74
20.49
16.30
11.49
6.52
1.71
-2.77
-6.95
-10.99
-15.03
-19.22
-23.60
-28.12
-32.58
-36.61
-39.75
-41.52
-41.56
-39.77
-36.28
-31.45
-25.71
-19.45
-13.09
-7.08
-1.92
1.88
4.02
4.57
3.95
2.86
1.98
1.76
2.22
3.08
3.96
4.66
5.20
5.82
6.75
8.04
9.48
10.66
11.23
10.95
9.86
8.18
6.19
4.18
2.31
0.59
-1.03
-2.74
-4.84
-7.64
-11.37
-15.98
-21.04
-25.80
-29.26
-30.55
-29.14
-25.03
-18.67
-10.84
-2.33
6.18
14.19
21.33
27.33
31.88
34.80
36.08
35.90
34.64
32.70
30.42
27.96
25.36
22.61
19.70
16.68
13.70
10.90
8.40
6.25
4.41
2.70
0.82
-1.51
-4.49
-8.10
-12.07
-15.95
-19.27
-21.80
-23.58
-24.96
-26.39
-28.27
-30.78
-33.76
-36.71
-38.86
-39.34
-37.42
-32.73
-25.39
-16.03
-5.53
5.21
15.54
25.11
33.75
41.35
47.71
52.61
55.93
57.79
58.52
58.52
58.13
57.50
56.66
55.61
54.39
53.14
51.95
50.86
49.81
48.68
47.31
45.56
43.33
40.56
37.32
33.74
30.05
26.50
23.28
20.37
17.56
14.36
10.26
4.83
-1.96
-9.63
-17.32
-23.96
-28.70
-31.16
-31.50
-30.22
-27.92
-25.02
-21.75
-18.25
-14.72
-11.54
-9.13
-7.82
-7.64
-8.35
-9.52
-10.76
-11.85
-12.71
-13.36
-13.77
-13.83
-13.33
-12.14
-10.26
-7.90
-5.43
-3.28
-1.81
-1.30
-1.85
-3.41
-5.73
-8.44
-11.10
-13.36
-15.08
-16.34
-17.45
-18.78
-20.65
-23.24
-26.44
-29.85
-32.80
-34.46
-34.12
-31.42
-26.51
-20.02
-12.80
-5.67
0.80
6.37
10.95
14.49
16.89
18.11
18.23
17.55
16.46
15.34
14.37
13.52
12.60
11.42
9.93
8.23
6.51
4.92
3.48
2.04
0.38
-1.67
-4.16
-6.93
-9.75
-12.39
-14.78
-17.00
-19.26
-21.81
-24.81
-28.35
-32.43
-36.92
-41.53
-45.77
-49.02
-50.66
-50.27
-47.75
-43.47
-38.06
-32.26
-26.64
-21.44
-16.48
-11.37
-5.68
0.86
8.31
16.54
25.41
34.77
44.58
54.77
65.21
75.59
85.49
94.46
102.15
108.37
113.03
116.07
117.40
116.82
114.13
109.23
102.11
92.96
82.13
70.04
57.09
43.60
29.79
15.79
1.73
-12.17
-25.54
-37.85
-48.46
-56.74
-62.23
-64.73
-64.39
-61.67
-57.25
-51.89
-46.32
-41.13
-36.70
-33.24
-30.74
-29.11
-28.19
-27.82
-27.84
-28.08
-28.28
-28.15
-27.44
-26.11
-24.39
-22.68
-21.43
-20.82
-20.70
-20.65
-20.19
-19.02
-17.21
-15.12
-13.26
-12.02
-11.57
-11.85
-12.66
-13.81
-15.18
-16.68
-18.37
-20.30
-22.58
-25.27
-28.22
-31.06
-33.20
-34.01
-33.07
-30.33
-26.15
-21.15
-15.91
-10.88
-6.25
-2.08
1.55
4.49
6.61
7.90
8.57
8.99
9.49
10.27
11.26
12.25
13.02
13.43
13.45
13.13
12.51
11.65
10.57
9.38
8.18
7.02
5.86
4.55
2.95
1.11
-0.75
-2.27
-3.13
-3.30
-3.04
-2.87
-3.38
-4.97
-7.69
-11.20
-14.82
-17.74
-19.19
-18.72
-16.30
-12.33
-7.49
-2.48
2.12
6.03
9.20
11.70
13.61
14.95
15.73
16.00
15.91
15.75
15.78
16.15
16.80
17.50
17.95
17.94
17.44
16.61
15.74
15.10
14.82
14.81
14.80
14.49
13.60
12.00
9.69
6.79
3.47
-0.00
-3.34
-6.28
-8.67
-10.59
-12.37
-14.51
-17.42
-21.17
-25.33
-29.15
-31.81
-32.79
-32.07
-30.04
-27.32
-24.41
-21.57
-18.74
-15.77
-12.53
-9.07
-5.61
-2.43
0.27
2.45
4.25
5.92
7.68
9.62
11.63
13.45
14.82
15.56
15.77
15.70
15.71
16.05
16.72
17.46
17.83
17.39
15.96
13.65
10.86
8.04
5.56
3.51
1.80
0.23
-1.36
-3.08
-5.00
-7.29
-10.19
-14.00
-18.83
-24.45
-30.24
-35.23
-38.49
-39.35
-37.72
-34.06
-29.13
-23.77
-18.56
-13.75
-9.33
-5.18
-1.21
2.58
6.08
9.17
11.81
14.02
15.89
17.52
18.94
20.12
20.98
21.38
21.32
20.85
20.09
19.19
18.19
17.08
15.78
14.27
12.60
10.93
9.36
7.88
6.33
4.43
2.03
-0.80
-3.77
-6.42
-8.42
-9.72
-10.58
-11.49
-12.97
-15.30
-18.51
-22.28
-26.09
-29.28
-31.16
-31.16
-28.90
-24.43
-18.14
-10.72
-2.87
4.91
12.43
19.76
27.10
34.57
42.10
49.33
55.60
60.02
61.71
60.06
55.07
47.42
38.46
29.79
22.83
18.46
16.81
17.37
19.17
21.12
22.22
21.82
19.66
15.95
11.19
6.04
1.09
-3.27
-6.79
-9.34
-10.80
-11.13
-10.43
-9.04
-7.46
-6.24
-5.81
-6.34
-7.79
-9.99
-12.74
-15.85
-19.01
-21.81
-23.73
-24.27
-23.13
-20.44
-16.61
-12.24
-7.93
-4.02
-0.65
2.23
4.67
6.71
8.31
9.44
10.07
10.23
10.02
9.60
9.12
8.78
8.70
8.91
9.32
9.80
10.19
10.43
10.44
10.16
9.52
8.44
6.99
5.42
4.05
3.09
2.44
1.65
0.14
-2.45
-6.12
-10.37
-14.52
-18.01
-20.66
-22.67
-24.48
-26.51
-29.05
-32.21
-35.88
-39.76
-43.30
-45.77
-46.32
-44.33
-39.64
-32.69
-24.36
-15.74
-7.72
-0.84
4.74
9.12
12.47
14.92
16.55
17.46
17.80
17.81
17.76
17.86
18.15
18.55
18.89
18.99
18.80
18.33
17.64
16.72
15.46
13.74
11.50
8.84
6.00
3.25
0.74
-1.51
-3.56
-5.41
-6.95
-8.03
-8.53
-8.56
-8.44
-8.59
-9.40
-11.00
-13.33
-16.19
-19.39
-22.84
-26.49
-30.16
-33.44
-35.71
-36.32
-34.88
-31.46
-26.60
-21.15
-15.95
-11.54
-8.03
-5.13
-2.35
0.77
4.44
8.58
12.88
16.95
20.54
23.61
26.27
28.64
30.70
32.30
33.27
33.58
33.39
32.96
32.52
32.07
31.39
30.17
28.23
25.63
22.69
19.84
17.35
15.31
13.49
11.57
9.22
6.32
2.92
-0.74
-4.40
-7.86
-11.08
-14.13
-17.12
-20.07
-22.85
-25.19
-26.76
-27.25
-26.46
-24.31
-20.94
-16.60
-11.71
-6.77
-2.22
1.59
4.51
6.60
8.07
9.09
9.81
10.21
10.25
9.94
9.41
8.88
8.57
8.62
9.04
9.72
10.53
11.34
12.12
12.85
13.46
13.77
13.60
12.86
11.56
9.94
8.25
6.68
5.24
3.75
1.95
-0.30
-2.91
-5.52
-7.64
-8.86
-9.09
-8.63
-8.05
-8.07
-9.25
-11.79
-15.43
-19.60
-23.55
-26.61
-28.41
-28.85
-28.08
-26.35
-23.95
-21.12
-18.10
-15.13
-12.42
-10.06
-8.02
-6.16
-4.27
-2.24
-0.03
2.26
4.50
6.59
8.52
10.32
11.95
13.31
14.28
14.76
14.80
14.52
14.12
13.68
13.19
12.52
11.53
10.13
8.34
6.26
4.05
1.88
-0.10
-1.79
-3.16
-4.26
-5.28
-6.52
-8.39
-11.20
-15.00
-19.44
-23.84
-27.34
-29.19
-29.00
-26.81
-23.01
-18.17
-12.83
-7.48
-2.43
2.04
5.74
8.54
10.48
11.70
12.47
13.02
13.52
14.03
14.53
14.97
15.34
15.63
15.81
15.82
15.55
14.84
13.66
12.13
10.52
9.14
8.19
7.57
6.93
5.82
3.93
1.28
-1.84
-5.04
-8.08
-10.91
-13.71
-16.71
-20.02
-23.60
-27.31
-31.03
-34.72
-38.34
-41.74
-44.55
-46.20
-46.09
-43.92
-39.79
-34.27
-28.18
-22.28
-17.06
-12.64
-8.87
-5.47
-2.22
1.02
4.32
7.74
11.28
14.89
18.38
21.45
23.83
25.40
26.22
26.52
26.56
26.50
26.38
26.13
25.67
24.99
24.12
23.06
21.75
20.07
17.91
15.27
12.32
9.36
6.66
4.31
2.15
-0.16
-2.98
-6.49
-10.63
-15.14
-19.59
-23.58
-26.67
-28.45
-28.58
-26.82
-23.24
-18.21
-12.38
-6.49
-1.13
3.47
7.42
10.97
14.32
17.45
20.10
21.96
22.83
22.77
22.11
21.26
20.54
20.16
20.12
20.29
20.53
20.70
20.70
20.47
19.99
19.19
18.04
16.49
14.58
12.39
10.09
7.81
5.65
3.61
1.60
-0.46
-2.66
-5.04
-7.60
-10.38
-13.44
-16.82
-20.44
-24.04
-27.11
-29.09
-29.42
-27.79
-24.27
-19.29
-13.50
-7.58
-2.01
3.02
7.53
11.65
15.35
18.48
20.76
22.01
22.20
21.54
20.34
18.84
17.22
15.52
13.78
12.08
10.53
9.25
8.33
7.78
7.50
7.38
7.29
7.10
6.73
6.09
5.11
3.73
1.90
-0.39
-3.09
-6.07
-9.09
-11.91
-14.42
-16.68
-18.95
-21.50
-24.45
-27.53
-30.11
-31.40
-30.74
-27.92
-23.26
-17.47
-11.35
-5.55
-0.29
4.45
8.84
12.98
16.77
20.00
22.45
24.06
24.92
25.28
25.41
25.48
25.51
25.36
24.83
23.73
22.06
20.06
18.15
16.77
16.17
16.21
16.45
16.30
15.35
13.44
10.76
7.67
4.53
1.58
-1.05
-3.38
-5.44
-7.35
-9.24
-11.29
-13.70
-16.56
-19.81
-23.14
-26.09
-28.04
-28.43
-26.89
-23.41
-18.34
-12.31
-5.98
0.09
5.62
10.47
14.53
17.62
19.48
19.91
18.93
16.89
14.35
11.99
10.28
9.37
9.05
8.90
8.50
7.65
6.42
5.05
3.82
2.79
1.79
0.51
-1.28
-3.66
-6.46
-9.43
-12.32
-14.99
-17.36
-19.47
-21.38
-23.19
-25.09
-27.26
-29.86
-32.95
-36.43
-40.05
-43.46
-46.27
-48.19
-49.00
-48.61
-47.07
-44.45
-40.87
-36.32
-30.77
-24.15
-16.51
-8.11
0.58
8.95
16.39
22.50
27.17
30.52
32.89
34.66
36.14
37.51
38.81
40.03
41.13
42.07
42.81
43.35
43.68
43.77
43.53
42.83
41.44
39.13
35.72
31.23
25.89
20.11
14.40
9.12
4.48
0.50
-3.01
-6.30
-9.67
-13.36
-17.44
-21.72
-25.69
-28.63
-29.90
-29.15
-26.50
-22.52
-18.00
-13.68
-9.99
-7.04
-4.73
-2.92
-1.59
-0.78
-0.49
-0.58
-0.78
-0.75
-0.25
0.77
2.18
3.76
5.30
6.69
7.86
8.83
9.57
10.10
10.49
10.87
11.34
11.90
12.43
12.71
12.58
12.01
11.06
9.84
8.38
6.59
4.40
1.81
-1.06
-4.03
-7.10
-10.43
-14.29
-18.81
-23.75
-28.49
-32.25
-34.39
-34.74
-33.52
-31.25
-28.38
-25.15
-21.59
-17.65
-13.46
-9.35
-5.73
-2.93
-1.07
0.02
0.71
1.34
2.16
3.18
4.27
5.26
6.07
6.71
7.31
7.91
8.42
8.56
8.11
6.99
5.43
3.87
2.70
2.14
2.03
1.99
1.60
0.60
-1.07
-3.25
-5.78
-8.51
-11.35
-14.26
-17.16
-20.02
-22.80
-25.55
-28.30
-31.01
-33.45
-35.21
-35.80
-34.81
-32.11
-27.86
-22.49
-16.48
-10.26
-4.13
1.79
7.41
12.58
17.09
20.67
23.06
24.15
23.98
22.79
20.95
18.87
16.88
15.18
13.81
12.72
11.83
11.03
10.21
9.22
7.96
6.37
4.54
2.64
0.80
-0.92
-2.60
-4.39
-6.38
-8.57
-10.86
-13.14
-15.37
-17.63
-20.05
-22.77
-25.90
-29.41
-33.17
-36.85
-39.97
-41.91
-42.16
-40.51
-37.12
-32.48
-27.22
-21.91
-16.92
-12.46
-8.67
-5.66
-3.61
-2.63
-2.76
-3.86
-5.64
-7.65
-9.44
-10.62
-10.98
-10.51
-9.44
-8.17
-7.06
-6.39
-6.16
-6.18
-6.02
-5.23
-3.42
-0.40
3.74
8.58
13.51
17.80
20.87
22.35
22.14
20.44
17.62
14.12
10.33
6.46
2.50
-1.72
-6.33
-11.18
-15.73
-18.97
-19.74
-17.11
-10.74
-1.18
10.24
21.80
31.82
39.26
43.83
46.00
46.64
46.63
46.50
46.32
45.82
44.66
42.60
39.62
35.85
31.46
26.55
21.18
15.41
9.42
3.51
-1.95
-6.66
-10.43
-13.35
-15.73
-18.01
-20.60
-23.73
-27.38
-31.26
-34.96
-38.06
-40.34
-41.80
-42.68
-43.30
-43.93
-44.69
-45.57
-46.50
-47.51
-48.71
-50.26
-52.08
-53.75
-54.40
-52.99
-48.66
-41.12
-30.83
-18.90
-6.66
4.70
14.45
22.39
28.74
33.92
38.33
42.21
45.62
48.48
50.70
52.28
53.32
54.00
54.47
54.78
54.85
54.54
53.71
52.29
50.36
48.02
45.45
42.85
40.54
38.94
38.53
39.63
42.25
45.89
49.61
52.30
53.00
51.25
47.18
41.38
34.61
27.51
20.55
13.95
7.85
2.32
-2.56
-6.82
-10.55
-13.97
-17.40
-21.25
-25.98
-31.92
-39.15
-47.35
-55.77
-63.40
-69.23
-72.60
-73.31
-71.64
-68.06
-63.02
-56.74
-49.20
-40.19
-29.57
-17.36
-3.78
10.77
25.85
41.10
56.17
70.76
84.41
96.53
106.41
113.50
117.56
118.85
117.97
115.67
112.50
108.66
104.01
98.27
91.30
83.18
74.22
64.85
55.45
46.44
38.22
31.28
26.10
22.99
21.98
22.78
24.96
28.08
31.81
35.85
39.75
42.82
44.28
43.57
40.75
36.57
32.18
28.61
26.23
24.61
22.92
20.33
16.48
11.32
4.88
-2.83
-11.58
-20.56
-28.50
-34.35
-38.22
-41.82
-47.80
-58.26
-73.25
-90.34
-105.69
-115.97
-119.95
-118.82
-115.04
-110.67
-106.29
-100.90
-92.93
-81.18
-65.34
-45.78
-23.24
1.52
27.60
53.74
78.31
99.41
115.38
125.18
128.75
127.10
122.07
115.72
109.77
105.02
101.14
96.98
91.12
82.47
70.80
56.80
41.77
27.16
13.98
2.36
-8.42
-19.53
-32.01
-46.20
-61.65
-77.21
-91.41
-102.63
-109.39
-110.56
-105.79
-95.99
-83.18
-69.81
-57.60
-46.83
-36.38
-24.81
-11.66
1.58
11.57
14.46
7.43
-10.09
-36.12
-66.93
-98.26
-126.50
-149.56
-167.08
-180.13
-190.32
-198.68
-204.75
-206.53
-201.52
-187.97
-165.78
-136.53
-102.74
-66.94
-31.03
3.53
35.25
61.99
81.46
91.94
93.25
87.05
76.30
64.29
53.52
45.18
38.84
33.34
27.49
20.49
12.04
2.28
-8.16
-18.36
-27.25
-34.76
-40.81
-45.18
-47.49
-47.68
-46.23
-43.89
-41.28
-38.54
-37.15
-37.72
-39.64
-41.37
-41.67
-40.47
-38.64
-37.46
-37.91
-43.34
-55.50
-73.42
-93.84
-113.02
-128.26
-138.21
-142.57
-141.61
-140.08
-141.83
-147.97
-156.89
-166.29
-175.18
-184.11
-194.50
-185.90
-147.86
-83.69
-8.49
62.94
123.22
170.72
206.06
228.67
242.78
247.73
243.35
231.56
216.22
200.99
187.75
177.04
168.69
162.59
155.42
144.88
130.81
114.94
99.21
84.73
71.98
61.26
53.21
46.30
39.40
32.34
25.80
20.47
16.52
13.73
11.82
10.76
9.51
7.38
4.39
1.12
-1.76
-3.82
-4.97
-5.32
-5.10
-5.07
-5.87
-7.70
-10.25
-12.79
-14.46
-14.54
-12.64
-8.81
-3.57
2.42
8.54
14.37
19.68
24.37
28.29
31.27
33.18
34.03
33.98
33.33
32.37
31.26
30.03
28.58
26.80
24.69
22.35
19.97
17.76
15.84
14.18
12.64
10.98
9.01
6.65
3.96
1.09
-1.80
-4.53
-7.03
-9.36
-11.72
-14.41
-17.73
-21.75
-26.18
-30.37
-33.38
-34.38
-32.85
-28.89
-23.10
-16.44
-9.83
-4.00
0.75
4.45
7.39
9.88
12.12
14.14
15.84
17.03
17.60
17.53
16.98
16.16
15.24
14.25
13.12
11.79
10.30
8.84
7.66
6.87
6.26
5.42
3.91
1.52
-1.49
-4.55
-6.99
-8.45
-9.06
-9.49
-10.52
-12.80
-16.44
-21.00
-25.60
-29.22
-31.03
-30.54
-27.70
-22.75
-16.19
-8.62
-0.73
6.78
13.36
18.67
22.70
25.66
27.90
29.64
30.91
31.58
31.54
30.82
29.64
28.28
26.94
25.61
24.18
22.55
20.80
19.09
17.63
16.41
15.27
13.93
12.19
10.00
7.51
4.88
2.24
-0.34
-2.78
-4.97
-6.82
-8.33
-9.73
-11.34
-13.44
-15.96
-18.47
-20.32
-20.96
-20.18
-18.23
-15.69
-13.19
-11.19
-9.83
-8.99
-8.35
-7.58
-6.43
-4.83
-2.94
-1.05
0.50
1.43
1.61
1.04
-0.19
-1.99
-4.18
-6.52
-8.73
-10.54
-11.79
-12.51
-12.91
-13.20
-13.56
-14.05
-14.67
-15.46
-16.43
-17.63
-18.94
-20.16
-21.07
-21.61
-21.90
-22.21
-22.88
-24.12
-25.94
-28.14
-30.33
-32.03
-32.72
-31.95
-29.44
-25.17
-19.42
-12.79
-6.03
0.13
5.22
9.05
11.76
13.70
15.20
16.45
17.38
17.74
17.30
16.04
14.20
12.19
10.34
8.81
7.50
6.25
4.93
3.55
2.19
0.90
-0.40
-1.86
-3.65
-5.86
-8.46
-11.37
-14.43
-17.50
-20.42
-23.12
-25.58
-27.85
-30.08
-32.45
-35.16
-38.27
-41.69
-45.13
-48.12
-50.11
-50.60
-49.30
-46.18
-41.40
-35.20
-27.81
-19.38
-10.09
-0.21
9.86
19.70
28.95
37.42
44.99
51.61
57.19
61.51
64.31
65.34
64.39
61.35
56.28
49.39
41.21
32.49
24.13
16.94
11.40
7.49
4.82
2.80
0.94
-0.91
-2.52
-3.45
-3.36
-2.26
-0.50
1.34
2.73
3.46
3.80
4.34
5.78
8.55
12.46
16.70
20.20
22.06
22.05
20.83
19.79
20.57
24.63
32.75
44.90
60.18
76.83
92.47
104.34
110.02
108.10
98.72
83.55
65.07
45.70
27.01
9.66
-6.24
-20.48
-32.48
-41.42
-46.82
-48.85
-48.40
-46.70
-44.75
-43.02
-41.47
-39.81
-37.74
-35.16
-32.10
-28.76
-25.38
-22.34
-20.12
-19.24
-20.15
-23.02
-27.67
-33.51
-39.75
-45.61
-50.52
-54.27
-56.81
-58.10
-57.93
-55.85
-51.41
-44.38
-34.88
-23.34
-10.31
3.75
18.36
32.76
45.56
54.70
57.85
53.25
40.62
21.64
-0.32
-21.25
-37.80
-48.31
-53.13
-53.96
-52.85
-51.26
-49.72
-48.10
-46.14
-43.82
-41.37
-39.02
-36.77
-34.44
-31.93
-29.48
-27.65
-27.09
-28.14
-30.67
-34.08
-37.66
-40.87
-43.57
-45.96
-48.52
-51.76
-56.00
-61.10
-66.36
-70.60
-72.43
-70.72
-65.01
-55.81
-44.55
-33.23
-23.82
-17.67
-15.04
-15.07
-16.08
-16.27
-14.39
-10.17
-4.23
2.45
9.02
15.16
20.98
26.75
32.49
37.86
42.32
45.38
46.81
46.87
46.14
45.44
45.48
46.51
48.11
49.26
48.78
45.87
40.52
33.57
26.28
19.70
14.31
9.91
5.86
1.47
-3.81
-10.10
-16.93
-23.04
-26.36
-24.49
-15.54
0.89
22.97
46.90
67.97
82.15
87.43
84.32
75.42
64.28
54.15
47.20
44.24
45.02
48.70
54.19
60.39
66.25
70.76
73.03
72.57
69.46
64.39
58.24
51.70
44.79
36.87
27.04
14.71
0.15
-15.47
-30.44
-43.05
-52.03
-56.86
-57.77
-55.62
-51.83
-48.11
-46.09
-46.79
-50.07
-54.52
-57.71
-57.09
-50.81
-38.37
-20.76
-0.17
20.53
38.35
50.73
55.99
53.59
44.39
30.23
13.43
-3.93
-20.52
-35.80
-49.63
-61.78
-71.59
-78.11
-80.59
-78.98
-74.06
-67.26
-59.94
-52.96
-46.43
-39.94
-32.96
-25.19
-16.71
-7.76
1.42
10.68
19.79
28.15
34.70
37.94
36.36
28.92
15.52
-2.84
-24.08
-45.40
-63.82
-76.66
-82.16
-79.83
-70.45
-55.87
-38.37
-20.04
-2.27
14.31
29.60
43.54
55.81
65.88
73.35
78.39
81.75
84.52
87.33
89.86
90.78
88.29
80.98
68.46
51.49
31.50
10.09
-11.32
-31.47
-49.17
-63.40
-73.60
-80.03
-83.72
-85.91
-87.42
-88.21
-87.74
-85.61
-82.28
-79.06
-77.42
-77.79
-79.02
-78.54
-73.41
-61.49
-42.14
-16.35
13.65
44.79
73.40
95.66
108.24
109.23
98.92
79.92
56.33
32.33
10.75
-7.50
-23.14
-37.47
-51.29
-64.42
-75.91
-84.64
-89.96
-92.07
-91.82
-90.20
-87.94
-85.18
-81.68
-77.20
-71.88
-66.30
-61.17
-56.96
-53.65
-50.84
-48.17
-45.67
-43.84
-43.28
-44.09
-45.49
-45.83
-43.14
-35.88
-23.47
-6.47
13.77
35.56
57.35
77.86
96.02
110.84
121.33
126.63
126.11
119.62
107.57
91.07
71.98
52.72
35.98
24.04
18.07
17.74
21.25
26.13
30.13
32.01
31.82
30.46
29.08
28.45
28.73
29.54
30.20
29.96
28.08
23.96
17.15
7.58
-4.31
-17.29
-29.47
-38.40
-41.77
-38.07
-27.23
-10.81
8.28
26.58
41.11
50.13
53.44
52.14
47.97
42.67
37.48
33.06
29.48
26.59
24.15
22.06
20.38
19.24
18.71
18.74
19.09
19.45
19.57
19.27
18.39
16.76
14.23
10.67
6.11
0.70
-5.39
-12.16
-19.90
-29.19
-40.59
-54.34
-69.80
-85.39
-98.67
-106.94
-108.02
-101.01
-86.54
-66.59
-43.81
-20.70
0.90
20.01
36.26
49.59
60.10
68.02
73.78
78.08
81.65
85.12
88.81
92.84
97.20
101.84
106.65
111.41
115.77
119.43
122.25
124.32
125.87
127.08
127.98
128.46
128.40
127.94
127.43
127.25
127.57
128.00
127.54
124.79
118.56
108.50
95.66
82.60
72.68
69.24
74.60
89.56
113.33
143.65
176.95
208.63
233.51
246.71
244.95
227.54
196.59
156.18
110.86
64.14
18.11
-26.18
-68.02
-106.71
-142.09
-175.11
-207.71
-241.66
-276.95
-310.81
-338.25
-353.95
-354.60
-340.58
-315.97
-287.13
-260.52
-241.03
-231.05
-230.69
-238.57
-252.55
-270.32
-289.56
-307.76
-322.10
-329.60
-327.64
-314.72
-291.24
-259.40
-222.63
-184.36
-146.93
-111.33
-77.54
-45.46
-15.55
11.06
33.05
49.61
60.80
67.57
71.15
72.58
72.39
70.69
67.58
63.45
58.98
54.92
51.73
49.34
47.25
44.84
41.64
37.51
32.55
26.91
20.62
13.58
5.57
-3.53
-13.83
-25.41
-38.32
-52.42
-67.09
-81.07
-92.43
-98.97
-98.97
-91.73
-78.02
-59.72
-39.28
-18.88
0.04
16.95
31.83
44.81
55.87
64.88
71.77
76.81
80.59
83.82
87.03
90.30
93.27
95.37
96.16
95.60
93.98
91.85
89.55
87.12
84.16
80.06
74.35
66.96
58.36
49.38
40.95
33.66
27.55
22.07
16.26
9.12
0.08
-10.70
-22.18
-32.61
-39.96
-42.45
-39.10
-29.99
-16.23
0.36
17.76
34.22
48.59
60.40
69.76
77.05
82.66
86.82
89.60
90.98
91.10
90.24
88.81
87.18
85.45
83.49
81.01
77.87
74.21
70.44
67.08
64.39
62.25
60.15
57.42
53.53
48.33
42.06
35.20
28.24
21.48
15.00
8.68
2.27
-4.55
-12.11
-20.68
-30.16
-39.93
-48.65
-54.58
-56.07
-52.20
-43.21
-30.45
-15.93
-1.58
11.31
22.27
31.47
39.26
45.81
51.08
54.87
57.12
58.03
58.07
57.71
57.22
56.56
55.39
53.37
50.44
46.93
43.45
40.59
38.62
37.25
35.81
33.52
29.88
24.80
18.70
12.27
6.21
0.99
-3.25
-6.80
-10.21
-14.20
-19.37
-26.01
-33.92
-42.34
-49.99
-55.39
-57.15
-54.42
-47.10
-35.90
-22.15
-7.37
7.06
20.16
31.39
40.46
47.30
51.89
54.39
55.13
54.64
53.53
52.34
51.40
50.71
50.04
49.07
47.52
45.38
42.98
40.78
39.20
38.32
37.75
36.76
34.57
30.79
25.56
19.61
13.89
9.15
5.64
3.00
0.46
-2.66
-6.77
-11.96
-17.93
-23.93
-28.88
-31.59
-31.03
-26.62
-18.11
-5.84
9.26
25.98
43.19
60.15
76.46
91.91
106.11
118.72
128.74
134.62
134.94
129.53
119.94
109.06
99.95
94.43
93.65
96.56
100.22
101.33
98.05
90.72
81.12
71.11
61.64
55.66
54.83
58.61
64.61
70.42
74.89
77.83
79.30
78.88
80.31
85.63
93.14
98.14
96.47
87.26
72.81
57.16
44.46
44.23
62.90
100.47
150.63
205.01
256.97
302.36
339.26
332.96
267.43
154.79
29.63
-77.15
-154.09
-204.79
-238.04
-258.99
-273.96
-278.35
-266.71
-237.89
-196.41
-149.27
-102.83
-62.60
-34.46
-23.82
-28.52
-44.21
-67.05
-95.54
-129.54
-169.03
-213.66
-261.96
-310.68
-351.63
-377.40
-385.10
-377.52
-360.73
-340.66
-320.86
-301.89
-281.80
-256.30
-222.58
-180.89
-134.36
-87.22
-43.34
-5.93
22.27
39.14
44.48
39.89
28.42
13.69
-1.09
-13.84
-23.81
-30.77
-34.31
-33.52
-27.79
-17.69
-5.40
6.03
14.02
17.71
18.28
18.29
20.29
25.56
33.66
42.85
50.99
56.51
58.92
58.82
57.21
54.69
50.83
44.28
33.46
17.72
-1.78
-21.98
-38.69
-48.01
-47.81
-38.39
-22.45
-4.19
11.85
21.84
23.41
16.08
1.49
-16.72
-33.48
-43.47
-42.61
-29.34
-5.05
26.47
60.31
91.89
117.75
135.75
144.67
143.98
133.84
115.48
91.62
66.02
42.39
22.96
7.68
-5.51
-19.28
-35.27
-53.29
-71.45
-87.30
-98.93
-105.49
-106.92
-103.41
-95.07
-82.19
-65.67
-47.24
-29.09
-13.12
-0.14
10.20
18.96
27.15
35.10
42.33
47.93
50.98
50.92
47.70
41.74
33.75
24.61
15.12
5.94
-2.51
-9.97
-16.20
-20.75
-22.89
-21.96
-17.68
-10.57
-2.01
6.20
12.44
15.87
16.49
14.87
11.53
6.75
0.52
-6.96
-15.02
-22.47
-28.08
-31.18
-31.98
-31.30
-30.05
-28.60
-26.67
-23.58
-18.93
-12.91
-6.33
-0.14
5.10
9.40
13.25
17.18
21.41
25.66
29.49
32.52
34.79
36.62
38.46
40.48
42.50
44.09
44.83
44.68
43.95
43.09
42.33
41.42
39.66
36.28
30.84
23.44
14.64
5.10
-4.79
-15.11
-26.24
-38.54
-51.96
-65.89
-79.21
-90.52
-98.47
-102.10
-101.11
-95.95
-87.73
-77.87
-67.69
-58.12
-49.55
-42.00
-35.26
-29.16
-23.63
-18.63
-14.16
-10.21
-6.76
-3.86
-1.65
-0.34
0.02
-0.47
-1.41
-2.29
-2.66
-2.39
-1.73
-1.38
-2.07
-4.33
-8.15
-12.92
-17.69
-21.54
-23.91
-24.73
-24.34
-23.17
-21.49
-19.23
-16.10
-11.79
-6.13
0.81
8.71
17.10
25.46
33.29
40.21
45.94
50.27
53.03
54.17
53.75
52.08
49.73
47.38
45.63
44.76
44.65
44.94
45.23
45.37
45.42
45.55
45.73
45.68
45.00
43.38
40.87
37.86
34.86
32.27
30.18
28.32
26.26
23.46
19.54
14.36
8.11
1.40
-4.93
-10.03
-13.31
-14.67
-14.46
-13.31
-11.89
-10.71
-10.10
-10.15
-10.85
-12.10
-13.67
-15.31
-16.83
-18.22
-19.68
-21.56
-24.22
-27.70
-31.76
-35.77
-39.04
-40.97
-41.23
-39.78
-36.83
-32.76
-27.99
-22.97
-18.10
-13.66
-9.77
-6.34
-3.15
0.02
3.18
6.10
8.32
9.39
9.03
7.35
4.70
1.66
-1.20
-3.42
-4.78
-5.32
-5.29
-5.04
-4.94
-5.27
-6.29
-8.11
-10.88
-14.65
-19.43
-25.09
-31.25
-37.34
-42.71
-46.75
-49.07
-49.58
-48.42
-45.89
-42.46
-38.68
-35.13
-32.29
-30.38
-29.25
-28.41
-27.19
-25.01
-21.59
-17.06
-11.81
-6.33
-1.06
3.72
7.83
11.08
13.35
14.64
15.13
15.26
15.67
17.06
19.91
24.37
30.19
36.77
43.41
49.54
54.88
59.57
63.94
68.35
72.83
77.08
80.57
82.86
83.88
83.94
83.65
83.47
83.48
83.37
82.57
80.63
77.40
73.05
67.89
62.20
56.03
49.28
41.83
33.69
24.99
16.01
7.08
-1.44
-9.22
-16.06
-21.99
-27.38
-32.95
-39.47
-47.55
-57.22
-67.77
-77.92
-86.19
-91.35
-92.67
-90.11
-84.01
-74.98
-63.78
-51.44
-39.35
-29.12
-22.28
-19.63
-20.94
-24.88
-29.51
-32.94
-33.94
-32.27
-28.47
-23.50
-18.37
-13.90
-10.61
-8.84
-8.78
-10.44
-13.68
-18.23
-23.83
-30.24
-37.30
-44.81
-52.34
-59.25
-64.59
-67.42
-66.95
-62.89
-55.53
-45.91
-35.64
-26.63
-20.64
-18.76
-21.07
-26.59
-33.53
-39.94
-44.32
-45.99
-45.17
-42.64
-39.31
-35.92
-32.82
-30.05
-27.50
-24.96
-22.30
-19.51
-16.64
-13.83
-11.09
-8.24
-4.83
-0.34
5.57
12.95
21.47
30.61
39.96
49.25
58.27
66.50
72.96
76.28
75.05
68.45
56.61
40.67
22.41
3.73
-13.79
-29.15
-41.89
-52.02
-59.94
-66.35
-72.10
-77.82
-83.61
-88.79
-91.96
-91.45
-85.88
-74.65
-58.13
-37.56
-14.84
7.79
28.07
44.04
54.42
59.00
58.72
55.34
50.89
46.85
43.81
41.36
38.67
35.05
30.39
25.14
19.95
15.13
10.56
5.81
0.63
-4.67
-9.11
-11.51
-10.98
-7.47
-1.66
5.32
12.54
19.49
25.95
31.64
35.74
36.96
34.03
26.39
14.69
0.65
-13.58
-26.35
-36.99
-45.79
-53.40
-60.12
-65.51
-68.55
-68.34
-64.57
-57.76
-48.92
-39.00
-28.44
-17.21
-5.13
7.66
20.45
32.21
41.91
49.00
53.56
56.15
57.50
58.17
58.38
58.07
57.10
55.47
53.42
51.42
50.08
49.86
50.92
52.93
55.15
56.62
56.43
54.14
49.86
44.31
38.48
33.27
29.14
26.04
23.43
20.63
17.00
12.24
6.44
0.08
-6.05
-10.99
-13.84
-13.98
-11.41
-6.81
-1.52
2.91
5.10
4.42
1.07
-4.01
-9.46
-13.95
-16.53
-16.83
-15.11
-12.17
-9.11
-7.19
-7.41
-10.37
-16.07
-23.82
-32.34
-40.00
-45.25
-47.03
-45.20
-40.53
-34.44
-28.53
-23.94
-21.13
-19.79
-19.15
-18.31
-16.61
-13.86
-10.47
-7.39
-5.91
-7.30
-12.18
-20.15
-29.68
-38.56
-44.65
-46.56
-44.02
-37.63
-28.60
-18.13
-7.27
3.18
12.69
20.94
27.92
33.90
39.34
44.65
50.07
55.61
61.14
66.54
71.63
76.18
79.76
81.87
82.17
80.71
78.00
74.88
72.06
69.83
67.98
65.94
63.13
59.27
54.48
49.16
43.74
38.54
33.60
28.78
23.73
18.10
11.55
3.95
-4.50
-13.19
-21.08
-27.08
-30.26
-30.18
-26.99
-21.29
-13.88
-5.44
3.52
12.71
21.82
30.42
37.84
43.32
46.23
46.32
43.83
39.43
33.94
27.96
21.80
15.37
8.43
0.80
-7.45
-15.97
-24.12
-31.21
-36.69
-40.24
-41.89
-41.94
-40.97
-39.60
-38.40
-37.73
-37.69
-38.20
-39.04
-39.98
-40.92
-41.96
-43.37
-45.56
-48.81
-53.04
-57.66
-61.51
-63.26
-61.77
-56.54
-47.89
-36.86
-24.87
-13.21
-2.72
6.23
13.67
19.76
24.60
28.27
30.88
32.67
33.98
35.10
36.13
36.97
37.33
37.03
36.10
34.83
33.66
32.93
32.72
32.77
32.64
31.88
30.16
27.39
23.71
19.39
14.83
10.39
6.37
2.83
-0.44
-3.92
-8.23
-13.92
-21.20
-29.75
-38.66
-46.63
-52.26
-54.43
-52.63
-47.06
-38.58
-28.43
-17.90
-8.06
0.44
7.31
12.59
16.56
19.58
22.00
24.06
25.92
27.60
29.10
30.38
31.45
32.29
32.85
33.08
32.97
32.61
32.19
31.89
31.77
31.73
31.51
30.82
29.44
27.33
24.66
21.71
18.86
16.36
14.26
12.34
10.18
7.30
3.40
-1.57
-7.31
-13.29
-18.83
-23.28
-26.08
-26.82
-25.32
-21.70
-16.49
-10.52
-4.76
-0.04
3.17
4.94
5.74
6.21
6.83
7.79
8.91
9.94
10.69
11.25
11.87
12.83
14.19
15.69
16.93
17.49
17.21
16.16
14.60
12.77
10.78
8.56
6.01
3.12
0.03
-3.01
-5.76
-8.13
-10.20
-12.21
-14.33
-16.61
-18.98
-21.30
-23.58
-26.03
-28.94
-32.51
-36.63
-40.74
-44.00
-45.56
-44.79
-41.54
-36.16
-29.33
-21.85
-14.43
-7.54
-1.35
4.26
9.42
14.22
18.47
21.84
24.01
24.87
24.68
23.94
23.19
22.73
22.56
22.48
22.24
21.75
21.07
20.32
19.58
18.86
18.06
17.02
15.53
13.36
10.37
6.56
2.19
-2.35
-6.64
-10.44
-13.75
-16.72
-19.51
-22.11
-24.39
-26.24
-27.78
-29.27
-31.00
-32.96
-34.81
-35.92
-35.60
-33.45
-29.47
-24.06
-17.84
-11.44
-5.31
0.40
5.72
10.79
15.61
20.03
23.70
26.31
27.76
28.31
28.51
28.93
29.96
31.54
33.22
34.35
34.34
32.86
29.97
26.00
21.43
16.67
11.91
7.03
1.74
-4.23
-10.88
-17.87
-24.65
-30.71
-35.77
-39.94
-43.55
-47.08
-50.88
-55.20
-60.10
-65.58
-71.47
-77.39
-82.76
-86.84
-88.92
-88.57
-85.75
-80.79
-74.25
-66.68
-58.46
-49.75
-40.53
-30.71
-20.30
-9.49
1.43
12.05
21.98
30.99
38.96
46.04
52.48
58.62
64.67
70.67
76.48
81.80
86.35
89.91
92.38
93.77
94.17
93.71
92.56
90.86
88.63
85.86
82.46
78.45
73.93
69.17
64.44
59.91
55.44
50.64
44.93
37.88
29.46
20.16
11.00
3.26
-1.92
-3.86
-2.56
1.37
6.97
13.25
19.45
25.21
30.46
35.28
39.79
44.07
48.14
51.98
55.46
58.40
60.59
61.91
62.29
61.71
60.08
57.19
52.79
46.69
39.02
30.18
20.78
11.38
2.26
-6.56
-15.30
-24.06
-32.80
-41.25
-49.00
-55.73
-61.29
-65.69
-69.07
-71.64
-73.57
-75.06
-76.30
-77.49
-78.87
-80.59
-82.74
-85.18
-87.53
-89.10
-89.11
-86.81
-81.78
-74.20
-64.78
-54.60
-44.68
-35.62
-27.46
-19.77
-12.00
-3.87
4.34
11.96
18.20
22.58
25.14
26.46
27.29
28.33
29.87
31.85
33.92
35.74
37.06
37.88
38.33
38.54
38.55
38.21
37.31
35.63
33.00
29.44
25.07
20.19
15.19
10.58
6.89
4.63
4.03
4.82
6.10
6.46
4.42
-1.07
-10.13
-21.76
-34.15
-45.25
-53.34
-57.49
-57.61
-54.13
-47.75
-39.04
-28.41
-16.22
-2.90
10.89
24.33
36.61
47.07
55.31
61.23
64.86
66.39
66.07
64.32
61.69
58.76
55.98
53.36
50.61
47.34
43.36
38.81
34.07
29.37
24.61
19.31
12.94
5.28
-3.42
-12.57
-21.65
-30.46
-39.04
-47.42
-55.31
-61.99
-66.68
-68.99
-69.21
-68.26
-67.23
-66.87
-67.35
-68.20
-68.74
-68.47
-67.27
-65.34
-62.95
-60.27
-57.18
-53.53
-49.25
-44.55
-39.85
-35.57
-31.91
-28.71
-25.50
-21.72
-16.97
-11.08
-4.21
3.31
11.05
18.52
25.17
30.48
34.09
36.05
36.96
37.86
39.86
43.61
48.95
54.96
60.26
63.53
63.85
60.84
54.42
44.76
32.21
17.45
1.58
-14.10
-28.42
-40.80
-51.37
-60.73
-69.40
-77.27
-83.38
-86.24
-84.44
-77.31
-65.37
-50.30
-34.40
-19.80
-7.79
1.46
8.68
14.97
21.15
27.37
33.09
37.41
39.51
39.02
36.16
31.52
25.82
19.66
13.31
6.82
0.10
-6.87
-13.94
-20.80
-27.17
-32.94
-38.35
-43.90
-50.18
-57.52
-65.99
-75.24
-84.73
-93.91
-102.24
-109.38
-115.09
-119.30
-122.21
-124.21
-125.85
-127.60
-129.60
-131.51
-132.58
-131.81
-128.22
-121.11
-110.21
-95.72
-78.28
-58.96
-39.02
-19.74
-2.10
13.43
26.80
38.37
48.60
57.82
66.24
73.95
81.06
87.77
94.26
100.57
106.53
111.80
115.94
118.70
120.05
120.22
119.63
118.69
117.61
116.46
115.08
113.30
111.09
108.70
106.41
104.50
102.89
101.08
98.26
93.56
86.35
76.40
63.81
48.94
32.25
14.53
-3.07
-18.96
-31.34
-38.78
-40.70
-37.61
-30.98
-22.64
-14.18
-6.59
-0.17
5.25
9.94
14.15
17.92
21.19
23.79
25.50
26.07
25.32
23.20
19.96
16.17
12.60
9.92
8.54
8.40
9.16
10.24
11.08
11.20
10.37
8.64
6.40
4.34
3.26
3.69
5.48
7.61
8.39
6.03
-0.65
-11.76
-26.36
-42.86
-59.69
-75.67
-90.13
-102.75
-113.38
-121.83
-128.01
-131.88
-133.49
-132.98
-130.48
-126.36
-121.33
-116.42
-112.73
-110.91
-110.75
-111.19
-110.65
-107.74
-101.87
-93.38
-83.38
-73.14
-63.64
-55.29
-47.99
-41.44
-35.43
-29.96
-25.21
-21.34
-18.26
-15.62
-12.83
-9.36
-5.01
0.03
5.32
10.48
15.44
20.45
25.92
32.14
38.99
46.02
52.57
58.03
62.07
64.73
66.37
67.65
69.36
72.28
76.99
83.63
91.79
100.58
108.81
115.34
119.26
120.03
117.50
111.65
102.60
90.50
75.72
58.89
40.88
22.73
5.40
-10.39
-24.25
-36.11
-46.05
-54.19
-60.55
-65.11
-67.88
-69.01
-68.93
-68.25
-67.58
-67.38
-67.80
-68.63
-69.47
-69.91
-69.66
-68.63
-66.89
-64.65
-62.23
-60.12
-58.88
-58.89
-60.17
-62.10
-63.61
-63.49
-60.88
-55.57
-48.00
-38.97
-29.21
-19.19
-9.08
0.99
10.77
19.83
27.75
34.27
39.40
43.35
46.41
48.81
50.78
52.57
54.37
56.23
58.00
59.34
59.82
59.13
57.13
53.79
49.05
42.73
34.60
24.64
13.23
1.28
-9.88
-18.85
-24.55
-26.56
-25.31
-22.00
-18.20
-15.53
-15.15
-17.51
-22.32
-28.65
-35.25
-40.82
-44.30
-45.04
-42.86
-38.06
-31.27
-23.24
-14.76
-6.42
1.39
8.54
15.05
21.04
26.65
31.94
36.80
40.97
44.16
46.20
47.16
47.34
47.14
46.86
46.56
46.10
45.33
44.20
42.85
41.52
40.44
39.57
38.65
37.26
35.07
32.02
28.30
24.21
19.93
15.45
10.57
5.18
-0.66
-6.69
-12.60
-18.19
-23.40
-28.31
-32.81
-36.54
-38.82
-38.92
-36.34
-31.04
-23.47
-14.43
-4.80
4.64
13.39
21.15
27.76
33.13
37.14
39.69
40.82
40.75
39.90
38.88
38.22
38.27
39.07
40.36
41.71
42.77
43.39
43.62
43.62
43.48
43.11
42.32
40.87
38.60
35.55
31.82
27.58
22.88
17.77
12.18
6.08
-0.53
-7.55
-14.87
-22.38
-30.08
-38.04
-46.28
-54.49
-61.89
-67.35
-69.76
-68.50
-63.81
-56.78
-48.86
-41.31
-34.71
-28.98
-23.66
-18.33
-12.97
-7.92
-3.62
-0.33
2.04
3.84
5.49
7.29
9.32
11.51
13.75
16.02
18.41
21.00
23.77
26.47
28.71
30.08
30.21
28.93
26.24
22.33
17.59
12.60
7.95
4.08
1.14
-1.12
-3.25
-5.87
-9.47
-14.27
-20.18
-26.82
-33.53
-39.47
-43.68
-45.32
-43.89
-39.39
-32.40
-23.79
-14.45
-4.94
4.60
14.34
24.52
35.10
45.59
55.19
62.94
68.13
70.55
70.46
68.54
65.55
62.14
58.74
55.49
52.32
49.11
45.78
42.40
39.25
36.62
34.71
33.43
32.29
30.60
27.74
23.42
17.86
11.68
5.57
-0.02
-5.07
-9.86
-14.78
-20.03
-25.63
-31.51
-37.64
-44.09
-50.79
-57.34
-62.84
-66.12
-66.15
-62.47
-55.42
-46.07
-35.76
-25.59
-16.24
-7.79
-0.04
7.29
14.27
20.72
26.26
30.50
33.26
34.63
35.03
34.95
34.89
35.06
35.45
35.85
35.98
35.67
34.90
33.78
32.48
31.17
29.97
28.86
27.67
26.14
23.88
20.62
16.35
11.33
6.05
0.98
-3.56
-7.60
-11.45
-15.64
-20.68
-26.94
-34.43
-42.66
-50.65
-57.03
-60.45
-59.95
-55.30
-47.07
-36.45
-24.76
-13.15
-2.40
7.03
14.85
20.78
24.55
25.98
25.16
22.44
18.51
14.29
10.74
8.67
8.38
9.52
11.21
12.45
12.58
11.69
10.55
10.16
11.25
13.90
17.59
21.63
25.63
29.66
34.12
39.28
44.83
49.76
52.63
52.10
47.47
38.99
27.73
15.18
2.70
-8.94
-19.49
-28.97
-37.17
-43.34
-46.41
-45.45
-40.35
-32.15
-22.71
-13.96
-7.07
-1.93
2.58
7.90
14.88
23.28
31.94
39.30
44.21
46.35
46.19
44.61
42.34
39.65
36.44
32.50
27.82
22.69
17.55
12.73
8.31
4.04
-0.34
-5.07
-10.20
-15.66
-21.32
-27.12
-32.97
-38.79
-44.49
-50.01
-55.48
-61.09
-67.12
-73.79
-81.20
-89.23
-97.49
-105.24
-111.60
-115.64
-116.77
-114.93
-110.58
-104.52
-97.57
-90.27
-82.91
-75.58
-68.43
-61.68
-55.66
-50.56
-46.38
-42.84
-39.56
-36.09
-32.05
-27.15
-21.35
-14.93
-8.50
-2.93
0.97
2.77
2.67
1.44
0.16
-0.23
0.73
2.96
5.94
9.05
11.82
14.16
16.34
18.82
22.06
26.27
31.32
36.69
41.60
45.21
46.76
45.80
42.23
36.39
29.05
21.39
14.80
10.65
9.86
12.71
18.81
27.25
36.99
47.11
56.93
65.96
73.78
79.97
84.15
86.15
86.10
84.62
82.70
81.53
82.09
84.75
88.96
93.28
95.82
94.94
89.90
81.08
69.77
57.56
45.64
34.49
23.93
13.52
3.01
-7.41
-17.18
-25.62
-32.19
-36.66
-39.23
-40.43
-41.01
-41.80
-43.49
-46.43
-50.57
-55.44
-60.33
-64.46
-67.10
-67.75
-66.21
-62.59
-57.39
-51.26
-44.73
-38.09
-31.25
-23.92
-15.99
-7.78
-0.06
6.24
10.48
12.70
13.59
14.08
14.93
16.19
17.37
17.71
16.70
14.35
11.24
8.21
5.98
4.92
4.99
5.87
7.18
8.61
10.00
11.26
12.35
13.18
13.62
13.41
12.23
9.79
5.88
0.61
-5.57
-11.95
-17.58
-21.56
-23.15
-21.91
-17.86
-11.42
-3.38
5.25
13.51
20.66
26.37
30.64
33.72
35.84
37.14
37.63
37.35
36.46
35.27
34.12
33.14
32.13
30.51
27.58
22.85
16.30
8.47
0.29
-7.29
-13.67
-18.78
-23.07
-27.23
-31.84
-37.13
-42.87
-48.56
-53.77
-58.37
-62.56
-66.82
-71.51
-76.68
-81.92
-86.41
-89.12
-89.09
-85.75
-79.01
-69.40
-57.86
-45.55
-33.52
-22.49
-12.74
-4.14
3.60
10.74
17.32
23.19
28.24
32.50
36.22
39.77
43.41
47.13
50.58
53.29
54.92
55.54
55.66
55.98
56.91
58.13
58.46
56.34
50.52
40.81
28.32
15.05
3.13
-6.07
-12.30
-16.27
-19.12
-21.78
-24.79
-28.26
-32.06
-35.80
-38.83
-40.22
-38.90
-34.15
-25.89
-14.84
-2.18
10.85
23.38
34.97
45.50
54.93
63.17
70.13
75.89
80.74
85.09
89.20
93.09
96.43
98.71
99.43
98.24
95.22
90.95
86.49
83.07
81.61
82.28
84.28
86.20
86.67
85.05
81.69
77.69
74.27
72.06
70.85
69.73
67.59
63.60
57.49
49.58
40.58
31.38
22.70
14.86
7.81
1.25
-5.02
-10.90
-16.04
-20.14
-23.21
-25.71
-28.39
-32.01
-37.14
-44.08
-52.98
-63.87
-76.70
-91.21
-106.94
-123.33
-139.88
-156.20
-171.70
-185.29
-195.11
-198.85
-194.49
-181.22
-160.11
-133.98
-106.68
-81.92
-62.18
-48.26
-39.41
-34.07
-30.62
-28.06
-26.05
-24.65
-23.83
-23.11
-21.54
-17.90
-11.33
-1.61
10.58
24.06
37.50
49.97
61.05
70.65
78.59
84.31
87.11
86.71
83.87
80.59
79.38
82.08
88.67
96.90
103.03
103.37
95.71
79.97
57.77
31.37
2.63
-27.45
-58.38
-89.47
-119.35
-145.94
-167.03
-181.17
-188.24
-189.63
-187.87
-185.88
-186.05
-189.55
-195.96
-203.53
-209.75
-212.20
-209.21
-200.18
-185.39
-165.55
-141.26
-112.88
-80.64
-45.23
-8.28
27.72
59.95
86.15
105.47
118.55
126.96
132.24
135.12
135.40
132.54
126.41
117.83
108.38
99.79
93.15
88.63
85.62
83.21
80.72
77.97
75.21
72.86
71.27
70.46
69.98
69.02
66.50
61.39
53.08
41.61
27.61
12.10
-3.78
-19.10
-33.26
-46.13
-58.16
-70.25
-83.37
-98.00
-113.51
-127.94
-138.41
-142.17
-137.83
-126.10
-109.75
-92.59
-78.10
-68.22
-62.79
-60.00
-57.29
-52.51
-44.50
-33.22
-19.32
-3.65
13.04
30.00
46.32
60.72
71.74
78.29
80.12
78.14
74.16
70.28
68.09
68.11
69.68
71.27
71.06
67.57
60.24
49.58
37.09
24.80
14.63
7.71
4.02
2.49
1.57
-0.05
-2.73
-5.84
-8.01
-7.87
-4.65
1.63
10.29
20.51
31.62
43.22
54.98
66.46
77.03
86.07
93.18
98.31
101.59
103.09
102.58
99.56
93.58
84.63
73.37
61.03
49.02
38.38
29.41
21.74
14.60
7.28
-0.58
-8.97
-17.67
-26.48
-35.28
-43.83
-51.60
-57.72
-61.14
-60.98
-56.99
-49.62
-39.93
-29.21
-18.60
-8.83
-0.22
7.24
13.60
18.84
22.84
25.52
26.93
27.37
27.32
27.26
27.46
27.91
28.34
28.40
27.94
27.02
25.87
24.73
23.63
22.39
20.66
18.12
14.67
10.50
6.03
1.68
-2.31
-6.06
-9.96
-14.54
-20.20
-26.99
-34.58
-42.28
-49.19
-54.38
-57.05
-56.74
-53.40
-47.47
-39.75
-31.18
-22.56
-14.37
-6.73
0.38
6.96
12.85
17.75
21.43
23.86
25.28
26.05
26.54
26.87
26.99
26.80
26.20
25.29
24.24
23.22
22.26
21.32
20.19
18.63
16.36
13.15
8.96
4.01
-1.20
-6.06
-10.07
-13.18
-15.82
-18.79
-22.87
-28.45
-35.36
-42.80
-49.67
-54.84
-57.43
-56.96
-53.40
-47.19
-39.13
-30.20
-21.40
-13.43
-6.56
-0.69
4.54
9.52
14.31
18.75
22.44
25.02
26.39
26.78
26.64
26.46
26.55
26.99
27.64
28.22
28.47
28.18
27.30
25.89
24.09
21.99
19.58
16.66
13.06
8.72
3.88
-1.08
-5.75
-9.91
-13.63
-17.18
-20.89
-25.02
-29.71
-34.94
-40.58
-46.31
-51.45
-55.07
-56.15
-53.98
-48.46
-40.19
-30.27
-19.92
-10.14
-1.48
5.99
12.51
18.37
23.77
28.61
32.69
35.79
37.82
39.01
39.74
40.38
41.15
42.04
42.90
43.60
44.11
44.47
44.72
44.84
44.78
44.52
44.15
43.78
43.47
43.14
42.57
41.62
40.26
38.69
37.25
36.24
35.79
35.86
36.18
36.27
35.39
32.70
27.56
19.88
10.42
0.58
-8.07
-14.57
-19.09
-22.95
-28.13
-36.54
-49.41
-66.76
-87.18
-107.62
-123.77
-131.01
-125.95
-107.94
-79.77
-47.05
-16.31
7.35
21.83
28.13
29.22
28.28
27.49
27.69
28.84
30.58
32.38
33.46
32.65
28.61
20.62
9.37
-2.77
-12.36
-16.37
-13.72
-6.02
3.13
9.74
11.44
8.50
3.51
-0.18
-0.13
4.16
11.44
19.79
27.72
34.72
41.11
47.42
53.88
60.22
65.79
69.82
71.59
70.74
67.32
61.86
55.26
48.56
42.63
37.95
34.55
32.18
30.35
28.39
25.43
20.47
12.67
1.80
-11.56
-25.96
-39.71
-51.32
-60.09
-66.14
-70.13
-72.81
-74.73
-76.12
-76.96
-77.08
-76.29
-74.50
-71.88
-69.00
-66.84
-66.55
-69.15
-75.01
-83.57
-93.35
-102.46
-109.15
-112.43
-112.18
-108.99
-103.68
-96.91
-88.99
-79.97
-70.01
-59.43
-48.82
-38.79
-29.73
-21.67
-14.30
-7.20
-0.05
7.22
14.36
20.92
26.29
29.93
31.48
30.98
28.76
25.32
20.97
15.81
9.68
2.48
-5.50
-13.61
-20.95
-26.77
-30.88
-33.66
-35.82
-38.08
-40.84
-44.08
-47.65
-51.46
-55.51
-59.78
-63.93
-67.12
-68.07
-65.51
-58.65
-47.59
-33.28
-17.21
-0.91
14.53
28.62
41.41
53.21
64.39
75.20
85.82
96.43
107.35
118.86
131.09
143.76
156.08
166.92
175.02
179.45
179.85
176.46
170.02
161.35
151.17
139.92
127.88
115.27
102.38
89.54
77.12
65.47
54.89
45.64
37.99
32.05
27.70
24.48
21.56
17.79
12.09
3.79
-6.88
-18.58
-29.09
-36.03
-37.79
-34.35
-27.50
-20.17
-15.31
-14.69
-18.46
-25.41
-33.94
-42.91
-52.00
-61.49
-71.54
-81.67
-90.65
-96.90
-99.16
-97.05
-91.30
-83.48
-75.57
-69.29
-65.47
-63.89
-63.39
-62.41
-59.72
-54.92
-48.60
-42.02
-36.61
-33.43
-32.98
-35.31
-40.15
-47.07
-55.39
-64.23
-72.59
-79.76
-85.66
-91.02
-96.97
-104.27
-112.64
-120.42
-125.07
-124.17
-116.31
-101.67
-81.92
-59.44
-36.57
-15.00
4.30
20.91
34.64
45.33
52.95
57.76
60.51
62.32
64.39
67.49
71.66
76.18
79.87
81.70
81.15
78.31
73.66
67.72
60.84
53.34
45.67
38.52
32.71
28.77
26.59
25.28
23.28
18.83
10.23
-3.62
-23.05
-47.39
-74.92
-103.05
-128.72
-149.11
-162.30
-167.64
-165.70
-157.92
-145.98
-131.53
-115.90
-100.27
-85.54
-72.29
-60.69
-50.44
-40.97
-31.81
-22.90
-14.60
-7.49
-2.00
1.87
4.54
6.66
8.72
10.94
13.23
15.40
17.39
19.29
21.33
23.57
25.81
27.53
28.11
27.05
24.30
20.29
15.78
11.63
8.46
6.39
4.98
3.31
0.31
-5.01
-13.05
-23.44
-34.93
-45.59
-53.28
-56.24
-53.60
-45.55
-33.23
-18.36
-2.74
12.08
24.98
35.30
42.80
47.52
49.82
50.18
49.25
47.67
46.03
44.82
44.31
44.57
45.43
46.60
47.76
48.68
49.32
49.78
50.23
50.67
50.93
50.57
49.06
46.00
41.28
35.16
28.22
21.12
14.33
8.04
2.08
-3.97
-10.60
-18.23
-27.02
-36.76
-46.68
-55.57
-61.90
-64.32
-62.07
-55.36
-45.21
-33.14
-20.63
-8.73
2.12
11.88
20.68
28.55
35.33
40.73
44.51
46.67
47.57
47.85
48.20
49.04
50.33
51.60
52.23
51.78
50.29
48.22
46.17
44.58
43.39
42.14
40.25
37.25
33.09
28.08
22.76
17.60
12.83
8.37
3.92
-0.85
-6.20
-12.24
-19.00
-26.45
-34.43
-42.38
-49.20
-53.36
-53.36
-48.32
-38.51
-25.29
-10.62
3.62
16.33
27.24
36.67
44.98
52.28
58.34
62.83
65.57
66.68
66.61
65.90
65.00
64.16
63.44
62.81
62.15
61.43
60.60
59.70
58.72
57.62
56.34
54.75
52.68
49.92
46.24
41.48
35.66
28.99
21.86
14.79
8.12
2.02
-3.71
-9.49
-15.88
-23.37
-32.14
-41.89
-51.75
-60.32
-65.92
-67.13
-63.12
-54.06
-41.09
-26.00
-10.78
2.97
14.30
23.04
29.59
34.52
38.30
41.09
42.89
43.66
43.51
42.76
41.78
40.81
39.91
39.02
38.08
37.16
36.40
35.86
35.40
34.70
33.39
31.32
28.52
25.21
21.59
17.72
13.61
9.29
4.94
0.81
-2.82
-5.90
-8.67
-11.61
-15.24
-19.99
-26.07
-33.44
-41.77
-50.41
-58.37
-64.39
-67.22
-66.00
-60.56
-51.58
-40.43
-28.74
-17.96
-8.98
-2.05
2.99
6.48
8.68
9.69
9.50
8.25
6.24
4.04
2.33
1.66
2.26
4.01
6.49
9.22
11.81
14.05
15.90
17.36
18.47
19.25
19.70
19.82
19.55
18.78
17.37
15.25
12.42
8.92
4.83
0.25
-4.67
-9.73
-14.76
-19.74
-24.80
-30.23
-36.18
-42.40
-48.04
-51.77
-52.25
-48.64
-40.94
-30.04
-17.38
-4.45
7.57
17.89
26.10
31.95
35.25
35.99
34.42
31.08
26.68
21.88
17.14
12.65
8.48
4.68
1.39
-1.32
-3.50
-5.36
-7.17
-9.14
-11.17
-13.02
-14.47
-15.51
-16.41
-17.52
-19.07
-20.97
-22.84
-24.25
-24.95
-25.03
-24.93
-25.23
-26.43
-28.86
-32.69
-37.86
-44.07
-50.67
-56.59
-60.47
-61.06
-57.71
-50.60
-40.78
-29.75
-18.91
-9.16
-0.74
6.52
12.92
18.58
23.42
27.33
30.28
32.47
34.25
36.00
37.96
40.16
42.44
44.54
46.20
47.24
47.57
47.19
46.16
44.49
42.16
39.13
35.38
30.98
26.07
20.84
15.46
10.07
4.82
-0.17
-4.75
-8.82
-12.37
-15.56
-18.66
-22.04
-26.02
-30.71
-35.92
-41.04
-45.20
-47.35
-46.64
-42.64
-35.52
-26.05
-15.43
-4.97
4.28
11.67
17.13
20.92
23.49
25.24
26.43
27.20
27.65
27.89
28.09
28.38
28.77
29.14
29.32
29.20
28.79
28.21
27.58
26.91
26.09
25.03
23.71
22.21
20.63
18.93
16.88
14.22
10.76
6.67
2.31
-1.84
-5.56
-8.94
-12.36
-16.31
-21.08
-26.71
-32.90
-39.11
-44.58
-48.47
-49.93
-48.34
-43.54
-35.94
-26.51
-16.48
-6.98
1.27
8.04
13.45
17.77
21.22
23.83
25.56
26.38
26.40
25.85
25.06
24.37
23.96
23.83
23.79
23.60
23.03
22.06
20.76
19.30
17.82
16.34
14.69
12.64
9.94
6.57
2.65
-1.51
-5.58
-9.34
-12.76
-15.91
-18.96
-22.04
-25.27
-28.79
-32.74
-37.16
-41.82
-46.05
-48.82
-48.99
-45.80
-39.21
-29.94
-19.19
-8.19
2.27
11.95
21.06
29.89
38.56
46.92
54.58
61.22
66.61
70.68
73.48
74.99
75.14
73.74
70.65
65.73
58.99
50.61
40.97
30.65
20.40
10.94
2.86
-3.62
-8.67
-12.76
-16.48
-20.28
-24.31
-28.42
-32.33
-35.80
-38.73
-41.28
-43.67
-46.12
-48.77
-51.56
-54.25
-56.36
-57.24
-56.27
-53.05
-47.55
-40.17
-31.67
-22.83
-14.31
-6.45
0.72
7.31
13.42
19.05
24.06
28.24
31.48
33.85
35.67
37.43
39.59
42.41
45.77
49.28
52.45
54.83
56.15
56.28
55.13
52.67
48.89
43.89
37.89
31.19
24.08
16.87
9.85
3.29
-2.51
-7.35
-11.21
-14.26
-16.81
-19.29
-22.06
-25.39
-29.39
-33.91
-38.46
-42.22
-44.23
-43.69
-40.28
-34.30
-26.68
-18.55
-10.93
-4.38
0.98
5.36
9.02
12.03
14.25
15.42
15.39
14.28
12.52
10.69
9.34
8.77
8.89
9.32
9.60
9.33
8.41
6.95
5.16
3.29
1.43
-0.49
-2.66
-5.31
-8.60
-12.46
-16.63
-20.77
-24.51
-27.73
-30.49
-33.01
-35.55
-38.35
-41.63
-45.55
-50.20
-55.36
-60.44
-64.43
-66.18
-64.73
-59.75
-51.62
-41.31
-30.11
-19.16
-9.27
-0.85
6.01
11.38
15.41
18.25
20.08
21.06
21.36
21.14
20.54
19.71
18.81
17.97
17.37
17.10
17.17
17.53
18.00
18.42
18.63
18.56
18.17
17.45
16.33
14.79
12.81
10.54
8.18
5.91
3.80
1.74
-0.50
-3.26
-6.87
-11.58
-17.55
-24.76
-32.91
-41.29
-48.82
-54.25
-56.57
-55.34
-50.90
-44.31
-36.84
-29.60
-23.20
-17.67
-12.74
-8.06
-3.51
0.80
4.57
7.48
9.38
10.36
10.69
10.74
10.77
10.88
10.93
10.71
10.02
8.84
7.30
5.69
4.26
3.14
2.22
1.32
0.24
-1.12
-2.70
-4.42
-6.22
-8.15
-10.29
-12.71
-15.40
-18.31
-21.48
-25.14
-29.63
-35.24
-41.90
-49.01
-55.43
-59.83
-61.10
-58.71
-52.86
-44.42
-34.56
-24.50
-15.15
-6.98
-0.01
6.03
11.50
16.68
21.60
26.13
30.06
33.29
35.88
38.01
39.84
41.37
42.42
42.73
42.16
40.77
38.88
36.86
34.97
33.24
31.46
29.30
26.50
22.90
18.46
13.30
7.58
1.58
-4.40
-10.01
-15.01
-19.32
-23.05
-26.55
-30.24
-34.51
-39.53
-45.14
-50.73
-55.31
-57.78
-57.14
-52.90
-45.29
-35.21
-24.00
-13.06
-3.43
4.44
10.61
15.53
19.70
23.44
26.86
29.90
32.41
34.37
35.84
36.91
37.65
38.04
38.05
37.72
37.24
36.84
36.72
36.88
37.11
37.02
36.20
34.37
31.45
27.57
23.02
18.15
13.30
8.75
4.67
1.13
-1.92
-4.57
-6.94
-9.20
-11.59
-14.34
-17.54
-20.92
-23.77
-25.01
-23.59
-18.99
-11.55
-2.49
6.46
13.66
18.08
19.42
18.07
14.69
9.99
4.50
-1.31
-7.07
-12.43
-17.15
-21.08
-24.15
-26.32
-27.58
-27.91
-27.41
-26.26
-24.81
-23.57
-23.10
-23.89
-26.05
-29.20
-32.47
-34.73
-35.13
-33.42
-30.06
-25.96
-22.09
-18.97
-16.66
-14.93
-13.63
-12.94
-13.38
-15.50
-19.56
-25.30
-31.89
-38.11
-42.68
-44.56
-43.15
-38.47
-31.04
-21.76
-11.68
-1.77
7.29
15.10
21.59
26.83
31.02
34.29
36.70
38.31
39.18
39.51
39.51
39.46
39.48
39.56
39.48
39.01
37.97
36.46
34.72
33.09
31.77
30.68
29.45
27.60
24.72
20.68
15.64
10.05
4.42
-0.75
-5.22
-9.04
-12.56
-16.32
-20.84
-26.46
-33.09
-40.24
-47.00
-52.28
-54.98
-54.27
-49.76
-41.64
-30.70
-18.17
-5.47
6.17
15.97
23.72
29.60
33.89
36.74
38.15
38.13
36.86
34.75
32.38
30.23
28.49
27.00
25.46
23.65
21.51
19.26
17.17
15.43
14.02
12.73
11.18
8.97
5.74
1.38
-3.93
-9.72
-15.28
-19.96
-23.35
-25.43
-26.58
-27.33
-28.26
-29.78
-32.12
-35.29
-39.11
-43.07
-46.33
-47.85
-46.64
-42.15
-34.48
-24.50
-13.55
-3.01
6.10
13.34
18.82
22.92
26.01
28.24
29.60
29.99
29.47
28.29
26.87
25.61
24.75
24.22
23.76
23.06
21.95
20.52
19.00
17.62
16.46
15.27
13.59
10.90
6.87
1.52
-4.74
-11.27
-17.43
-22.83
-27.40
-31.40
-35.30
-39.55
-44.52
-50.42
-57.19
-64.47
-71.45
-76.92
-79.55
-78.20
-72.37
-62.44
-49.61
-35.53
-21.82
-9.63
0.40
8.15
13.78
17.57
19.80
20.79
20.98
20.80
20.68
20.88
21.45
22.23
22.99
23.56
23.97
24.51
25.52
27.31
29.89
32.98
36.05
38.45
39.68
39.51
37.97
35.29
31.68
27.29
22.17
16.28
9.62
2.25
-5.75
-14.24
-22.93
-31.26
-38.28
-42.77
-43.53
-39.85
-31.92
-20.81
-8.11
4.59
16.23
26.40
35.16
42.73
49.15
54.30
57.96
60.02
60.59
59.95
58.47
56.51
54.36
52.17
50.02
47.87
45.65
43.27
40.68
37.85
34.72
31.17
26.99
22.03
16.26
9.88
3.30
-3.00
-8.71
-13.77
-18.36
-22.86
-27.62
-32.97
-39.04
-45.76
-52.73
-59.16
-63.86
-65.56
-63.22
-56.45
-45.75
-32.34
-17.82
-3.68
9.12
20.18
29.57
37.50
44.13
49.42
53.27
55.59
56.41
55.95
54.46
52.18
49.28
45.81
41.80
37.31
32.50
27.65
23.10
19.11
15.73
12.76
9.68
5.92
1.03
-5.05
-11.90
-18.77
-24.86
-29.68
-33.22
-35.98
-38.70
-42.13
-46.70
-52.44
-58.89
-65.26
-70.40
-73.15
-72.57
-68.15
-60.02
-48.94
-36.09
-22.82
-10.35
0.45
9.15
15.72
20.39
23.46
25.14
25.55
24.81
23.08
20.76
18.40
16.52
15.38
14.87
14.64
14.27
13.57
12.62
11.76
11.27
11.21
11.38
11.34
10.67
9.05
6.42
2.96
-1.03
-5.19
-9.34
-13.38
-17.33
-21.21
-25.03
-28.80
-32.64
-36.78
-41.39
-46.33
-50.86
-53.65
-53.19
-48.39
-39.13
-26.50
-12.33
1.52
13.84
24.29
33.13
40.64
46.81
51.26
53.62
53.90
52.65
50.74
48.93
47.56
46.45
45.11
43.05
40.03
36.09
31.56
26.93
22.64
19.00
16.05
13.51
10.87
7.65
3.60
-1.17
-6.17
-10.84
-14.79
-17.92
-20.50
-22.96
-25.74
-29.15
-33.28
-37.98
-42.84
-47.12
-49.83
-49.88
-46.40
-39.16
-28.78
-16.64
-4.51
6.02
14.03
19.37
22.49
24.07
24.61
24.40
23.54
22.12
20.33
18.42
16.59
14.83
12.96
10.73
8.01
4.91
1.73
-1.14
-3.39
-4.87
-5.63
-5.83
-5.70
-5.59
-5.85
-6.85
-8.78
-11.63
-15.08
-18.66
-21.88
-24.56
-26.81
-28.94
-31.39
-34.46
-38.36
-43.11
-48.47
-53.81
-58.16
-60.36
-59.35
-54.61
-46.38
-35.62
-23.71
-12.04
-1.58
7.17
14.18
19.72
24.05
27.42
29.93
31.63
32.56
32.85
32.70
32.38
32.10
31.93
31.81
31.52
30.79
29.46
27.58
25.40
23.27
21.48
20.07
18.84
17.40
15.36
12.53
8.90
4.69
0.21
-4.28
-8.62
-12.74
-16.72
-20.69
-24.90
-29.59
-34.94
-40.88
-46.97
-52.34
-55.87
-56.47
-53.46
-46.87
-37.53
-26.77
-16.02
-6.37
1.68
8.17
13.48
18.00
21.96
25.33
27.93
29.58
30.22
30.01
29.26
28.31
27.40
26.62
25.92
25.23
24.53
23.82
23.08
22.18
20.94
19.21
17.02
14.60
12.21
9.96
7.71
5.11
1.90
-1.97
-6.21
-10.39
-14.08
-17.19
-19.92
-22.79
-26.30
-30.79
-36.26
-42.31
-48.18
-52.89
-55.38
-54.78
-50.68
-43.29
-33.53
-22.78
-12.46
-3.59
3.54
9.24
14.20
18.96
23.61
27.82
31.09
33.15
34.09
34.30
34.24
34.18
34.08
33.74
32.95
31.66
30.00
28.12
26.16
24.11
21.88
19.37
16.51
13.35
10.01
6.63
3.35
0.24
-2.76
-5.82
-9.14
-12.73
-16.39
-19.68
-22.11
-23.47
-24.00
-24.43
-25.62
-28.13
-31.87
-35.97
-38.98
-39.46
-36.50
-30.09
-21.12
-10.99
-1.07
7.65
14.81
20.44
24.77
27.87
29.69
30.15
29.30
27.47
25.09
22.56
20.09
17.71
15.37
13.13
11.13
9.66
8.94
9.06
9.85
10.98
11.97
12.38
11.84
10.20
7.55
4.26
0.78
-2.50
-5.38
-7.96
-10.51
-13.38
-16.76
-20.73
-25.21
-30.25
-35.92
-42.30
-49.15
-55.68
-60.60
-62.46
-60.16
-53.58
-43.64
-32.01
-20.49
-10.31
-1.92
4.97
10.86
16.07
20.49
23.78
25.67
26.23
25.92
25.38
25.13
25.33
25.76
26.10
26.16
26.10
26.41
27.65
30.17
33.87
38.22
42.48
45.94
48.15
48.88
48.09
45.87
42.41
38.06
33.29
28.59
24.30
20.54
17.13
13.69
9.74
4.81
-1.37
-8.64
-16.28
-23.01
-27.41
-28.28
-25.22
-18.74
-10.10
-0.80
7.93
15.34
21.14
25.27
27.72
28.54
27.87
26.08
23.70
21.22
19.03
17.31
16.08
15.31
15.00
15.05
15.32
15.48
15.22
14.34
12.90
11.07
9.01
6.72
3.99
0.57
-3.64
-8.53
-13.86
-19.57
-25.95
-33.55
-42.91
-54.10
-66.56
-79.40
-91.77
-103.22
-113.76
-123.40
-131.76
-137.93
-140.79
-139.47
-133.91
-124.90
-113.72
-101.64
-89.49
-77.57
-65.83
-54.20
-42.72
-31.65
-21.33
-12.02
-3.77
3.60
10.43
17.02
23.52
29.80
35.56
40.43
44.18
46.74
48.25
48.92
48.94
48.47
47.63
46.47
44.95
42.85
39.70
34.88
27.80
18.12
5.89
-8.27
-23.35
-38.12
-51.47
-62.67
-71.38
-77.51
-80.97
-81.41
-78.29
-71.14
-59.96
-45.44
-28.92
-12.02
3.87
17.93
29.98
40.26
49.15
56.83
63.27
68.34
72.05
74.59
76.39
77.87
79.25
80.43
81.08
80.84
79.57
77.45
74.97
72.73
71.07
69.98
68.98
67.30
64.19
59.13
52.07
43.40
33.82
24.00
14.37
4.94
-4.62
-14.77
-25.88
-37.96
-50.56
-62.79
-73.45
-81.27
-85.18
-84.62
-79.66
-71.06
-59.99
-47.74
-35.39
-23.66
-12.91
-3.26
5.27
12.70
19.08
24.55
29.24
33.30
36.85
39.88
42.32
44.05
44.88
44.63
43.11
40.29
36.35
31.65
26.71
21.95
17.56
13.43
9.24
4.66
-0.46
-6.03
-11.78
-17.36
-22.56
-27.36
-31.89
-36.42
-41.27
-46.70
-52.83
-59.41
-65.70
-70.56
-72.60
-70.67
-64.32
-54.02
-41.10
-27.23
-14.00
-2.41
7.20
14.97
21.29
26.55
31.00
34.79
37.99
40.61
42.69
44.22
45.26
45.89
46.27
46.54
46.80
47.15
47.56
48.13
48.92
50.00
51.29
52.44
52.95
52.32
50.28
46.93
42.70
38.12
33.57
29.18
24.83
20.32
15.51
10.31
4.67
-1.49
-8.03
-14.48
-19.91
-23.08
-22.88
-18.79
-11.15
-1.06
10.02
20.76
30.30
38.38
45.16
50.94
55.91
59.99
62.85
64.02
63.10
59.97
54.88
48.44
41.40
34.47
28.07
22.31
17.01
11.92
6.83
1.74
-3.23
-7.85
-11.90
-15.25
-18.03
-20.51
-23.09
-26.17
-29.93
-34.29
-39.00
-43.81
-48.67
-53.80
-59.61
-66.40
-74.05
-81.97
-89.08
-94.13
-96.03
-94.13
-88.32
-79.13
-67.54
-54.83
-42.29
-30.90
-21.22
-13.29
-6.84
-1.51
2.90
6.38
8.81
10.20
10.74
10.84
10.94
11.34
12.17
13.39
14.98
16.92
19.32
22.21
25.49
28.85
31.85
33.96
34.77
34.04
31.79
28.26
23.95
19.38
14.95
10.80
6.84
2.83
-1.50
-6.38
-11.91
-18.03
-24.48
-30.65
-35.58
-38.10
-37.22
-32.47
-24.18
-13.41
-1.51
10.27
21.17
30.88
39.35
46.54
52.24
56.19
58.23
58.50
57.42
55.58
53.52
51.50
49.51
47.35
44.79
41.78
38.44
35.01
31.76
28.88
26.47
24.53
22.93
21.50
19.99
18.17
15.84
12.94
9.48
5.54
1.21
-3.46
-8.42
-13.76
-19.64
-26.36
-34.15
-43.07
-52.72
-62.13
-70.01
-75.02
-76.36
-74.02
-68.81
-62.02
-55.04
-48.95
-44.38
-41.58
-40.44
-40.62
-41.54
-42.48
-42.68
-41.52
-38.71
-34.40
-29.08
-23.39
-17.93
-13.14
-9.27
-6.46
-4.69
-3.76
-3.36
-3.01
-2.22
-0.62
1.96
5.44
9.50
13.69
17.54
20.63
22.72
23.70
23.56
22.30
19.82
15.98
10.64
3.73
-4.55
-13.64
-22.67
-30.49
-35.99
-38.38
-37.43
-33.61
-27.85
-21.24
-14.70
-8.78
-3.67
0.63
4.12
6.68
8.11
8.27
7.15
5.04
2.50
0.25
-0.98
-0.78
0.77
3.05
5.08
5.97
5.30
3.26
0.52
-2.19
-4.45
-6.31
-8.20
-10.59
-13.69
-17.40
-21.34
-25.17
-28.80
-32.38
-36.19
-40.42
-45.05
-49.91
-54.82
-59.71
-64.56
-69.16
-72.94
-74.99
-74.27
-70.05
-62.34
-51.93
-40.14
-28.37
-17.66
-8.50
-0.85
5.60
11.23
16.23
20.67
24.48
27.56
29.93
31.72
33.15
34.43
35.61
36.59
37.20
37.33
37.09
36.78
36.74
37.11
37.63
37.66
36.37
33.16
28.01
21.54
14.83
9.01
4.78
2.13
0.36
-1.52
-4.41
-8.71
-14.33
-20.73
-27.16
-32.83
-36.93
-38.74
-37.75
-33.76
-27.06
-18.45
-9.02
0.16
8.26
14.90
20.04
23.83
26.44
27.91
28.25
27.58
26.21
24.58
23.17
22.33
22.08
22.15
22.10
21.57
20.39
18.72
16.95
15.43
14.35
13.55
12.66
11.23
8.98
5.91
2.30
-1.43
-4.96
-8.16
-11.15
-14.20
-17.58
-21.44
-25.84
-30.78
-36.10
-41.47
-46.23
-49.42
-49.98
-47.06
-40.48
-30.80
-19.24
-7.25
3.99
13.84
22.25
29.47
35.72
40.98
45.05
47.72
49.01
49.24
48.91
48.54
48.46
48.75
49.22
49.59
49.64
49.33
48.81
48.42
48.50
49.27
50.64
52.22
53.37
53.45
52.05
49.18
45.30
41.24
38.01
36.57
37.62
41.35
47.33
54.55
61.55
66.82
69.27
68.62
65.61
61.82
59.15
59.08
62.07
67.34
73.17
77.50
78.81
76.51
71.00
63.18
53.92
43.71
32.71
21.17
9.74
-0.46
-8.16
-12.36
-12.76
-9.80
-4.37
2.55
10.21
18.08
25.78
32.83
38.57
42.34
43.69
42.68
39.86
36.18
32.65
30.04
28.72
28.64
29.47
30.78
32.19
33.40
34.17
34.20
33.14
30.65
26.52
20.88
14.27
7.62
2.03
-1.57
-2.74
-1.70
0.76
3.62
5.88
6.68
5.30
1.06
-6.57
-17.74
-31.77
-46.96
-60.91
-71.04
-75.58
-74.19
-68.02
-59.25
-50.25
-42.85
-38.02
-35.98
-36.54
-39.44
-44.61
-52.02
-61.48
-72.47
-83.90
-94.30
-102.14
-106.45
-107.46
-106.87
-107.54
-112.56
-124.07
-142.44
-166.17
-192.46
-218.02
-239.69
-254.72
-260.88
-256.67
-241.83
-217.74
-187.51
-155.27
-125.07
-99.73
-80.33
-66.34
-56.40
-49.09
-43.36
-38.58
-34.45
-30.79
-27.49
-24.53
-22.00
-20.04
-18.77
-18.19
-18.10
-18.13
-17.86
-16.94
-15.31
-13.21
-11.17
-9.85
-9.81
-11.31
-14.24
-18.14
-22.45
-26.68
-30.64
-34.37
-38.06
-41.99
-46.43
-51.65
-57.78
-64.72
-71.86
-78.07
-81.81
-81.61
-76.59
-66.83
-53.41
-37.98
-22.29
-7.53
5.72
17.45
27.87
37.11
45.06
51.44
55.96
58.49
59.27
58.81
57.74
56.67
55.89
55.42
55.04
54.55
53.81
52.85
51.80
50.73
49.56
47.99
45.64
42.13
37.33
31.38
24.78
18.13
11.90
6.20
0.83
-4.58
-10.31
-16.32
-22.29
-27.73
-32.07
-34.72
-34.97
-32.05
-25.31
-14.60
-0.54
15.45
31.53
46.04
57.97
67.23
74.27
79.65
83.65
86.08
86.57
84.89
81.24
76.26
70.87
65.89
61.80
58.66
56.22
54.18
52.38
50.81
49.52
48.46
47.22
45.23
41.92
37.02
30.77
23.82
16.93
10.66
5.12
-0.01
-5.29
-11.33
-18.54
-27.04
-36.51
-46.15
-54.67
-60.44
-61.89
-58.06
-48.98
-35.75
-20.23
-4.37
10.37
23.36
34.74
44.95
54.38
63.01
70.46
76.24
80.01
81.81
82.05
81.35
80.37
79.52
78.99
78.83
79.03
79.66
80.72
82.05
83.09
83.00
80.85
76.00
68.39
58.63
47.75
36.78
26.38
16.67
7.33
-2.15
-12.20
-23.11
-34.94
-47.50
-60.24
-72.10
-81.57
-86.95
-86.87
-80.87
-69.66
-54.94
-38.89
-23.46
-9.90
1.47
11.04
19.45
27.22
34.48
41.00
46.40
50.52
53.58
56.18
59.09
62.89
67.73
73.25
78.73
83.31
86.33
87.46
86.73
84.43
80.88
76.21
70.34
63.11
54.47
44.72
34.48
24.49
15.28
6.90
-1.09
-9.29
-18.21
-27.97
-38.39
-49.12
-59.69
-69.49
-77.53
-82.52
-83.12
-78.50
-68.73
-54.94
-38.92
-22.59
-7.35
6.04
17.46
27.06
34.95
41.16
45.66
48.52
49.93
50.25
49.86
49.04
47.99
46.74
45.19
43.23
40.77
37.86
34.75
31.72
28.98
26.54
24.13
21.35
17.75
13.11
7.49
1.24
-5.09
-10.98
-16.04
-20.24
-23.82
-27.24
-31.05
-35.68
-41.36
-47.97
-55.03
-61.69
-66.74
-68.91
-67.18
-61.15
-51.34
-39.09
-26.13
-14.00
-3.57
5.09
12.46
19.12
25.30
30.77
35.00
37.51
38.14
37.21
35.39
33.42
31.94
31.22
31.23
31.74
32.41
32.98
33.34
33.47
33.36
33.01
32.28
31.00
29.01
26.25
22.81
18.90
14.83
10.93
7.41
4.32
1.49
-1.45
-4.90
-9.18
-14.32
-19.96
-25.32
-29.34
-30.96
-29.46
-24.73
-17.43
-8.92
-0.91
4.79
6.89
4.96
-0.14
-6.39
-11.23
-12.57
-9.72
-3.68
3.29
8.77
11.11
9.92
5.71
-0.74
-8.95
-18.76
-29.87
-41.42
-51.93
-59.83
-64.04
-64.57
-62.32
-58.75
-55.24
-52.64
-51.22
-50.78
-50.86
-51.02
-50.99
-50.73
-50.44
-50.35
-50.65
-51.32
-52.11
-52.55
-52.03
-49.95
-45.80
-39.35
-30.73
-20.36
-8.94
2.75
13.98
24.18
33.04
40.43
46.42
51.01
54.17
55.74
55.63
53.87
50.71
46.58
42.06
37.64
33.71
30.41
27.67
25.26
22.93
20.56
18.15
15.88
13.91
12.22
10.48
8.20
4.95
0.65
-4.31
-9.23
-13.47
-16.78
-19.47
-22.12
-25.34
-29.45
-34.45
-40.10
-46.02
-51.71
-56.55
-59.77
-60.61
-58.57
-53.67
-46.46
-37.93
-29.15
-21.00
-13.92
-7.94
-2.87
1.53
5.39
8.66
11.17
12.88
13.90
14.58
15.29
16.35
17.79
19.40
20.91
22.13
23.01
23.67
24.20
24.59
24.67
24.14
22.71
20.12
16.27
11.25
5.35
-0.92
-7.01
-12.51
-17.31
-21.62
-25.87
-30.49
-35.73
-41.67
-48.10
-54.60
-60.43
-64.63
-66.08
-63.89
-57.71
-48.03
-35.97
-23.09
-10.70
0.45
10.15
18.51
25.56
31.08
34.69
36.10
35.36
33.00
29.82
26.60
23.85
21.70
19.95
18.30
16.55
14.70
12.96
11.51
10.44
9.54
8.34
6.35
3.23
-0.98
-5.95
-11.18
-16.27
-21.09
-25.73
-30.38
-35.15
-39.98
-44.86
-49.83
-55.15
-61.01
-67.32
-73.36
-77.94
-79.69
-77.56
-71.32
-61.55
-49.47
-36.41
-23.42
-11.13
0.12
10.14
18.60
25.13
29.48
31.65
32.03
31.28
30.15
29.19
28.61
28.28
27.90
27.21
26.19
25.04
24.06
23.44
23.08
22.63
21.63
19.65
16.56
12.45
7.64
2.47
-2.73
-7.86
-12.95
-18.21
-23.95
-30.43
-37.79
-45.82
-53.95
-61.25
-66.62
-69.02
-67.74
-62.64
-54.18
-43.31
-31.28
-19.31
-8.35
1.11
8.98
15.47
20.87
25.33
28.90
31.52
33.25
34.34
35.22
36.30
37.74
39.42
40.94
41.85
41.85
40.87
39.04
36.57
33.54
29.89
25.51
20.38
14.62
8.60
2.75
-2.58
-7.29
-11.53
-15.68
-20.20
-25.53
-31.98
-39.59
-48.01
-56.38
-63.42
-67.71
-68.11
-64.29
-56.83
-47.11
-36.68
-26.82
-18.20
-11.05
-5.45
-1.57
0.35
0.28
-1.32
-3.49
-5.13
-5.53
-4.58
-2.81
-0.95
0.43
1.24
1.75
2.31
3.14
4.17
5.15
5.72
5.54
4.36
2.07
-1.22
-5.10
-9.04
-12.53
-15.37
-17.74
-20.15
-23.18
-27.26
-32.55
-38.83
-45.49
-51.59
-55.82
-56.82
-53.55
-45.71
-34.01
-20.02
-5.65
7.51
18.59
27.54
34.80
40.93
46.30
51.01
54.95
57.98
60.03
61.09
61.30
60.81
59.77
58.29
56.42
54.32
52.20
50.42
49.30
48.99
49.28
49.64
49.42
48.09
45.45
41.74
37.41
32.87
28.30
23.57
18.38
12.38
5.32
-2.78
-11.52
-20.11
-27.35
-31.85
-32.49
-28.85
-21.40
-11.48
-0.70
9.58
18.72
26.73
33.94
40.53
46.24
50.55
53.00
53.57
52.76
51.35
50.04
49.13
48.50
47.80
46.69
45.07
43.07
40.96
38.96
37.05
34.96
32.26
28.62
23.97
18.57
12.93
7.52
2.57
-2.07
-6.83
-12.15
-18.32
-25.39
-33.15
-41.21
-48.99
-55.59
-59.93
-60.88
-57.70
-50.39
-39.77
-27.27
-14.48
-2.60
7.73
16.40
23.53
29.29
33.75
36.94
38.92
39.80
39.75
38.91
37.38
35.26
32.59
29.44
25.95
22.32
18.85
15.96
13.93
12.88
12.53
12.32
11.52
9.56
6.24
1.86
-3.02
-7.75
-11.87
-15.23
-17.99
-20.51
-23.24
-26.62
-30.97
-36.35
-42.50
-48.72
-53.95
-56.96
-56.65
-52.50
-44.72
-34.31
-22.72
-11.42
-1.44
6.79
13.39
18.71
23.08
26.60
29.22
30.91
31.81
32.29
32.78
33.55
34.51
35.36
35.69
35.30
34.23
32.73
31.05
29.24
27.18
24.55
21.14
16.93
12.12
7.11
2.30
-2.01
-5.63
-8.60
-11.08
-13.37
-15.83
-18.80
-22.44
-26.72
-31.38
-35.92
-39.72
-42.13
-42.55
-40.59
-36.19
-29.69
-21.76
-13.29
-5.11
2.12
8.12
12.89
16.55
19.18
20.81
21.45
21.21
20.35
19.28
18.37
17.90
17.89
18.16
18.41
18.28
17.58
16.30
14.63
12.95
11.57
10.64
9.97
9.13
7.66
5.26
1.97
-1.84
-5.75
-9.47
-12.98
-16.44
-20.10
-24.11
-28.47
-32.94
-37.15
-40.54
-42.54
-42.56
-40.26
-35.67
-29.22
-21.63
-13.79
-6.44
-0.00
5.48
10.22
14.48
18.32
21.54
23.71
24.43
23.55
21.35
18.43
15.47
12.99
11.11
9.62
8.23
6.74
5.21
3.88
2.98
2.56
2.41
2.12
1.30
-0.27
-2.57
-5.30
-8.04
-10.45
-12.37
-13.88
-15.21
-16.65
-18.45
-20.81
-23.84
-27.56
-31.75
-35.84
-38.88
-39.90
-38.22
-33.82
-27.39
-19.97
-12.65
-6.09
-0.47
4.33
8.42
11.74
14.13
15.50
16.01
16.03
16.03
16.28
16.77
17.27
17.50
17.28
16.57
15.50
14.22
12.86
11.46
9.98
8.34
6.53
4.53
2.37
0.05
-2.42
-5.06
-7.80
-10.60
-13.36
-16.05
-18.69
-21.40
-24.30
-27.51
-31.10
-35.02
-39.08
-42.96
-46.12
-47.97
-47.91
-45.61
-41.11
-34.87
-27.61
-20.11
-12.96
-6.45
-0.66
4.49
9.02
12.85
15.85
17.88
18.91
19.10
18.71
18.11
17.52
16.99
16.40
15.59
14.46
13.14
11.90
11.01
10.62
10.64
10.81
10.81
10.35
9.27
7.47
4.97
1.85
-1.70
-5.42
-9.02
-12.31
-15.22
-17.94
-20.73
-23.93
-27.78
-32.27
-37.02
-41.28
-44.04
-44.31
-41.47
-35.54
-27.25
-17.70
-8.04
0.85
8.56
15.01
20.25
24.32
27.23
29.01
29.81
29.91
29.58
29.09
28.56
28.00
27.34
26.54
25.66
24.81
24.18
23.79
23.54
23.12
22.14
20.32
17.59
14.14
10.34
6.51
2.84
-0.63
-3.92
-7.09
-10.25
-13.59
-17.38
-21.96
-27.51
-34.00
-41.06
-48.00
-53.86
-57.63
-58.42
-55.74
-49.62
-40.70
-30.03
-18.81
-8.02
1.69
10.12
17.29
23.27
28.08
31.69
34.03
35.15
35.18
34.37
33.01
31.34
29.48
27.49
25.30
22.89
20.30
17.73
15.43
13.67
12.55
11.93
11.44
10.67
9.30
7.21
4.50
1.38
-1.97
-5.41
-8.92
-12.54
-16.40
-20.70
-25.69
-31.57
-38.29
-45.33
-51.72
-56.17
-57.51
-55.09
-49.06
-40.30
-30.15
-19.87
-10.38
-2.09
4.95
10.88
15.71
19.30
21.40
21.89
20.88
18.77
16.12
13.45
11.03
8.79
6.37
3.42
-0.31
-4.69
-9.30
-13.59
-17.20
-20.20
-23.19
-27.05
-32.57
-39.95
-48.70
-57.63
-65.31
-70.55
-72.84
-72.45
-70.11
-66.70
-62.82
-58.69
-54.15
-48.77
-41.88
-32.56
-19.80
-2.94
17.83
41.17
64.81
86.24
103.64
116.36
124.93
130.40
133.61
134.79
133.70
130.12
124.41
117.63
111.19
106.33
103.64
102.83
102.97
102.84
101.45
98.32
93.51
87.42
80.43
72.66
63.97
54.19
43.38
31.98
20.76
10.47
1.58
-5.94
-12.56
-19.02
-26.04
-34.08
-43.17
-52.87
-62.35
-70.53
-76.36
-79.06
-78.27
-74.15
-67.38
-58.96
-50.07
-41.85
-35.15
-30.41
-27.64
-26.44
-26.31
-26.77
-27.51
-28.43
-29.59
-31.04
-32.78
-34.71
-36.61
-38.17
-39.06
-39.06
-38.07
-36.17
-33.63
-30.78
-27.98
-25.58
-23.86
-23.00
-23.10
-24.13
-25.97
-28.41
-31.08
-33.57
-35.48
-36.52
-36.52
-35.29
-32.52
-27.70
-20.19
-9.50
4.36
20.78
38.58
56.45
73.23
88.16
100.89
111.19
118.85
123.63
125.47
124.58
121.46
116.76
111.00
104.39
96.85
88.25
78.61
68.31
57.96
48.20
39.41
31.60
24.43
17.50
10.56
3.65
-3.00
-9.07
-14.35
-18.84
-22.75
-26.44
-30.36
-35.03
-40.90
-48.16
-56.46
-64.87
-72.00
-76.37
-76.99
-73.64
-66.98
-58.28
-48.95
-40.20
-32.68
-26.59
-21.69
-17.60
-13.96
-10.53
-7.30
-4.40
-2.03
-0.35
0.65
1.14
1.43
1.84
2.65
4.02
5.93
8.24
10.61
12.60
13.71
13.56
11.92
8.85
4.69
-0.09
-4.98
-9.61
-13.95
-18.26
-22.97
-28.39
-34.33
-40.00
-44.17
-45.62
-43.63
-38.38
-30.84
-22.43
-14.49
-7.88
-2.85
0.77
3.30
4.97
5.88
6.06
5.56
4.53
3.23
1.94
0.92
0.30
0.10
0.27
0.62
0.95
1.03
0.64
-0.40
-2.14
-4.49
-7.18
-9.85
-12.24
-14.31
-16.39
-19.02
-22.74
-27.78
-33.93
-40.50
-46.56
-51.13
-53.35
-52.68
-48.96
-42.56
-34.28
-25.19
-16.39
-8.62
-2.12
3.34
8.11
12.36
15.96
18.55
19.89
20.04
19.42
18.57
17.90
17.56
17.44
17.36
17.25
17.11
16.97
16.76
16.29
15.41
14.07
12.38
10.60
8.93
7.44
6.03
4.50
2.61
0.21
-2.85
-6.60
-10.95
-15.58
-19.87
-23.01
-24.14
-22.78
-18.93
-13.19
-6.50
0.16
6.02
10.69
14.03
16.04
16.78
16.33
14.93
12.93
10.79
8.91
7.53
6.63
5.98
5.34
4.55
3.61
2.63
1.80
1.28
1.10
1.21
1.39
1.33
0.65
-0.87
-3.21
-6.13
-9.26
-12.27
-15.14
-18.14
-21.73
-26.24
-31.58
-37.10
-41.72
-44.28
-44.00
-40.72
-34.95
-27.57
-19.54
-11.55
-4.00
2.95
9.19
14.55
18.72
21.43
22.61
22.44
21.37
19.93
18.58
17.58
16.93
16.50
16.08
15.60
15.03
14.46
13.87
13.16
12.14
10.55
8.22
5.14
1.46
-2.53
-6.44
-9.99
-13.02
-15.66
-18.27
-21.35
-25.38
-30.46
-36.22
-41.68
-45.62
-46.86
-44.76
-39.35
-31.38
-22.03
-12.54
-3.94
3.17
8.63
12.61
15.48
17.62
19.33
20.78
22.00
23.00
23.73
24.16
24.25
23.91
23.10
21.81
20.15
18.31
16.51
14.83
13.22
11.48
9.26
6.31
2.55
-1.89
-6.61
-11.19
-15.30
-18.84
-22.02
-25.21
-28.87
-33.36
-38.86
-45.31
-52.24
-58.80
-63.78
-65.85
-64.04
-58.07
-48.53
-36.79
-24.42
-12.81
-2.78
5.48
12.17
17.59
21.95
25.32
27.69
29.13
29.86
30.22
30.58
31.15
31.90
32.57
32.79
32.30
31.12
29.51
27.85
26.43
25.31
24.20
22.74
20.58
17.58
13.87
9.73
5.43
1.12
-3.23
-7.73
-12.50
-17.55
-22.83
-28.29
-33.95
-39.88
-46.03
-52.08
-57.35
-60.90
-61.82
-59.61
-54.42
-47.02
-38.57
-30.25
-22.85
-16.66
-11.57
-7.29
-3.68
-0.84
1.03
1.78
1.47
0.43
-0.90
-2.13
-3.10
-3.87
-4.56
-5.34
-6.29
-7.41
-8.69
-10.10
-11.57
-12.98
-14.10
-14.73
-14.69
-13.93
-12.57
-10.76
-8.74
-6.65
-4.58
-2.56
-0.60
1.13
2.34
2.53
1.22
-1.83
-6.33
-11.39
-15.62
-17.49
-15.90
-10.50
-1.88
8.74
19.93
30.53
39.90
47.91
54.68
60.32
64.77
67.91
69.62
69.98
69.34
68.18
67.04
66.28
66.04
66.26
66.69
67.01
66.93
66.22
64.82
62.79
60.22
57.29
54.12
50.79
47.30
43.60
39.61
35.29
30.65
25.82
20.89
15.94
10.93
5.75
0.32
-5.54
-11.97
-19.09
-26.91
-35.17
-43.19
-49.89
-54.04
-54.62
-51.31
-44.65
-35.89
-26.51
-17.75
-10.27
-4.23
0.56
4.33
7.19
9.24
10.59
11.50
12.30
13.22
14.27
15.24
15.85
15.91
15.41
14.55
13.64
12.92
12.51
12.30
12.04
11.31
9.68
6.87
2.84
-2.09
-7.35
-12.32
-16.51
-19.78
-22.29
-24.52
-26.99
-30.23
-34.63
-40.40
-47.42
-55.09
-62.38
-67.87
-70.21
-68.49
-62.58
-53.26
-41.93
-30.18
-19.29
-9.96
-2.27
4.03
9.21
13.32
16.19
17.64
17.66
16.62
15.13
13.89
13.39
13.71
14.58
15.53
16.14
16.23
15.82
15.03
13.93
12.45
10.42
7.67
4.04
-0.53
-6.04
-12.42
-19.35
-26.32
-32.59
-37.43
-40.41
-41.60
-41.66
-41.65
-42.58
-45.13
-49.31
-54.48
-59.52
-63.03
-63.68
-60.52
-53.23
-42.17
-28.38
-13.27
1.79
15.74
28.04
38.57
47.49
54.94
60.99
65.58
68.64
70.24
70.65
70.18
69.18
67.78
65.94
63.49
60.28
56.29
51.67
46.76
41.86
37.18
32.67
28.12
23.24
17.79
11.71
5.13
-1.66
-8.38
-14.82
-20.95
-26.94
-33.03
-39.45
-46.44
-54.12
-62.44
-70.99
-78.96
-85.02
-87.75
-85.97
-79.28
-68.21
-54.10
-38.77
-23.93
-10.83
-0.05
8.40
14.89
19.93
23.95
27.19
29.78
31.74
33.14
34.11
34.82
35.36
35.70
35.67
35.12
34.00
32.44
30.62
28.68
26.61
24.16
21.03
16.91
11.63
5.27
-1.88
-9.37
-16.68
-23.36
-29.19
-34.28
-39.01
-44.02
-49.91
-57.02
-65.17
-73.45
-80.31
-83.93
-82.72
-75.96
-64.04
-48.42
-31.05
-13.75
2.31
16.70
29.56
41.10
51.33
60.00
66.89
71.93
75.43
77.90
79.77
81.24
82.18
82.26
81.27
79.25
76.58
73.77
71.24
69.05
66.81
63.86
59.43
53.06
44.69
34.79
24.16
13.72
4.16
-4.24
-11.69
-18.78
-26.22
-34.53
-43.93
-54.23
-64.87
-74.93
-83.13
-88.03
-88.34
-83.29
-73.04
-58.81
-42.65
-26.80
-13.05
-2.24
5.73
11.55
16.02
19.65
22.58
24.70
25.92
26.28
25.99
25.27
24.25
22.91
21.10
18.75
15.88
12.70
9.55
6.76
4.55
2.89
1.49
-0.16
-2.61
-6.24
-11.06
-16.70
-22.46
-27.60
-31.64
-34.51
-36.62
-38.67
-41.41
-45.40
-50.79
-57.23
-63.82
-69.23
-71.92
-70.55
-64.31
-53.30
-38.49
-21.62
-4.66
10.73
23.49
33.36
40.64
45.81
49.27
51.22
51.73
50.94
49.23
47.13
45.21
43.76
42.65
41.45
39.65
36.98
33.50
29.59
25.70
22.13
18.90
15.74
12.29
8.29
3.70
-1.20
-5.99
-10.25
-13.65
-16.14
-17.97
-19.60
-21.58
-24.45
-28.60
-34.15
-40.87
-48.08
-54.66
-59.22
-60.35
-57.06
-49.13
-37.24
-22.83
-7.76
6.30
18.23
27.64
34.76
40.14
44.34
47.68
50.23
51.89
52.55
52.21
51.06
49.37
47.38
45.27
43.13
41.02
39.06
37.45
36.38
35.89
35.84
35.87
35.56
34.58
32.81
30.33
27.31
24.00
20.62
17.41
14.51
11.90
9.32
6.21
2.04
-3.47
-9.98
-16.50
-21.58
-23.78
-22.17
-16.66
-7.99
2.54
13.53
23.82
32.72
39.98
45.57
49.59
52.07
53.02
52.51
50.77
48.24
45.40
42.62
40.08
37.75
35.46
33.11
30.66
28.19
25.75
23.28
20.67
17.74
14.35
10.49
6.13
1.27
-4.10
-9.97
-16.20
-22.55
-28.72
-34.46
-39.67
-44.56
-49.52
-55.05
-61.55
-69.16
-77.56
-86.00
-93.32
-98.22
-99.61
-96.96
-90.52
-81.25
-70.51
-59.57
-49.33
-40.19
-32.20
-25.26
-19.30
-14.34
-10.35
-7.09
-4.09
-0.82
3.17
8.03
13.58
19.42
25.12
30.39
35.04
39.01
42.27
44.78
46.47
47.24
47.10
46.04
44.06
41.18
37.44
33.01
28.20
23.44
19.05
15.14
11.47
7.62
3.09
-2.42
-8.90
-16.10
-23.50
-30.40
-35.92
-39.06
-38.88
-34.85
-27.14
-16.73
-5.16
5.98
15.53
23.06
28.79
33.19
36.58
38.93
39.99
39.53
37.71
35.09
32.48
30.54
29.50
29.13
28.92
28.41
27.43
26.16
24.95
24.07
23.54
23.11
22.44
21.25
19.43
16.96
13.84
10.03
5.54
0.51
-4.74
-9.78
-14.37
-18.56
-22.81
-27.80
-34.16
-42.06
-51.00
-59.87
-67.19
-71.55
-71.98
-68.25
-60.84
-50.86
-39.66
-28.61
-18.79
-10.77
-4.66
-0.18
3.16
5.79
7.94
9.65
10.86
11.54
11.77
11.75
11.68
11.67
11.75
11.95
12.30
12.91
13.79
14.83
15.71
16.02
15.38
13.64
10.91
7.47
3.69
-0.14
-3.90
-7.64
-11.54
-15.84
-20.82
-26.73
-33.70
-41.67
-50.22
-58.52
-65.40
-69.66
-70.38
-67.34
-61.06
-52.67
-43.48
-34.50
-26.26
-18.81
-12.02
-5.90
-0.70
3.15
5.31
5.85
5.24
4.26
3.63
3.79
4.69
5.96
7.10
7.71
7.65
7.03
6.09
5.08
4.16
3.32
2.37
0.97
-1.20
-4.27
-8.15
-12.40
-16.40
-19.68
-22.03
-23.68
-25.16
-27.11
-29.98
-34.05
-39.20
-44.99
-50.68
-55.20
-57.38
-56.19
-51.14
-42.45
-31.12
-18.54
-6.15
5.04
14.58
22.49
29.01
34.37
38.61
41.64
43.37
43.83
43.31
42.22
41.03
40.07
39.43
39.02
38.66
38.19
37.48
36.46
35.04
33.13
30.74
27.92
24.86
21.65
18.31
14.70
10.73
6.41
1.92
-2.38
-6.27
-9.69
-12.83
-16.01
-19.54
-23.68
-28.54
-34.10
-40.06
-45.78
-50.20
-52.14
-50.57
-45.07
-35.96
-24.27
-11.44
1.13
12.43
22.03
29.96
36.54
42.10
46.78
50.54
53.23
54.74
55.15
54.76
54.00
53.33
52.96
52.78
52.42
51.37
49.25
45.99
41.84
37.31
32.89
28.88
25.23
21.63
17.65
12.99
7.57
1.62
-4.50
-10.36
-15.71
-20.44
-24.69
-28.73
-32.86
-37.41
-42.63
-48.69
-55.53
-62.79
-69.61
-74.77
-76.94
-75.15
-69.21
-59.79
-48.28
-36.27
-25.05
-15.33
-7.28
-0.74
4.50
8.52
11.25
12.61
12.66
11.61
9.84
7.83
6.02
4.65
3.70
2.94
2.01
0.63
-1.35
-3.84
-6.62
-9.49
-12.39
-15.41
-18.70
-22.34
-26.16
-29.80
-32.73
-34.47
-34.82
-33.93
-32.29
-30.50
-29.10
-28.38
-28.49
-29.48
-31.45
-34.37
-37.85
-40.97
-42.29
-40.37
-34.30
-24.31
-11.75
1.33
13.02
22.20
28.80
33.54
37.29
40.57
43.29
45.02
45.33
44.21
42.08
39.61
37.40
35.79
34.77
34.11
33.57
33.05
32.62
32.39
32.37
32.43
32.32
31.73
30.44
28.38
25.54
21.96
17.73
13.01
8.06
3.21
-1.26
-5.30
-9.21
-13.52
-18.75
-25.16
-32.60
-40.52
-48.14
-54.53
-58.72
-59.82
-57.16
-50.58
-40.53
-28.13
-14.79
-1.83
9.83
19.83
28.19
35.05
40.45
44.35
46.67
47.52
47.11
45.78
43.87
41.72
39.55
37.57
35.92
34.70
33.84
33.20
32.56
31.70
30.49
28.95
27.20
25.35
23.48
21.55
19.46
17.11
14.42
11.38
8.01
4.45
0.90
-2.32
-4.87
-6.51
-7.19
-7.13
-6.68
-6.09
-5.37
-4.16
-1.94
1.76
7.13
13.96
21.66
29.49
36.77
43.04
48.15
52.23
55.56
58.40
60.79
62.56
63.38
62.96
61.22
58.31
54.53
50.21
45.48
40.35
34.75
28.66
22.18
15.53
8.95
2.63
-3.25
-8.67
-13.62
-18.24
-22.76
-27.43
-32.42
-37.65
-42.85
-47.68
-51.87
-55.46
-58.75
-62.19
-66.16
-70.80
-76.01
-81.51
-86.90
-91.68
-95.14
-96.36
-94.40
-88.55
-78.72
-65.59
-50.48
-34.95
-20.35
-7.44
3.68
13.32
21.86
29.48
36.02
41.25
45.00
47.47
49.19
50.89
53.20
56.36
60.18
64.18
67.96
71.37
74.49
77.25
79.10
78.73
74.48
64.87
49.40
28.94
5.57
-18.04
-39.42
-56.95
-70.10
-79.27
-85.44
-89.87
-93.77
-98.16
-103.70
-110.49
-118.01
-125.16
-130.49
-132.49
-130.05
-122.71
-110.89
-95.76
-78.90
-61.96
-46.23
-32.45
-20.80
-11.09
-2.95
3.88
9.54
14.10
17.58
20.10
21.82
22.97
23.67
24.04
24.14
24.07
24.04
24.17
24.53
24.98
25.18
24.76
23.44
21.09
17.80
13.70
8.98
3.83
-1.48
-6.64
-11.35
-15.50
-19.29
-23.15
-27.65
-33.23
-40.02
-47.78
-55.90
-63.38
-69.11
-71.98
-71.17
-66.40
-58.02
-46.87
-34.11
-20.91
-8.25
3.20
13.03
21.04
27.22
31.66
34.62
36.37
37.21
37.40
37.15
36.63
35.95
35.13
34.17
32.98
31.51
29.77
27.92
26.16
24.71
23.59
22.57
21.10
18.53
14.30
8.30
0.88
-7.25
-15.24
-22.52
-28.98
-34.89
-40.79
-47.18
-54.35
-62.35
-70.95
-79.63
-87.60
-93.76
-96.87
-95.82
-90.00
-79.62
-65.67
-49.73
-33.53
-18.53
-5.59
5.05
13.55
20.31
25.64
29.70
32.64
34.59
35.83
36.79
37.85
39.29
41.13
43.22
45.38
47.48
49.54
51.58
53.53
55.15
56.10
56.10
54.99
52.85
49.89
46.44
42.78
39.22
35.98
33.15
30.62
28.05
24.94
20.77
15.30
8.66
1.51
-5.10
-9.88
-11.65
-9.61
-3.56
6.00
17.98
30.98
43.60
54.72
63.63
70.09
74.12
75.86
75.52
73.34
69.68
65.07
60.12
55.50
51.64
48.69
46.46
44.49
42.29
39.48
35.98
32.01
27.90
24.01
20.42
16.93
13.11
8.56
3.14
-2.97
-9.28
-15.31
-20.79
-25.83
-30.75
-35.93
-41.67
-48.08
-55.21
-62.87
-70.54
-77.19
-81.40
-81.65
-76.98
-67.36
-53.85
-38.23
-22.36
-7.64
5.26
16.23
25.48
33.16
39.27
43.75
46.57
47.83
47.79
46.74
45.01
42.87
40.49
37.94
35.22
32.26
29.05
25.66
22.24
18.98
15.97
13.14
10.23
6.96
3.13
-1.16
-5.53
-9.48
-12.57
-14.62
-15.80
-16.61
-17.71
-19.72
-23.13
-28.18
-34.73
-42.26
-49.80
-56.07
-59.77
-59.89
-56.07
-48.68
-38.77
-27.69
-16.77
-6.98
1.23
7.86
13.14
17.34
20.59
22.80
23.86
23.75
22.64
20.92
19.01
17.24
15.74
14.49
13.39
12.36
11.37
10.35
9.21
7.78
5.96
3.73
1.10
-1.88
-5.29
-9.21
-13.71
-18.70
-23.95
-29.22
-34.37
-39.39
-44.38
-49.32
-54.09
-58.49
-62.34
-65.55
-68.01
-69.32
-68.77
-65.37
-58.31
-47.36
-33.23
-17.43
-1.78
12.14
23.56
32.56
39.75
45.84
51.13
55.44
58.31
59.36
58.62
56.57
53.97
51.52
49.57
48.06
46.69
45.18
43.38
41.37
39.33
37.39
35.56
33.67
31.41
28.48
24.60
19.70
13.93
7.60
1.11
-5.27
-11.45
-17.53
-23.62
-29.82
-36.16
-42.62
-49.31
-56.37
-63.78
-71.12
-77.33
-80.96
-80.61
-75.54
-66.07
-53.46
-39.47
-25.53
-12.39
-0.04
11.91
23.61
34.70
44.38
51.78
56.44
58.52
58.72
57.88
56.57
54.94
52.73
49.55
45.20
39.88
34.21
28.99
24.92
22.36
21.17
20.79
20.51
19.71
18.00
15.30
11.72
7.45
2.75
-2.11
-6.86
-11.35
-15.56
-19.68
-24.05
-29.04
-34.78
-40.97
-46.81
-51.10
-52.55
-50.13
-43.52
-33.23
-20.56
-7.22
5.16
15.53
23.60
29.73
34.58
38.72
42.34
45.28
47.27
48.19
48.22
47.80
47.41
47.31
47.50
47.73
47.78
47.51
46.92
46.11
45.12
43.89
42.25
40.09
37.29
33.86
29.88
25.51
20.93
16.41
12.15
8.32
4.88
1.69
-1.52
-5.00
-8.99
-13.64
-19.01
-24.89
-30.76
-35.66
-38.39
-37.81
-33.36
-25.34
-14.92
-3.80
6.29
14.16
19.35
22.07
22.86
22.32
20.93
19.19
17.77
17.59
19.60
24.48
32.16
41.87
52.25
61.91
69.86
75.70
79.46
81.33
81.31
79.13
74.55
67.57
58.67
48.73
38.77
29.54
21.33
13.90
6.78
-0.48
-8.08
-15.94
-23.89
-31.89
-40.11
-48.91
-58.50
-68.65
-78.54
-86.90
-92.38
-94.05
-91.77
-86.23
-78.67
-70.53
-62.88
-56.23
-50.57
-45.62
-41.09
-36.96
-33.39
-30.64
-28.86
-28.00
-27.76
-27.68
-27.25
-26.05
-23.86
-20.75
-17.02
-13.14
-9.54
-6.54
-4.25
-2.68
-1.76
-1.51
-2.00
-3.26
-5.24
-7.74
-10.52
-13.37
-16.21
-19.05
-22.02
-25.26
-29.00
-33.52
-39.15
-46.06
-54.01
-62.28
-69.69
-74.87
-76.61
-74.30
-68.11
-58.92
-48.03
-36.81
-26.29
-16.95
-8.79
-1.46
5.38
11.84
17.76
22.83
26.81
29.78
32.03
33.93
35.66
37.09
37.87
37.69
36.45
34.42
32.06
29.75
27.68
25.64
23.20
19.94
15.66
10.50
4.90
-0.69
-5.91
-10.72
-15.28
-19.84
-24.60
-29.62
-35.00
-40.86
-47.42
-54.76
-62.48
-69.54
-74.36
-75.32
-71.40
-62.71
-50.53
-36.80
-23.44
-11.71
-2.01
5.94
12.60
18.28
22.97
26.51
28.79
29.90
30.20
30.08
29.93
29.88
29.91
29.81
29.34
28.44
27.22
25.94
24.88
24.14
23.49
22.47
20.53
17.31
12.74
7.10
0.87
-5.40
-11.23
-16.37
-20.80
-24.81
-28.87
-33.54
-39.27
-46.22
-54.04
-61.88
-68.45
-72.30
-72.24
-67.61
-58.59
-46.14
-31.75
-17.04
-3.34
8.57
18.40
26.19
32.16
36.46
39.28
40.84
41.49
41.63
41.64
41.78
42.07
42.37
42.41
41.92
40.76
39.01
36.90
34.82
33.03
31.57
30.14
28.23
25.36
21.30
16.14
10.29
4.24
-1.61
-7.08
-12.25
-17.34
-22.61
-28.35
-34.81
-42.10
-50.11
-58.23
-65.30
-69.79
-70.24
-65.76
-56.49
-43.59
-28.93
-14.45
-1.62
8.86
17.01
23.25
28.08
31.79
34.49
36.24
37.14
37.43
37.44
37.42
37.40
37.18
36.41
34.85
32.55
29.91
27.52
25.82
24.85
24.10
22.70
19.79
14.93
8.26
0.54
-7.23
-14.17
-19.86
-24.40
-28.36
-32.47
-37.45
-43.80
-51.63
-60.64
-69.93
-78.09
-83.37
-84.15
-79.52
-69.60
-55.63
-39.54
-23.29
-8.39
4.44
15.15
23.98
31.19
36.86
40.92
43.33
44.23
43.99
43.12
42.03
40.99
40.02
38.96
37.69
36.19
34.61
33.16
32.05
31.24
30.51
29.48
27.68
24.80
20.76
15.83
10.55
5.53
1.17
-2.55
-6.11
-10.29
-15.80
-23.00
-31.65
-40.99
-49.83
-56.78
-60.49
-59.94
-54.70
-45.16
-32.49
-18.43
-4.68
7.51
17.71
26.11
33.23
39.45
44.80
49.00
51.75
52.98
52.97
52.20
51.17
50.15
49.12
47.88
46.20
44.06
41.58
39.06
36.80
34.91
33.28
31.55
29.30
26.14
21.91
16.65
10.72
4.63
-1.09
-6.07
-10.28
-14.03
-17.88
-22.46
-28.21
-35.21
-43.11
-51.13
-58.11
-62.77
-63.89
-60.75
-53.34
-42.47
-29.53
-16.13
-3.58
7.36
16.52
24.03
30.05
34.57
37.52
38.90
39.01
38.41
37.76
37.52
37.81
38.31
38.49
37.87
36.22
33.74
30.97
28.49
26.67
25.48
24.53
23.18
20.89
17.43
12.93
7.80
2.54
-2.49
-7.13
-11.43
-15.54
-19.69
-24.16
-29.27
-35.24
-42.05
-49.25
-55.89
-60.67
-62.30
-59.96
-53.59
-43.95
-32.37
-20.28
-8.80
1.47
10.41
18.07
24.48
29.54
33.02
34.84
35.12
34.30
32.98
31.70
30.75
30.15
29.70
29.12
28.25
27.07
25.63
24.06
22.32
20.29
17.71
14.35
10.14
5.28
0.17
-4.69
-8.95
-12.60
-15.94
-19.43
-23.51
-28.34
-33.87
-39.86
-46.03
-52.06
-57.45
-61.40
-62.89
-60.96
-55.14
-45.75
-33.90
-21.08
-8.71
2.32
11.69
19.50
26.03
31.49
36.05
39.89
43.14
45.89
48.03
49.32
49.63
49.05
48.06
47.39
47.61
48.92
50.96
52.99
54.18
53.88
51.80
47.93
42.65
36.81
31.73
29.06
30.09
35.07
42.57
49.64
52.63
48.62
36.49
17.33
-6.09
-30.42
-52.77
-71.19
-84.63
-92.57
-94.72
-91.16
-82.60
-70.57
-57.19
-44.60
-34.23
-26.41
-20.45
-15.17
-9.56
-3.36
2.96
8.48
12.36
14.29
14.65
14.24
13.92
14.23
15.19
16.44
17.51
18.06
17.99
17.33
16.17
14.41
11.92
8.55
4.30
-0.63
-5.92
-11.22
-16.19
-20.56
-24.06
-26.44
-27.54
-27.45
-26.64
-25.85
-25.78
-26.76
-28.37
-29.53
-28.80
-25.02
-17.75
-7.62
3.81
14.48
22.37
25.99
24.73
18.99
10.05
-0.27
-10.07
-17.91
-23.09
-25.71
-26.31
-25.50
-23.61
-20.68
-16.69
-11.85
-6.73
-2.11
1.34
3.36
4.17
4.20
3.81
3.07
1.72
-0.58
-4.09
-8.77
-14.28
-20.12
-25.77
-30.81
-35.02
-38.48
-41.49
-44.63
-48.63
-54.19
-61.77
-71.36
-82.23
-93.01
-101.88
-107.03
-107.19
-101.98
-92.07
-78.87
-64.16
-49.56
-36.30
-25.06
-16.04
-9.10
-3.89
-0.03
2.87
5.06
6.70
7.97
9.12
10.47
12.25
14.52
16.99
19.21
20.84
21.82
22.42
23.07
23.95
24.87
25.28
24.59
22.57
19.45
15.87
12.55
9.91
7.84
5.78
2.96
-1.22
-7.08
-14.47
-22.91
-31.55
-39.25
-44.68
-46.64
-44.38
-37.96
-28.30
-16.83
-5.06
5.92
15.68
24.30
31.97
38.69
44.15
47.95
49.95
50.44
50.10
49.69
49.68
50.09
50.52
50.40
49.36
47.40
44.95
42.63
40.96
40.07
39.64
38.95
37.13
33.49
27.84
20.58
12.61
4.94
-1.71
-7.18
-11.92
-16.80
-22.78
-30.59
-40.43
-51.83
-63.62
-74.07
-81.25
-83.52
-80.01
-71.00
-57.78
-42.27
-26.36
-11.36
2.15
14.21
25.10
35.00
43.84
51.36
57.30
61.57
64.27
65.66
66.03
65.58
64.44
62.68
60.47
57.98
55.47
53.04
50.57
47.69
43.99
39.12
33.00
25.90
18.30
10.76
3.73
-2.59
-8.30
-13.82
-19.78
-26.83
-35.45
-45.58
-56.60
-67.25
-75.96
-81.26
-82.24
-78.77
-71.58
-61.89
-51.08
-40.26
-30.11
-20.87
-12.58
-5.25
1.04
6.08
9.74
12.11
13.54
14.66
16.09
18.28
21.30
24.82
28.33
31.42
33.97
36.10
38.03
39.74
40.89
40.94
39.54
36.75
33.08
29.23
25.67
22.45
19.18
15.36
10.52
4.44
-2.92
-11.43
-20.68
-29.85
-37.68
-42.65
-43.45
-39.51
-31.26
-19.99
-7.38
4.99
16.07
25.43
33.06
39.20
43.99
47.50
49.62
50.15
48.96
46.01
41.40
35.34
28.08
19.76
10.60
0.94
-8.61
-17.11
-23.64
-27.60
-29.02
-28.67
-27.70
-27.26
-28.06
-30.23
-33.44
-37.11
-40.78
-44.22
-47.49
-50.81
-54.46
-58.52
-62.66
-66.03
-67.45
-65.66
-59.87
-50.01
-36.86
-21.79
-6.30
8.36
21.47
32.72
42.07
49.62
55.49
59.84
62.85
64.77
65.78
66.06
65.72
64.79
63.25
61.04
58.12
54.58
50.68
46.87
43.61
41.09
39.08
37.00
34.17
30.23
25.35
20.17
15.42
11.56
8.46
5.55
2.13
-2.27
-7.72
-13.83
-19.96
-25.28
-28.96
-30.27
-28.77
-24.38
-17.64
-9.47
-1.03
6.63
12.83
17.36
20.37
22.17
23.14
23.57
23.64
23.42
22.88
21.95
20.59
18.87
17.00
15.30
14.11
13.70
14.14
15.24
16.57
17.58
17.71
16.58
14.18
10.83
7.19
3.95
1.59
0.17
-0.73
-1.84
-3.91
-7.35
-11.98
-16.96
-21.07
-23.04
-22.05
-18.01
-11.52
-3.65
4.57
12.43
19.60
26.11
32.06
37.46
42.14
45.71
47.56
46.94
43.27
36.50
27.51
18.12
10.77
7.67
9.92
17.13
27.47
38.48
48.07
55.17
59.88
63.08
65.73
68.30
70.55
71.75
71.11
68.17
63.00
56.00
47.63
38.13
27.51
15.90
3.88
-7.39
-16.38
-21.74
-22.90
-20.40
-15.76
-10.91
-7.58
-6.70
-8.40
-12.09
-16.88
-21.88
-26.45
-30.25
-33.21
-35.51
-37.33
-38.86
-39.97
-40.26
-39.09
-35.85
-30.22
-22.40
-13.10
-3.44
5.43
12.57
17.34
19.46
18.84
15.60
9.96
2.30
-6.88
-17.04
-27.67
-38.53
-49.52
-60.64
-71.74
-82.29
-91.40
-97.99
-101.23
-100.83
-97.21
-91.35
-84.39
-77.28
-70.52
-64.22
-58.35
-52.95
-48.24
-44.50
-41.90
-40.30
-39.23
-38.17
-36.69
-34.73
-32.63
-30.87
-29.89
-29.78
-30.29
-30.97
-31.44
-31.58
-31.52
-31.62
-32.17
-33.31
-35.01
-37.15
-39.61
-42.40
-45.56
-49.18
-53.26
-57.69
-62.20
-66.43
-69.91
-72.08
-72.33
-70.06
-64.93
-56.94
-46.62
-34.95
-23.18
-12.42
-3.38
3.78
9.34
13.70
17.15
19.71
21.22
21.54
20.73
19.11
17.07
14.96
12.86
10.70
8.37
5.89
3.52
1.63
0.54
0.31
0.70
1.21
1.40
1.02
0.18
-0.77
-1.44
-1.65
-1.48
-1.31
-1.66
-2.95
-5.29
-8.34
-11.34
-13.32
-13.44
-11.17
-6.49
0.11
7.69
15.00
20.78
24.00
24.20
21.66
17.35
12.68
9.01
7.04
6.60
6.78
6.37
4.48
0.87
-4.12
-9.92
-16.00
-21.92
-27.25
-31.40
-33.69
-33.63
-31.33
-27.67
-24.02
-21.72
-21.47
-23.16
-25.88
-28.51
-30.16
-30.69
-30.60
-30.79
-32.11
-34.79
-38.32
-41.41
-42.46
-40.07
-33.63
-23.47
-10.56
3.80
18.39
32.30
44.89
55.77
64.63
71.20
75.36
77.41
77.89
77.32
75.89
73.44
69.70
64.43
57.61
49.59
41.65
35.29
31.50
30.15
30.10
29.85
28.19
24.66
19.74
15.58
14.65
18.52
26.76
37.15
46.71
52.74
53.72
49.80
43.92
39.90
41.05
48.55
61.77
79.45
100.52
124.34
143.06
149.08
138.96
116.45
88.43
60.35
34.87
12.63
-6.98
-25.01
-40.29
-52.45
-60.25
-62.94
-60.64
-54.23
-45.29
-35.98
-28.38
-23.01
-19.79
-17.75
-15.76
-12.80
-8.09
-1.71
5.18
10.56
12.86
11.06
5.19
-4.29
-16.56
-30.27
-43.47
-53.73
-58.47
-55.36
-43.43
-23.65
0.92
26.05
47.82
63.80
73.41
77.58
78.02
76.28
73.50
70.33
67.27
64.93
63.99
64.97
67.83
71.86
75.81
78.34
78.49
75.98
71.20
64.99
58.16
51.23
44.21
36.72
28.21
18.20
6.34
-7.46
-23.13
-40.44
-58.93
-77.85
-96.10
-112.28
-124.88
-132.56
-134.51
-130.69
-121.92
-109.79
-96.23
-83.01
-71.16
-60.86
-51.53
-42.36
-32.79
-22.84
-13.09
-4.22
3.34
9.63
15.10
20.32
25.68
31.21
36.72
41.92
46.64
50.77
54.19
56.62
57.63
56.76
53.73
48.61
41.84
34.15
26.28
18.79
11.83
5.09
-2.06
-10.30
-19.87
-30.35
-40.51
-48.68
-53.20
-53.05
-48.22
-39.66
-28.90
-17.51
-6.59
3.37
12.31
20.30
27.30
33.04
37.08
39.10
38.98
36.97
33.59
29.54
25.41
21.63
18.37
15.65
13.44
11.72
10.45
9.52
8.73
7.74
6.22
3.94
0.83
-2.99
-7.33
-11.95
-16.66
-21.38
-26.14
-31.10
-36.33
-41.70
-46.73
-50.55
-52.08
-50.47
-45.40
-37.31
-27.38
-17.10
-7.87
-0.60
4.43
7.43
8.87
9.19
8.69
7.58
6.02
4.28
2.74
1.83
1.89
3.01
5.03
7.55
10.10
12.27
13.77
14.41
14.09
12.76
10.48
7.46
4.06
0.68
-2.31
-4.83
-7.05
-9.28
-11.90
-15.08
-18.77
-22.77
-26.75
-30.34
-33.10
-34.52
-34.07
-31.34
-26.32
-19.50
-11.75
-4.14
2.50
7.72
11.56
14.29
16.09
16.93
16.65
15.07
12.23
8.49
4.35
0.25
-3.51
-6.87
-9.82
-12.29
-14.19
-15.34
-15.64
-15.13
-14.03
-12.64
-11.36
-10.45
-10.03
-10.09
-10.49
-11.11
-11.97
-13.16
-14.87
-17.17
-20.09
-23.41
-26.76
-29.63
-31.40
-31.55
-29.74
-25.99
-20.70
-14.56
-8.26
-2.33
3.03
7.85
12.16
15.92
18.92
20.93
21.85
21.75
20.79
19.19
17.10
14.66
11.99
9.23
6.51
3.97
1.76
0.02
-1.05
-1.20
-0.14
2.41
6.70
12.79
20.50
29.31
38.33
46.49
52.64
55.84
55.52
51.59
44.41
34.72
23.60
12.38
2.44
-4.98
-9.11
-9.91
-8.00
-4.51
-0.67
2.50
4.49
5.32
5.37
5.15
5.06
5.22
5.49
5.56
5.11
3.95
2.03
-0.53
-3.58
-6.98
-10.58
-14.18
-17.41
-19.83
-21.18
-21.59
-21.59
-22.01
-23.61
-26.69
-30.97
-35.64
-39.75
-42.55
-43.78
-43.61
-42.61
-41.56
-41.23
-42.19
-44.63
-48.23
-52.13
-55.14
-56.20
-54.65
-50.54
-44.53
-37.62
-30.73
-24.50
-19.21
-14.81
-11.09
-7.78
-4.62
-1.32
2.38
6.66
11.56
16.96
22.66
28.37
33.83
38.74
42.78
45.57
46.71
45.95
43.21
38.69
32.74
25.76
18.07
9.82
1.13
-7.82
-16.63
-24.83
-31.98
-37.95
-42.99
-47.74
-52.91
-59.04
-66.11
-73.52
-80.19
-84.80
-86.23
-83.89
-77.81
-68.70
-57.64
-45.77
-34.02
-22.94
-12.74
-3.50
4.70
11.63
16.99
20.48
21.98
21.68
20.02
17.59
14.98
12.52
10.35
8.45
6.79
5.47
4.62
4.24
4.08
3.62
2.30
-0.23
-3.86
-8.09
-12.31
-16.12
-19.48
-22.74
-26.44
-31.06
-36.91
-44.10
-52.52
-61.84
-71.41
-80.27
-87.21
-91.11
-91.25
-87.54
-80.58
-71.42
-61.25
-51.01
-41.19
-31.91
-23.00
-14.38
-6.15
1.47
8.24
14.13
19.35
24.25
29.11
34.05
38.90
43.34
47.01
49.69
51.38
52.31
52.73
52.79
52.43
51.22
48.68
44.41
38.44
31.28
23.77
16.76
10.69
5.53
0.76
-4.30
-10.31
-17.70
-26.65
-36.98
-48.09
-58.93
-67.94
-73.43
-74.03
-69.20
-59.52
-46.55
-32.31
-18.61
-6.49
3.95
13.20
21.87
30.18
37.80
44.05
48.37
50.69
51.51
51.70
51.90
52.32
52.64
52.33
51.04
48.89
46.37
44.06
42.30
40.97
39.49
37.13
33.24
27.60
20.46
12.46
4.40
-3.06
-9.64
-15.49
-21.14
-27.28
-34.56
-43.40
-53.95
-65.89
-78.28
-89.49
-97.45
-100.10
-96.19
-85.68
-69.91
-51.14
-31.77
-13.63
2.28
15.77
27.09
36.56
44.41
50.75
55.61
59.09
61.38
62.78
63.65
64.31
64.87
65.22
65.16
64.54
63.33
61.71
59.89
57.97
55.84
53.22
49.82
45.51
40.31
34.40
28.02
21.35
14.40
7.15
-0.42
-8.23
-16.10
-23.87
-31.60
-39.67
-48.69
-59.05
-70.30
-80.94
-88.56
-90.71
-85.94
-74.72
-59.57
-44.42
-33.18
-28.49
-31.01
-39.29
-50.40
-60.73
-66.60
-64.70
-52.66
-29.74
2.37
39.40
75.27
103.84
120.84
125.25
119.31
107.16
93.05
79.95
69.22
61.23
56.13
54.33
56.23
61.58
68.98
76.10
80.39
79.97
74.32
64.28
51.60
38.18
25.39
13.77
3.34
-5.91
-13.58
-18.70
-20.12
-17.11
-9.90
0.21
11.27
21.35
29.21
34.62
38.12
40.56
42.52
44.03
44.69
44.05
41.94
38.75
35.25
32.33
30.57
30.00
30.06
29.91
28.83
26.55
23.35
19.79
16.36
13.22
10.16
6.85
3.19
-0.60
-4.02
-6.56
-8.04
-8.59
-8.51
-8.15
-7.83
-7.96
-9.23
-12.50
-18.42
-26.80
-36.30
-44.43
-48.38
-45.96
-36.52
-21.27
-2.77
15.89
32.20
44.76
53.44
59.02
62.73
65.87
69.42
73.91
79.11
84.00
86.98
86.40
81.20
71.38
58.06
43.02
28.03
14.24
1.97
-9.05
-19.22
-28.74
-37.57
-45.62
-52.92
-59.67
-66.07
-72.10
-77.41
-81.53
-84.06
-84.96
-84.61
-83.81
-83.57
-84.83
-88.11
-93.21
-99.03
-103.64
-104.78
-100.65
-90.60
-75.40
-56.98
-37.60
-19.09
-2.39
12.29
25.06
35.90
44.55
50.71
54.43
56.20
56.84
57.09
57.32
57.44
57.13
56.16
54.62
52.95
51.69
51.24
51.64
52.57
53.43
53.65
52.80
50.77
47.82
44.38
40.90
37.63
34.62
31.57
28.15
24.14
19.50
14.48
9.61
5.56
3.01
2.42
3.88
6.97
10.84
14.40
16.75
17.49
16.81
15.32
13.63
11.78
9.05
4.08
-4.73
-18.45
-37.18
-59.77
-84.01
-107.18
-126.75
-140.89
-148.94
-151.25
-148.95
-143.57
-136.53
-128.97
-121.60
-114.79
-108.67
-103.13
-97.96
-92.77
-87.18
-80.97
-74.25
-67.60
-61.79
-57.49
-54.94
-53.83
-53.47
-53.06
-51.91
-49.54
-45.58
-39.72
-31.76
-21.78
-10.32
1.74
13.39
23.83
32.67
39.83
45.37
49.30
51.59
52.34
51.89
50.88
50.12
50.42
52.40
56.39
62.38
70.11
78.99
88.23
96.79
103.62
107.69
108.19
104.71
97.34
86.71
73.90
60.05
46.00
31.94
17.47
1.87
-15.41
-34.28
-53.85
-72.51
-88.23
-99.00
-103.28
-100.36
-90.52
-74.98
-55.65
-34.72
-14.10
4.89
21.59
35.81
47.59
56.90
63.64
67.71
69.18
68.43
66.02
62.63
58.78
54.88
51.10
47.61
44.54
41.98
39.92
38.15
36.29
33.89
30.65
26.55
21.87
17.04
12.39
8.05
3.81
-0.78
-6.23
-12.96
-21.06
-30.08
-38.93
-46.09
-49.86
-49.02
-43.22
-33.25
-20.83
-7.95
3.77
13.56
21.41
27.73
32.83
36.71
39.11
39.86
39.07
37.21
34.90
32.62
30.55
28.69
26.95
25.36
23.98
22.93
22.10
21.21
19.86
17.69
14.53
10.48
5.73
0.56
-4.85
-10.44
-16.26
-22.42
-29.07
-36.29
-43.91
-51.39
-57.77
-61.81
-62.33
-58.66
-50.87
-39.91
-27.25
-14.53
-3.09
6.37
13.70
19.19
23.15
25.72
26.96
27.02
26.40
25.96
26.72
29.35
33.84
39.54
45.39
50.39
54.01
56.11
56.89
56.55
55.16
52.75
49.38
45.29
40.66
35.63
30.08
23.72
16.26
7.50
-2.49
-13.27
-24.05
-33.70
-40.90
-44.43
-43.55
-38.28
-29.42
-18.49
-7.31
2.45
9.62
13.77
15.17
14.57
12.86
10.77
8.71
6.78
4.97
3.31
1.91
0.94
0.55
0.72
1.32
2.15
3.02
3.81
4.40
4.72
4.69
4.24
3.38
2.08
0.36
-1.83
-4.54
-7.87
-11.87
-16.62
-22.21
-28.66
-35.79
-43.03
-49.48
-54.07
-55.90
-54.59
-50.41
-44.15
-36.87
-29.53
-22.78
-16.96
-12.15
-8.36
-5.54
-3.65
-2.61
-2.31
-2.60
-3.29
-4.12
-4.76
-4.84
-4.04
-2.24
0.46
3.71
6.95
9.66
11.42
12.01
11.39
9.61
6.83
3.18
-1.16
-6.01
-11.18
-16.52
-21.98
-27.56
-33.25
-38.81
-43.70
-47.03
-47.84
-45.36
-39.40
-30.45
-19.54
-7.98
3.06
12.82
20.90
27.26
31.97
35.15
36.94
37.50
37.01
35.72
33.84
31.62
29.27
27.06
25.20
23.79
22.76
21.80
20.49
18.50
15.76
12.48
9.03
5.73
2.69
-0.25
-3.32
-6.71
-10.46
-14.52
-18.93
-23.94
-29.80
-36.40
-43.06
-48.46
-51.04
-49.65
-44.03
-34.88
-23.56
-11.54
0.13
10.94
20.77
29.56
37.09
42.98
46.88
48.75
48.89
47.95
46.60
45.25
43.94
42.42
40.45
38.01
35.40
33.03
31.16
29.64
28.02
25.71
22.35
17.99
13.01
7.89
2.92
-1.82
-6.46
-11.13
-15.86
-20.64
-25.45
-30.41
-35.66
-41.22
-46.70
-51.22
-53.56
-52.60
-47.80
-39.46
-28.74
-17.19
-6.28
3.09
10.63
16.50
20.92
23.95
25.53
25.61
24.47
22.70
21.08
20.19
20.24
20.91
21.56
21.55
20.53
18.68
16.51
14.63
13.38
12.62
11.80
10.21
7.38
3.28
-1.64
-6.75
-11.54
-15.83
-19.79
-23.74
-27.92
-32.40
-37.11
-41.89
-46.51
-50.59
-53.48
-54.32
-52.28
-46.96
-38.67
-28.47
-17.78
-7.94
0.20
6.49
11.21
14.78
17.40
19.12
19.86
19.69
18.87
17.86
17.07
16.75
16.90
17.35
17.90
18.41
18.83
19.15
19.33
19.22
18.58
17.23
15.06
12.13
8.65
4.94
1.32
-1.99
-4.87
-7.37
-9.64
-11.96
-14.62
-17.89
-21.92
-26.74
-32.10
-37.46
-41.95
-44.62
-44.65
-41.64
-35.80
-27.90
-19.00
-10.11
-1.88
5.42
11.85
17.60
22.74
27.18
30.73
33.14
34.30
34.29
33.30
31.68
29.74
27.68
25.57
23.41
21.22
19.09
17.23
15.81
14.91
14.37
13.87
12.97
11.32
8.78
5.37
1.34
-3.06
-7.57
-12.01
-16.28
-20.32
-24.15
-27.86
-31.67
-35.79
-40.27
-44.80
-48.65
-50.76
-50.10
-46.05
-38.73
-28.99
-18.18
-7.62
1.74
9.49
15.70
20.57
24.24
26.70
27.94
28.06
27.42
26.53
25.90
25.79
26.25
27.07
27.91
28.39
28.21
27.23
25.50
23.30
20.99
18.82
16.84
14.84
12.46
9.44
5.70
1.47
-2.87
-6.90
-10.36
-13.20
-15.57
-17.81
-20.22
-23.09
-26.58
-30.74
-35.47
-40.51
-45.37
-49.30
-51.43
-50.90
-47.22
-40.53
-31.62
-21.70
-12.02
-3.43
3.75
9.61
14.45
18.49
21.73
24.06
25.40
25.80
25.43
24.59
23.56
22.58
21.83
21.37
21.18
21.13
21.00
20.53
19.55
18.02
16.06
13.86
11.64
9.54
7.60
5.73
3.76
1.49
-1.28
-4.60
-8.36
-12.30
-16.17
-19.87
-23.50
-27.37
-31.82
-37.05
-42.92
-48.89
-54.12
-57.62
-58.51
-56.29
-50.94
-43.05
-33.61
-23.76
-14.40
-6.06
1.19
7.52
13.02
17.61
20.98
22.82
23.01
21.85
19.92
17.99
16.68
16.29
16.73
17.59
18.36
18.59
18.07
16.96
15.57
14.31
13.37
12.67
11.81
10.28
7.70
3.92
-0.83
-6.13
-11.50
-16.56
-21.20
-25.48
-29.58
-33.67
-37.90
-42.40
-47.28
-52.55
-58.02
-63.16
-67.13
-68.95
-67.87
-63.69
-56.89
-48.51
-39.82
-31.92
-25.39
-20.30
-16.26
-12.67
-9.05
-5.08
-0.74
3.92
8.84
14.10
19.85
26.16
32.82
39.37
45.18
49.68
52.56
53.87
53.84
52.80
51.01
48.59
45.62
42.20
38.52
34.79
31.17
27.58
23.78
19.44
14.29
8.36
1.98
-4.41
-10.53
-16.45
-22.59
-29.35
-36.66
-43.71
-49.08
-51.24
-49.17
-42.84
-33.22
-21.86
-10.36
0.20
9.34
17.02
23.42
28.59
32.38
34.57
35.14
34.36
32.80
31.14
29.97
29.44
29.35
29.19
28.42
26.79
24.39
21.61
18.88
16.49
14.37
12.22
9.71
6.56
2.75
-1.59
-6.09
-10.31
-13.74
-15.98
-16.94
-16.94
-16.75
-17.31
-19.48
-23.65
-29.72
-37.16
-45.21
-53.00
-59.62
-64.07
-65.42
-63.05
-56.93
-47.85
-37.19
-26.51
-17.07
-9.47
-3.61
1.02
5.01
8.79
12.56
16.34
20.19
24.22
28.52
33.03
37.47
41.38
44.26
45.76
45.85
44.72
42.70
40.04
36.86
33.10
28.68
23.56
17.80
11.54
4.99
-1.56
-7.69
-13.01
-17.23
-20.35
-22.71
-24.95
-27.80
-31.83
-37.26
-43.84
-50.86
-57.25
-61.73
-63.12
-60.54
-53.71
-43.07
-29.79
-15.44
-1.63
10.40
20.07
27.42
32.85
36.76
39.32
40.42
39.93
37.89
34.72
31.11
27.82
25.36
23.87
23.11
22.75
22.59
22.63
23.05
23.89
24.89
25.43
24.72
22.17
17.74
11.98
5.91
0.52
-3.61
-6.47
-8.55
-10.50
-12.88
-16.08
-20.24
-25.29
-30.83
-35.98
-39.43
-39.78
-35.95
-27.77
-16.14
-2.72
10.58
22.26
31.49
38.17
42.60
45.09
45.89
45.06
42.71
39.08
34.58
29.84
25.47
21.95
19.56
18.32
17.94
18.02
18.13
18.00
17.57
16.98
16.41
15.96
15.51
14.84
13.70
11.97
9.78
7.47
5.42
3.85
2.71
1.65
0.15
-2.14
-5.44
-9.64
-14.44
-19.34
-23.66
-26.57
-27.27
-25.21
-20.33
-13.17
-4.79
3.59
10.92
16.62
20.62
23.16
24.60
25.22
25.16
24.47
23.18
21.41
19.41
17.51
15.99
15.00
14.43
14.02
13.47
12.67
11.73
10.88
10.27
9.87
9.39
8.42
6.65
4.00
0.64
-3.12
-7.07
-11.08
-15.17
-19.37
-23.66
-27.92
-32.04
-35.98
-39.85
-43.74
-47.59
-50.93
-52.91
-52.52
-48.98
-42.16
-32.68
-21.75
-10.82
-1.04
7.00
13.30
18.22
22.19
25.39
27.78
29.24
29.69
29.30
28.33
27.02
25.44
23.46
20.88
17.67
14.17
11.02
9.04
8.76
10.24
12.92
15.83
17.96
18.63
17.77
15.81
13.47
11.31
9.51
7.85
5.82
2.99
-0.85
-5.61
-11.05
-16.85
-22.64
-27.83
-31.63
-33.14
-31.66
-27.01
-19.68
-10.70
-1.30
7.51
15.17
21.62
27.03
31.64
35.47
38.37
40.13
40.69
40.25
39.23
38.08
37.11
36.26
35.15
33.29
30.41
26.57
22.19
17.73
13.48
9.38
5.09
0.28
-5.16
-10.97
-16.68
-21.78
-25.94
-29.09
-31.39
-33.14
-34.64
-36.16
-37.95
-40.21
-43.03
-46.24
-49.33
-51.46
-51.66
-49.12
-43.49
-35.06
-24.61
-13.31
-2.28
7.59
15.81
22.17
26.71
29.54
30.83
30.81
29.73
27.94
25.79
23.66
21.82
20.40
19.36
18.53
17.73
16.69
15.35
13.70
11.83
9.77
7.45
4.66
1.17
-3.16
-8.48
-14.61
-21.20
-27.71
-33.67
-38.71
-42.65
-45.53
-47.37
-48.79
-50.37
-52.79
-56.58
-61.92
-68.34
-74.65
-79.33
-80.62
-78.20
-72.49
-64.91
-57.21
-50.82
-46.20
-42.80
-39.36
-34.10
-26.50
-16.35
-4.15
9.15
22.27
33.78
42.26
43.94
41.75
36.40
30.16
25.84
25.71
30.59
39.46
49.87
58.96
64.97
66.66
64.50
59.84
54.15
48.53
43.61
39.63
36.65
34.94
34.00
33.53
33.02
31.79
29.17
24.64
18.10
9.98
1.48
-6.32
-12.20
-15.41
-15.83
-13.96
-10.59
-6.50
-2.23
2.07
6.21
10.05
13.37
15.86
17.22
17.29
16.13
14.04
11.56
9.22
7.44
6.36
5.78
5.34
4.64
3.58
2.42
1.64
1.68
2.72
4.55
6.57
8.01
8.16
6.60
3.32
-1.24
-6.39
-11.39
-15.75
-19.40
-22.56
-25.62
-28.90
-32.55
-36.56
-40.81
-45.05
-48.78
-51.32
-51.82
-49.62
-44.57
-37.20
-28.55
-19.84
-12.07
-5.69
-0.66
3.35
6.68
9.48
11.67
13.12
13.73
13.60
12.99
12.20
11.47
10.90
10.47
10.13
9.83
9.59
9.45
9.40
9.33
9.11
8.60
7.68
6.29
4.39
1.94
-1.04
-4.37
-7.82
-11.08
-13.91
-16.28
-18.44
-20.77
-23.74
-27.66
-32.53
-38.03
-43.50
-48.05
-50.82
-51.06
-48.41
-43.00
-35.37
-26.41
-17.12
-8.39
-0.76
5.62
10.89
15.28
18.96
21.90
23.99
25.17
25.58
25.55
25.46
25.55
25.82
26.08
26.11
25.76
25.09
24.23
23.30
22.29
21.12
19.63
17.72
15.33
12.43
9.02
5.12
0.78
-3.82
-8.40
-12.69
-16.58
-20.18
-23.81
-27.87
-32.67
-38.24
-44.35
-50.49
-55.95
-59.87
-61.36
-59.68
-54.47
-46.04
-35.28
-23.58
-12.30
-2.46
5.58
11.98
17.12
21.27
24.48
26.59
27.55
27.53
26.92
26.17
25.60
25.34
25.29
25.25
25.00
24.38
23.30
21.79
19.99
18.13
16.40
14.87
13.39
11.67
9.37
6.26
2.35
-2.21
-7.13
-12.18
-17.12
-21.80
-26.11
-30.04
-33.73
-37.48
-41.69
-46.64
-52.18
-57.60
-61.64
-62.87
-60.21
-53.37
-43.06
-30.71
-17.95
-6.12
4.07
12.43
18.97
23.70
26.51
27.43
26.70
24.91
22.74
20.78
19.24
18.03
16.93
15.69
14.24
12.60
10.83
9.07
7.40
5.97
4.86
4.00
3.18
2.08
0.42
-1.88
-4.68
-7.68
-10.59
-13.34
-16.02
-18.83
-21.97
-25.52
-29.54
-34.02
-38.83
-43.62
-47.64
-49.83
-49.05
-44.50
-36.07
-24.51
-11.25
2.08
14.18
24.37
32.63
39.33
44.91
49.65
53.58
56.58
58.63
59.80
60.30
60.39
60.24
59.86
59.20
58.22
56.89
55.27
53.39
51.21
48.70
45.81
42.50
38.74
34.49
29.65
24.15
17.98
11.26
4.30
-2.39
-8.32
-13.11
-16.65
-19.18
-21.15
-23.05
-25.26
-27.92
-30.90
-33.76
-35.88
-36.52
-34.95
-30.70
-23.76
-14.67
-4.46
5.66
14.67
21.99
27.60
31.83
35.10
37.69
39.59
40.57
40.25
38.34
34.72
29.57
23.31
16.52
9.69
3.20
-2.84
-8.43
-13.56
-18.14
-22.00
-24.96
-26.92
-27.94
-28.18
-27.94
-27.57
-27.40
-27.73
-28.70
-30.26
-32.13
-33.95
-35.43
-36.47
-37.19
-37.88
-38.88
-40.52
-43.06
-46.54
-50.64
-54.53
-56.97
-56.59
-52.37
-44.02
-32.20
-18.35
-4.23
8.59
19.12
27.03
32.57
36.27
38.70
40.31
41.40
42.06
42.32
42.22
41.78
41.08
40.09
38.78
37.09
35.02
32.62
30.09
27.64
25.47
23.67
22.23
20.96
19.56
17.67
15.02
11.50
7.29
2.75
-1.65
-5.57
-8.90
-11.78
-14.45
-17.19
-20.27
-23.90
-28.25
-33.25
-38.45
-42.99
-45.65
-45.35
-41.55
-34.47
-25.02
-14.51
-4.18
5.03
12.62
18.47
22.78
25.94
28.41
30.55
32.50
34.12
35.16
35.42
34.99
34.17
33.32
32.65
32.12
31.48
30.54
29.26
27.72
26.08
24.48
22.94
21.35
19.52
17.21
14.23
10.50
6.14
1.49
-3.02
-7.05
-10.46
-13.41
-16.22
-19.28
-22.85
-27.12
-32.08
-37.54
-43.04
-47.82
-50.84
-51.11
-47.98
-41.47
-32.42
-22.15
-12.13
-3.48
3.31
8.38
12.17
15.15
17.55
19.34
20.39
20.64
20.24
19.50
18.79
18.37
18.34
18.64
19.12
19.62
20.03
20.25
20.22
19.85
19.05
17.75
15.95
13.66
11.00
8.02
4.76
1.28
-2.37
-6.01
-9.45
-12.48
-15.09
-17.43
-19.79
-22.54
-25.96
-30.20
-35.25
-40.86
-46.48
-51.25
-54.11
-54.04
-50.43
-43.40
-33.85
-23.18
-12.89
-4.02
3.04
8.50
12.85
16.50
19.58
21.96
23.44
23.94
23.62
22.82
21.90
21.13
20.63
20.42
20.46
20.73
21.22
21.95
22.89
23.90
24.68
24.84
24.03
22.01
18.78
14.56
9.71
4.61
-0.45
-5.31
-9.93
-14.33
-18.55
-22.67
-26.78
-30.97
-35.43
-40.28
-45.46
-50.54
-54.63
-56.56
-55.27
-50.25
-41.86
-31.22
-19.81
-8.89
0.85
9.34
16.80
23.40
29.02
33.29
35.84
36.53
35.67
33.83
31.69
29.80
28.37
27.37
26.55
25.65
24.53
23.21
21.82
20.57
19.52
18.55
17.33
15.37
12.25
7.78
2.09
-4.30
-10.68
-16.43
-21.18
-24.99
-28.29
-31.64
-35.60
-40.53
-46.52
-53.30
-60.25
-66.36
-70.40
-71.23
-68.15
-61.19
-51.15
-39.37
-27.34
-16.15
-6.26
2.52
10.81
19.21
28.02
37.14
46.15
54.46
61.58
67.24
71.37
74.08
75.49
75.72
74.75
72.61
69.36
65.20
60.44
55.41
50.29
45.04
39.40
33.10
25.99
18.24
10.25
2.52
-4.59
-10.96
-16.74
-22.17
-27.54
-33.07
-38.95
-45.35
-52.30
-59.57
-66.56
-72.24
-75.46
-75.22
-71.10
-63.39
-53.12
-41.65
-30.35
-20.15
-11.43
-4.14
1.98
7.11
11.20
14.06
15.57
15.91
15.54
15.15
15.25
15.94
16.86
17.33
16.78
15.07
12.59
10.11
8.41
7.88
8.36
9.16
9.36
8.17
5.24
0.76
-4.57
-9.75
-13.71
-15.53
-14.75
-11.55
-6.77
-1.84
1.71
2.69
0.76
-3.42
-8.38
-12.38
-14.02
-12.66
-8.46
-2.20
5.13
12.60
19.48
25.18
29.27
31.42
31.47
29.49
25.74
20.63
14.64
8.25
1.93
-3.86
-8.76
-12.52
-15.05
-16.37
-16.60
-15.88
-14.43
-12.61
-10.89
-9.76
-9.63
-10.66
-12.75
-15.61
-18.93
-22.41
-25.85
-29.13
-32.32
-35.64
-39.50
-44.34
-50.35
-57.20
-63.91
-69.07
-71.12
-68.96
-62.25
-51.55
-38.08
-23.37
-8.82
4.52
16.11
25.82
33.77
40.26
45.59
50.03
53.78
57.00
59.76
61.98
63.54
64.27
64.12
63.21
61.86
60.42
59.14
58.02
56.80
55.06
52.37
48.60
43.82
38.32
32.49
26.59
20.80
15.06
9.20
2.85
-4.41
-12.94
-22.81
-33.58
-44.24
-53.43
-59.75
-62.25
-60.70
-55.61
-48.06
-39.35
-30.65
-22.80
-16.22
-10.95
-6.74
-3.18
0.13
3.47
6.94
10.46
13.83
16.86
19.32
20.95
21.43
20.41
17.63
13.00
6.78
-0.57
-8.39
-16.06
-23.04
-29.03
-33.87
-37.57
-40.14
-41.63
-42.13
-41.88
-41.30
-41.03
-41.77
-43.97
-47.66
-52.17
-56.33
-58.70
-58.05
-53.71
-45.78
-35.02
-22.60
-9.77
2.44
13.33
22.56
30.05
35.90
40.26
43.30
45.23
46.34
46.96
47.48
48.15
49.04
49.99
50.71
51.00
50.84
50.46
50.17
50.18
50.43
50.57
50.18
48.94
46.83
44.10
41.15
38.34
35.76
33.32
30.66
27.43
23.35
18.33
12.49
6.19
0.05
-5.13
-8.35
-8.71
-5.66
0.75
9.72
19.90
29.81
38.30
44.93
50.02
54.30
58.46
62.79
67.10
70.83
73.30
73.83
71.77
66.45
57.27
44.00
27.25
8.67
-9.29
-24.03
-33.67
-37.71
-37.22
-34.35
-31.53
-30.51
-31.93
-35.27
-39.39
-43.24
-46.51
-49.72
-53.97
-60.28
-69.00
-79.49
-90.36
-99.86
-106.49
-109.30
-107.98
-102.73
-94.18
-83.21
-70.92
-58.43
-46.83
-36.90
-29.04
-23.30
-19.42
-16.94
-15.37
-14.21
-13.10
-11.91
-10.71
-9.65
-8.90
-8.47
-8.20
-7.77
-6.87
-5.25
-2.87
0.04
3.02
5.47
6.88
6.96
5.81
3.81
1.58
-0.41
-1.94
-3.24
-4.95
-7.78
-12.31
-18.59
-26.02
-33.41
-39.24
-42.10
-41.05
-35.96
-27.54
-17.08
-6.02
4.46
13.72
21.65
28.39
34.12
38.74
41.95
43.41
43.03
41.07
38.17
35.12
32.53
30.66
29.35
28.21
26.78
24.81
22.32
19.56
16.91
14.63
12.79
11.20
9.56
7.60
5.24
2.57
-0.14
-2.74
-5.22
-7.75
-10.62
-14.04
-18.05
-22.51
-27.17
-31.72
-35.76
-38.73
-39.92
-38.58
-34.32
-27.38
-18.61
-9.30
-0.65
6.66
12.55
17.43
21.74
25.59
28.71
30.66
31.14
30.25
28.53
26.70
25.38
24.79
24.75
24.74
24.26
23.02
21.14
19.04
17.21
16.01
15.38
14.90
14.00
12.22
9.41
5.84
1.99
-1.60
-4.56
-6.77
-8.32
-9.48
-10.57
-11.95
-13.93
-16.76
-20.48
-24.82
-29.19
-32.77
-34.74
-34.56
-32.14
-27.96
-22.81
-17.58
-12.92
-9.11
-6.12
-3.73
-1.76
-0.19
0.90
1.29
0.88
-0.31
-2.08
-4.05
-5.72
-6.57
-6.23
-4.68
-2.24
0.40
2.56
3.70
3.63
2.49
0.59
-1.71
-4.12
-6.40
-8.39
-9.99
-11.25
-12.32
-13.50
-15.15
-17.59
-21.04
-25.46
-30.60
-35.96
-40.98
-45.26
-48.62
-51.08
-52.66
-53.13
-51.95
-48.45
-42.22
-33.45
-23.03
-12.21
-2.26
6.05
12.49
17.29
20.91
23.65
25.69
26.98
27.42
26.97
25.74
23.96
22.02
20.31
19.08
18.47
18.45
18.93
19.80
20.97
22.33
23.72
24.94
25.83
26.29
26.34
26.06
25.53
24.75
23.70
22.28
20.44
18.22
15.59
12.50
8.74
4.08
-1.63
-8.27
-15.40
-22.28
-28.06
-31.93
-33.30
-31.90
-27.85
-21.65
-14.10
-6.16
1.33
7.75
12.85
16.67
19.42
21.35
22.62
23.32
23.49
23.18
22.52
21.71
20.96
20.46
20.26
20.31
20.42
20.38
19.98
19.09
17.63
15.56
12.91
9.76
6.27
2.65
-0.90
-4.29
-7.45
-10.38
-12.95
-14.94
-16.13
-16.46
-16.24
-16.09
-16.83
-19.15
-23.30
-28.89
-34.87
-39.84
-42.36
-41.39
-36.60
-28.43
-18.01
-6.80
3.88
13.10
20.52
26.26
30.67
34.11
36.75
38.65
39.81
40.30
40.27
39.96
39.51
38.94
38.15
36.95
35.22
33.03
30.61
28.27
26.31
24.83
23.67
22.46
20.84
18.54
15.51
11.89
7.97
4.00
0.14
-3.51
-6.97
-10.27
-13.46
-16.67
-20.12
-24.09
-28.87
-34.55
-40.95
-47.53
-53.46
-57.76
-59.49
-57.95
-52.90
-44.70
-34.35
-23.24
-12.78
-3.99
2.82
7.97
12.07
15.62
18.69
20.94
21.97
21.63
20.26
18.53
17.14
16.49
16.51
16.84
17.07
16.97
16.55
16.04
15.68
15.58
15.64
15.52
14.78
13.03
10.08
6.10
1.46
-3.29
-7.75
-11.69
-15.16
-18.37
-21.57
-24.99
-28.83
-33.24
-38.26
-43.68
-48.87
-52.80
-54.27
-52.33
-46.66
-37.76
-26.80
-15.26
-4.39
5.02
12.77
19.06
24.24
28.48
31.78
33.91
34.68
34.14
32.66
30.83
29.28
28.40
28.20
28.34
28.36
27.88
26.83
25.38
23.77
22.14
20.40
18.27
15.36
11.45
6.54
0.93
-4.94
-10.60
-15.76
-20.32
-24.45
-28.41
-32.52
-37.04
-42.09
-47.62
-53.24
-58.25
-61.59
-62.10
-58.77
-51.18
-39.69
-25.44
-10.03
4.97
18.32
29.50
38.50
45.75
51.67
56.52
60.33
63.02
64.61
65.32
65.55
65.70
65.98
66.27
66.20
65.43
63.78
61.45
58.83
56.34
54.15
52.16
49.99
47.18
43.46
38.82
33.51
27.87
22.13
16.18
9.74
2.51
-5.57
-14.23
-23.02
-31.58
-39.80
-47.78
-55.49
-62.44
-67.61
-69.72
-67.83
-61.78
-52.42
-41.27
-29.99
-19.81
-11.29
-4.45
0.98
5.22
8.33
10.31
11.23
11.34
11.04
10.71
10.58
10.59
10.51
10.06
9.12
7.74
6.19
4.72
3.52
2.52
1.55
0.38
-1.13
-3.08
-5.49
-8.36
-11.70
-15.44
-19.38
-23.29
-26.93
-30.27
-33.52
-37.14
-41.54
-46.78
-52.36
-57.23
-60.05
-59.65
-55.52
-47.95
-37.97
-26.89
-15.84
-5.47
4.03
12.67
20.32
26.59
31.03
33.36
33.78
32.99
31.90
31.28
31.45
32.30
33.43
34.40
34.87
34.67
33.68
31.81
29.02
25.40
21.11
16.43
11.67
7.17
3.24
0.27
-1.41
-1.64
-0.61
1.07
2.49
2.67
1.06
-2.33
-6.84
-11.42
-14.95
-16.53
-15.62
-12.12
-6.34
1.05
9.08
16.71
23.07
27.64
30.38
31.57
31.67
30.96
29.55
27.49
24.88
22.01
19.25
16.92
15.01
13.30
11.45
9.25
6.78
4.28
1.98
-0.15
-2.40
-5.12
-8.55
-12.60
-16.88
-20.89
-24.26
-26.86
-28.79
-30.41
-32.14
-34.45
-37.71
-42.02
-47.00
-51.72
-54.89
-55.25
-52.03
-45.33
-36.10
-25.80
-15.87
-7.33
-0.55
4.65
8.70
11.99
14.74
17.00
18.76
20.04
20.91
21.40
21.47
21.04
20.05
18.64
17.06
15.64
14.64
14.01
13.42
12.38
10.49
7.59
3.83
-0.40
-4.75
-8.99
-13.07
-17.03
-21.02
-25.18
-29.71
-34.79
-40.44
-46.39
-51.85
-55.73
-56.81
-54.33
-48.27
-39.45
-29.24
-19.05
-9.85
-2.02
4.55
10.10
14.82
18.68
21.64
23.78
25.39
26.82
28.30
29.78
30.91
31.27
30.64
29.09
27.04
25.00
23.29
21.93
20.63
18.91
16.43
13.06
8.96
4.50
0.04
-4.22
-8.30
-12.43
-16.92
-22.03
-27.86
-34.18
-40.37
-45.48
-48.45
-48.35
-44.74
-37.89
-28.65
-18.30
-8.07
1.13
8.82
14.90
19.48
22.68
24.63
25.56
25.73
25.44
24.93
24.31
23.53
22.51
21.23
19.85
18.65
17.86
17.57
17.61
17.58
17.05
15.67
13.35
10.24
6.67
3.01
-0.48
-3.69
-6.75
-9.91
-13.53
-17.89
-23.15
-29.03
-34.78
-39.27
-41.31
-40.06
-35.39
-27.92
-18.83
-9.36
-0.48
7.33
13.97
19.50
23.91
27.11
29.04
29.77
29.58
28.85
27.88
26.81
25.60
24.10
22.24
20.04
17.67
15.33
13.18
11.27
9.52
7.76
5.78
3.41
0.59
-2.63
-6.06
-9.52
-12.81
-15.83
-18.67
-21.48
-24.51
-27.92
-31.68
-35.49
-38.71
-40.47
-39.84
-36.14
-29.12
-19.19
-7.29
5.31
17.39
28.02
36.76
43.52
48.45
51.70
53.38
53.62
52.60
50.72
48.43
46.19
44.19
42.38
40.46
38.10
35.22
32.03
29.03
26.70
25.34
24.80
24.51
23.71
21.78
18.45
13.95
8.87
3.92
-0.37
-3.78
-6.47
-8.81
-11.31
-14.38
-18.31
-23.17
-28.71
-34.33
-39.13
-42.09
-42.39
-39.67
-34.21
-26.87
-18.72
-10.78
-3.76
2.05
6.67
10.25
12.87
14.58
15.33
15.16
14.17
12.58
10.68
8.74
6.90
5.16
3.46
1.74
0.07
-1.36
-2.29
-2.58
-2.32
-1.76
-1.25
-1.10
-1.45
-2.28
-3.43
-4.71
-5.95
-7.10
-8.13
-9.10
-10.11
-11.23
-12.52
-14.04
-15.83
-17.91
-20.21
-22.49
-24.40
-25.42
-25.12
-23.26
-20.01
-15.84
-11.47
-7.60
-4.73
-3.05
-2.50
-2.84
-3.80
-5.18
-6.81
-8.63
-10.59
-12.63
-14.59
-16.27
-17.46
-18.06
-18.13
-17.88
-17.59
-17.40
-17.29
-17.11
-16.68
-16.03
-15.41
-15.13
-15.45
-16.37
-17.69
-19.05
-20.13
-20.75
-20.90
-20.72
-20.42
-20.20
-20.22
-20.57
-21.26
-22.22
-23.35
-24.41
-25.11
-25.03
-23.72
-20.78
-16.01
-9.55
-1.91
6.19
13.99
20.94
26.82
31.58
35.33
38.09
39.82
40.55
40.44
39.82
39.11
38.59
38.28
38.01
37.49
36.57
35.22
33.55
31.66
29.57
27.22
24.53
21.46
18.04
14.30
10.32
6.20
2.11
-1.81
-5.44
-8.82
-12.07
-15.47
-19.20
-23.40
-28.07
-33.15
-38.42
-43.51
-47.85
-50.66
-51.26
-49.18
-44.42
-37.51
-29.37
-21.06
-13.40
-6.87
-1.49
2.95
6.79
10.16
12.98
14.95
15.84
15.69
14.87
14.00
13.66
14.08
15.11
16.25
17.00
17.11
16.69
16.07
15.64
15.54
15.73
15.98
16.07
15.78
15.01
13.64
11.60
8.93
5.77
2.32
-1.26
-4.86
-8.53
-12.40
-16.63
-21.26
-26.17
-31.00
-35.26
-38.33
-39.59
-38.57
-35.07
-29.20
-21.39
-12.23
-2.41
7.54
17.20
26.31
34.56
41.57
46.87
50.04
50.85
49.44
46.27
42.07
37.58
33.36
29.69
26.56
23.75
21.04
18.26
15.41
12.63
10.14
8.06
6.33
4.61
2.40
-0.82
-5.32
-10.99
-17.44
-24.21
-30.88
-37.27
-43.32
-49.06
-54.46
-59.49
-64.21
-68.72
-73.09
-77.18
-80.50
-82.30
-81.80
-78.50
-72.45
-64.16
-54.50
-44.40
-34.69
-25.96
-18.55
-12.59
-8.05
-4.75
-2.43
-0.83
0.34
1.43
2.80
4.86
7.96
12.13
17.08
22.20
26.75
30.19
32.37
33.50
34.04
34.33
34.41
34.01
32.70
30.19
26.56
22.25
17.83
13.82
10.40
7.36
4.20
0.36
-4.66
-11.06
-18.68
-26.88
-34.68
-40.90
-44.43
-44.49
-40.82
-33.74
-24.09
-13.06
-1.94
8.15
16.45
22.73
27.22
30.42
32.80
34.64
35.93
36.49
36.21
35.22
33.88
32.69
32.01
31.98
32.39
32.88
33.02
32.49
31.21
29.26
26.86
24.15
21.14
17.69
13.69
9.13
4.26
-0.47
-4.63
-7.98
-10.64
-13.01
-15.59
-18.74
-22.61
-27.18
-32.30
-37.80
-43.29
-48.05
-51.07
-51.28
-47.95
-41.05
-31.32
-20.05
-8.58
2.05
11.33
19.05
25.22
29.84
32.93
34.60
35.07
34.72
33.92
32.99
32.17
31.62
31.39
31.44
31.59
31.60
31.31
30.70
29.95
29.29
28.86
28.54
27.92
26.51
23.94
20.21
15.70
11.08
6.97
3.67
0.99
-1.63
-4.86
-9.21
-14.84
-21.60
-29.10
-36.84
-44.21
-50.39
-54.36
-55.16
-52.20
-45.58
-36.19
-25.46
-14.86
-5.50
2.11
7.95
12.31
15.42
17.42
18.31
18.15
17.09
15.36
13.24
10.96
8.75
6.76
5.17
4.06
3.41
3.12
2.96
2.77
2.41
1.85
1.05
-0.02
-1.43
-3.26
-5.42
-7.70
-9.79
-11.50
-12.86
-14.17
-15.88
-18.38
-21.91
-26.39
-31.47
-36.51
-40.73
-43.18
-42.98
-39.52
-32.63
-22.71
-10.72
2.01
14.18
24.77
33.27
39.63
44.05
46.75
47.83
47.30
45.34
42.47
39.51
37.32
36.45
36.84
37.91
38.87
39.13
38.53
37.28
35.73
34.08
32.29
30.15
27.42
23.97
19.83
15.15
10.13
5.05
0.13
-4.54
-9.04
-13.65
-18.78
-24.69
-31.44
-38.74
-46.02
-52.45
-57.13
-59.15
-57.80
-52.80
-44.43
-33.57
-21.48
-9.49
1.39
10.58
17.92
23.51
27.50
30.02
31.18
31.23
30.50
29.46
28.57
28.09
28.04
28.16
28.04
27.31
25.82
23.73
21.40
19.27
17.60
16.37
15.27
13.89
11.90
9.21
6.02
2.67
-0.47
-3.17
-5.40
-7.30
-9.13
-11.23
-13.96
-17.65
-22.54
-28.59
-35.33
-41.77
-46.61
-48.55
-46.71
-41.02
-32.22
-21.62
-10.70
-0.69
7.72
14.36
19.44
23.37
26.50
29.03
31.04
32.47
33.30
33.61
33.62
33.68
34.15
35.29
37.18
39.70
42.62
45.64
48.51
51.04
53.09
54.48
55.05
54.55
52.74
49.44
44.63
38.53
31.59
24.43
17.54
11.23
5.43
-0.17
-5.96
-12.25
-19.10
-26.45
-34.11
-41.80
-49.01
-55.01
-58.83
-59.49
-56.42
-49.68
-40.12
-29.09
-18.13
-8.55
-1.13
3.95
6.92
8.23
8.26
7.27
5.37
2.66
-0.69
-4.42
-8.20
-11.73
-14.88
-17.62
-20.05
-22.22
-24.18
-25.97
-27.65
-29.41
-31.41
-33.71
-36.16
-38.50
-40.51
-42.09
-43.33
-44.40
-45.42
-46.34
-47.02
-47.30
-47.11
-46.57
-45.95
-45.57
-45.65
-46.26
-47.22
-48.08
-48.11
-46.34
-41.72
-33.44
-21.30
-6.00
10.89
27.38
41.72
52.91
60.98
66.71
71.01
74.44
76.98
78.22
77.74
75.57
72.14
68.12
64.03
60.06
56.05
51.80
47.23
42.48
37.83
33.42
29.23
25.04
20.63
15.90
10.93
5.82
0.58
-4.91
-10.75
-16.83
-22.76
-27.97
-31.98
-34.72
-36.54
-38.06
-39.82
-42.09
-44.88
-48.04
-51.49
-55.11
-58.62
-61.37
-62.42
-60.84
-56.13
-48.58
-39.21
-29.42
-20.48
-13.06
-7.21
-2.54
1.45
5.03
8.24
10.93
12.89
14.03
14.38
14.08
13.39
12.60
11.92
11.47
11.25
11.11
10.88
10.41
9.72
8.89
8.15
7.66
7.49
7.53
7.51
7.10
6.01
4.14
1.64
-1.18
-3.97
-6.48
-8.66
-10.69
-12.85
-15.42
-18.60
-22.38
-26.56
-30.68
-34.12
-36.26
-36.57
-34.78
-30.96
-25.50
-19.07
-12.43
-6.25
-0.94
3.37
6.78
9.52
11.81
13.86
15.82
17.78
19.75
21.61
23.14
24.04
24.19
23.68
22.86
22.25
22.26
23.06
24.53
26.37
28.19
29.49
29.64
27.84
23.42
16.21
6.84
-3.30
-12.53
-19.59
-24.10
-26.60
-28.16
-29.82
-32.26
-35.80
-40.77
-47.63
-56.86
-68.34
-80.95
-92.52
-100.43
-102.65
-98.59
-89.26
-76.78
-63.29
-50.08
-37.24
-23.93
-9.14
7.64
26.07
45.10
63.16
78.51
89.51
94.87
94.12
88.01
78.56
68.72
61.45
58.79
61.33
68.20
77.70
88.13
98.31
107.74
116.38
124.27
131.32
137.33
142.05
145.21
146.37
144.84
139.73
130.21
115.92
97.37
75.94
53.50
31.75
11.69
-6.57
-23.51
-39.75
-55.44
-70.19
-83.23
-93.88
-101.86
-107.40
-111.04
-113.45
-115.17
-116.61
-117.98
-119.10
-119.33
-117.45
-111.95
-101.55
-85.72
-65.02
-41.08
-16.09
7.75
28.76
46.01
59.21
68.45
73.99
76.14
75.19
71.44
65.16
56.59
45.96
33.68
20.26
6.38
-7.29
-20.33
-32.66
-44.58
-56.53
-68.93
-81.77
-94.67
-106.89
-117.55
-125.96
-131.72
-134.86
-135.80
-135.07
-132.96
-129.20
-122.81
-112.41
-96.80
-75.60
-49.71
-21.17
7.37
33.38
55.02
71.42
82.53
88.86
91.29
90.80
88.52
85.51
82.61
80.27
78.51
76.86
74.51
70.44
63.64
53.44
39.83
23.59
6.22
-10.54
-25.21
-37.06
-46.19
-53.31
-59.21
-64.46
-69.17
-73.18
-76.25
-78.25
-79.15
-78.89
-77.29
-74.11
-69.11
-62.19
-53.45
-43.07
-31.25
-18.14
-3.86
11.37
27.12
42.66
57.02
69.28
78.74
85.22
89.01
90.77
91.22
90.86
89.91
88.40
86.39
84.08
81.78
79.64
77.42
74.44
69.76
62.54
52.44
39.74
25.28
10.14
-4.66
-18.47
-31.08
-42.72
-53.89
-65.00
-76.14
-86.90
-96.46
-103.83
-108.14
-108.85
-105.75
-98.94
-88.64
-75.27
-59.51
-42.34
-24.99
-8.67
5.72
17.76
27.49
35.23
41.30
45.89
49.09
50.92
51.44
50.78
49.09
46.56
43.41
39.92
36.46
33.38
30.98
29.37
28.39
27.67
26.75
25.16
22.64
19.14
14.91
10.39
6.04
2.21
-1.02
-3.88
-6.86
-10.46
-15.07
-20.87
-27.76
-35.31
-42.79
-49.25
-53.61
-55.07
-53.28
-48.57
-41.76
-33.83
-25.64
-17.69
-10.13
-3.03
3.56
9.51
14.72
19.24
23.30
27.17
31.06
34.98
38.83
42.40
45.54
48.11
50.05
51.25
51.68
51.32
50.23
48.44
45.94
42.68
38.62
33.84
28.59
23.21
18.04
13.27
8.83
4.47
-0.15
-5.31
-11.21
-17.81
-24.82
-31.67
-37.43
-41.04
-41.54
-38.49
-32.11
-23.23
-12.96
-2.48
7.33
16.07
23.77
30.62
36.67
41.78
45.67
48.12
49.05
48.56
47.07
45.14
43.30
41.64
39.96
37.92
35.37
32.16
28.27
23.99
19.77
16.04
12.51
8.69
4.25
-0.55
-5.93
-12.06
-18.97
-26.27
-33.42
-40.93
-49.38
-58.86
-68.13
-77.25
-86.62
-96.64
-106.98
-116.75
-126.23
-135.05
-141.57
-142.00
-135.26
-121.99
-104.26
-84.17
-63.61
-46.05
-33.88
-27.39
-23.50
-21.56
-21.92
-25.22
-30.94
-25.06
0.12
41.25
75.07
97.42
109.02
115.62
119.39
121.79
123.45
122.26
116.40
106.02
95.16
85.81
78.88
74.06
71.13
69.87
68.62
66.49
64.02
63.95
66.55
70.58
73.86
74.89
73.04
67.67
59.30
49.81
42.60
39.38
40.38
44.44
49.73
54.10
55.02
50.85
41.44
28.56
14.18
0.18
-12.10
-21.96
-29.41
-35.18
-40.16
-44.89
-49.39
-53.56
-57.21
-60.22
-62.53
-64.21
-65.41
-66.20
-66.54
-66.19
-64.91
-62.64
-59.58
-56.11
-52.70
-49.65
-47.12
-45.13
-43.65
-42.69
-42.23
-42.13
-42.17
-42.13
-41.97
-41.90
-42.32
-43.60
-45.91
-48.98
-52.18
-54.64
-55.50
-54.17
-50.46
-44.70
-37.53
-29.73
-21.93
-14.48
-7.44
-0.75
5.56
11.28
16.07
19.61
21.75
22.64
22.52
21.73
20.59
19.42
18.48
18.01
18.11
18.67
19.34
19.61
19.00
17.32
14.69
11.56
8.39
5.47
2.75
-0.02
-3.09
-6.50
-10.06
-13.53
-16.84
-20.14
-23.71
-27.82
-32.58
-37.91
-43.68
-49.74
-55.86
-61.55
-66.02
-68.27
-67.48
-63.35
-56.31
-47.44
-38.05
-29.14
-21.21
-14.19
-7.76
-1.61
4.32
9.80
14.47
18.01
20.29
21.38
21.57
21.15
20.45
19.71
19.09
18.65
18.33
17.91
17.14
15.76
13.63
10.81
7.45
3.72
-0.28
-4.58
-9.33
-14.79
-21.25
-28.79
-37.23
-45.95
-54.02
-60.53
-65.02
-67.84
-70.26
-74.11
-81.13
-92.21
-106.80
-122.70
-136.41
-143.94
-141.89
-128.50
-104.14
-71.18
-33.18
6.18
43.76
77.36
105.34
126.07
137.56
137.24
122.15
89.61
38.40
-29.91
-110.00
-192.99
-268.27
-326.45
-362.23
-375.86
-372.31
-358.64
-340.91
-322.24
-302.80
-281.20
-256.30
-228.11
-197.63
-165.85
-133.03
-98.49
-61.36
-21.30
21.01
64.01
105.99
146.10
184.63
222.70
260.97
298.51
332.26
357.73
370.70
369.16
354.05
328.85
298.11
265.89
234.85
206.27
180.74
158.90
141.74
129.99
123.49
120.92
120.32
119.77
118.15
115.32
111.95
109.27
108.12
108.53
109.88
111.37
112.49
113.15
113.42
113.27
113.07
112.35
109.80
103.81
93.82
80.71
66.51
53.51
43.54
39.16
41.16
48.01
56.64
64.24
69.30
71.56
71.58
70.25
71.35
77.29
87.70
99.93
111.20
119.54
123.57
121.94
113.50
101.59
89.61
79.43
71.60
67.13
67.40
73.12
83.61
73.42
29.70
-41.56
-120.63
-190.29
-243.13
-279.43
-302.56
-316.39
-324.23
-324.79
-316.22
-300.39
-281.10
-261.29
-242.57
-225.48
-210.06
-196.02
-179.76
-158.01
-129.08
-97.27
-65.08
-33.65
-2.83
28.09
59.65
93.21
127.92
159.79
183.09
193.77
190.64
175.74
153.20
127.40
102.46
80.41
61.33
44.49
30.25
19.63
13.62
12.25
14.23
17.78
21.19
23.35
24.08
24.36
25.23
27.19
29.94
32.57
34.04
33.70
31.47
27.81
23.55
19.22
14.99
10.64
5.90
0.66
-4.85
-10.20
-14.92
-18.75
-21.77
-24.31
-26.82
-29.67
-33.07
-36.96
-41.09
-45.05
-48.42
-51.00
-52.84
-54.28
-55.83
-57.87
-60.58
-63.90
-67.70
-71.79
-75.90
-79.57
-82.03
-82.34
-79.71
-73.90
-65.34
-55.06
-44.25
-33.87
-24.41
-15.92
-8.25
-1.30
4.78
9.75
13.41
15.79
17.25
18.37
19.71
21.60
24.04
26.68
29.09
30.93
32.09
32.73
33.10
33.34
33.38
32.99
31.88
29.87
26.96
23.28
19.01
14.35
9.45
4.38
-0.80
-6.11
-11.64
-17.55
-24.02
-31.16
-38.87
-46.70
-53.80
-59.08
-61.45
-60.23
-55.35
-47.47
-37.70
-27.25
-17.07
-7.69
0.71
8.10
14.42
19.57
23.50
26.29
28.23
29.65
30.82
31.84
32.67
33.25
33.51
33.44
33.10
32.56
31.96
31.47
31.13
30.83
30.24
28.88
26.29
22.30
17.14
11.38
5.79
1.01
-2.61
-5.19
-7.22
-9.47
-12.74
-17.69
-24.59
-33.13
-42.42
-51.08
-57.64
-60.93
-60.44
-56.48
-50.03
-42.46
-35.08
-28.78
-23.92
-20.38
-17.74
-15.52
-13.36
-11.03
-8.42
-5.44
-1.98
2.03
6.56
11.49
16.61
21.73
26.74
31.67
36.58
41.44
46.07
50.08
52.96
54.32
53.95
51.97
48.70
44.57
39.95
35.14
30.27
25.40
20.50
15.41
9.98
3.98
-2.60
-9.51
-16.05
-21.17
-23.74
-22.96
-18.69
-11.54
-2.71
6.41
14.63
21.26
26.15
29.48
31.61
32.77
33.05
32.41
30.79
28.24
24.96
21.27
17.54
14.09
11.02
8.27
5.63
2.91
-0.00
-3.08
-6.16
-9.09
-11.70
-13.93
-15.81
-17.41
-18.80
-20.01
-21.06
-21.93
-22.66
-23.32
-24.04
-24.96
-26.29
-28.30
-31.23
-35.24
-40.19
-45.57
-50.48
-53.89
-54.94
-53.25
-48.95
-42.59
-34.79
-25.96
-16.25
-5.67
5.65
17.27
28.44
38.27
46.00
51.25
54.14
55.14
54.96
54.24
53.42
52.64
51.86
50.98
49.94
48.75
47.47
46.10
44.61
42.91
40.90
38.50
35.71
32.65
29.50
26.51
23.94
21.89
20.31
18.90
17.27
14.98
11.68
7.14
1.33
-5.51
-12.76
-19.42
-24.28
-26.27
-24.83
-20.15
-13.10
-4.85
3.50
11.25
18.07
23.88
28.64
32.26
34.71
36.11
36.76
37.10
37.52
38.22
39.13
39.91
40.10
39.28
37.25
34.19
30.69
27.51
25.36
24.49
24.50
24.43
23.16
19.90
14.50
7.53
0.02
-6.92
-12.46
-16.20
-18.19
-18.89
-19.04
-19.60
-21.53
-25.54
-31.70
-39.37
-47.25
-53.82
-57.87
-58.89
-57.24
-53.88
-49.94
-46.31
-43.40
-41.15
-39.26
-37.41
-35.39
-33.02
-30.10
-26.38
-21.64
-15.93
-9.68
-3.69
1.11
4.06
4.97
4.25
2.73
1.23
0.31
0.00
-0.06
-0.46
-1.65
-3.81
-6.70
-9.81
-12.60
-14.71
-16.10
-17.03
-17.92
-19.13
-20.89
-23.23
-26.02
-28.97
-31.62
-33.32
-33.37
-31.13
-26.32
-19.14
-10.23
-0.47
9.29
18.46
26.76
34.09
40.48
45.95
50.51
54.16
56.95
58.92
60.17
60.79
60.96
60.90
60.78
60.68
60.45
59.83
58.51
56.26
53.02
48.89
44.00
38.43
32.16
25.16
17.38
8.99
0.38
-7.90
-15.23
-21.21
-25.82
-29.39
-32.53
-35.87
-39.87
-44.71
-50.30
-56.20
-61.76
-66.12
-68.42
-68.00
-64.71
-58.88
-51.31
-42.91
-34.49
-26.52
-19.26
-12.82
-7.40
-3.17
-0.24
1.53
2.52
3.24
4.11
5.30
6.68
7.90
8.58
8.45
7.47
5.82
3.82
1.75
-0.26
-2.26
-4.45
-7.06
-10.21
-13.86
-17.70
-21.29
-24.14
-25.90
-26.45
-25.89
-24.55
-22.85
-21.15
-19.79
-18.98
-18.71
-18.76
-18.61
-17.51
-14.71
-9.73
-2.67
5.79
14.59
22.63
29.17
33.99
37.27
39.36
40.49
40.65
39.63
37.31
33.78
29.51
25.18
21.48
18.82
17.18
16.15
15.17
13.76
11.73
9.26
6.69
4.36
2.40
0.68
-1.09
-3.22
-5.95
-9.27
-13.06
-17.06
-21.01
-24.69
-27.96
-30.81
-33.35
-35.76
-38.33
-41.26
-44.65
-48.27
-51.50
-53.45
-53.18
-50.02
-43.92
-35.53
-26.00
-16.62
-8.37
-1.69
3.47
7.40
10.30
12.13
12.71
11.87
9.78
6.91
3.86
1.16
-0.89
-2.14
-2.53
-1.86
0.09
3.50
8.28
14.04
20.17
26.05
31.21
35.39
38.51
40.53
41.42
41.17
39.81
37.48
34.32
30.41
25.70
20.05
13.32
5.52
-3.14
-12.28
-21.37
-29.81
-36.95
-42.16
-44.90
-44.86
-42.12
-37.15
-30.79
-23.94
-17.38
-11.64
-6.93
-3.29
-0.66
0.95
1.51
1.06
-0.26
-2.23
-4.53
-6.91
-9.24
-11.51
-13.86
-16.45
-19.48
-23.08
-27.30
-32.12
-37.47
-43.20
-49.19
-55.36
-61.54
-67.50
-72.86
-77.09
-79.67
-80.28
-78.85
-75.55
-70.73
-64.77
-58.05
-50.99
-44.12
-38.08
-33.31
-29.88
-27.27
-24.42
-20.16
-13.55
-4.37
6.84
18.94
30.63
40.89
49.22
55.68
60.64
64.48
67.37
69.24
69.94
69.41
67.76
65.31
62.44
59.42
56.37
53.31
50.21
47.15
44.28
41.72
39.54
37.62
35.77
33.77
31.44
28.71
25.58
22.16
18.62
15.30
12.63
11.03
10.72
11.49
12.73
13.53
13.02
10.64
6.26
0.15
-7.10
-14.74
-21.89
-27.59
-30.93
-31.31
-28.69
-23.64
-17.12
-10.05
-2.91
4.36
12.20
20.94
30.48
40.13
48.82
55.45
59.25
59.96
57.85
53.49
47.53
40.46
32.54
23.95
14.99
6.26
-1.40
-7.16
-10.58
-11.81
-11.45
-10.28
-8.78
-7.00
-4.73
-1.81
1.50
4.50
6.21
5.81
2.80
-2.80
-10.67
-20.25
-30.88
-41.73
-51.85
-60.19
-65.83
-68.19
-67.15
-63.19
-57.11
-49.91
-42.52
-35.59
-29.42
-24.11
-19.64
-16.03
-13.29
-11.41
-10.22
-9.40
-8.60
-7.61
-6.47
-5.49
-5.11
-5.65
-7.15
-9.34
-11.73
-13.96
-15.87
-17.68
-19.83
-22.80
-26.87
-31.97
-37.74
-43.64
-49.16
-54.04
-58.32
-62.29
-66.35
-70.90
-76.19
-82.25
-88.79
-95.09
-100.00
-102.09
-100.04
-93.13
-81.54
-66.41
-49.42
-32.28
-16.23
-1.77
11.13
22.71
33.08
42.12
49.59
55.39
59.66
62.78
65.26
67.42
69.37
70.95
71.89
72.00
71.34
70.16
68.80
67.48
66.16
64.50
62.02
58.31
53.20
46.92
39.95
32.93
26.42
20.77
15.99
11.81
7.73
3.21
-2.22
-8.74
-16.13
-23.76
-30.60
-35.47
-37.35
-35.66
-30.48
-22.52
-12.84
-2.56
7.49
16.81
25.21
32.56
38.67
43.30
46.25
47.56
47.51
46.56
45.20
43.75
42.31
40.84
39.25
37.46
35.47
33.35
31.24
29.19
27.18
25.05
22.54
19.41
15.58
11.23
6.77
2.65
-0.88
-4.00
-7.18
-11.03
-15.97
-22.04
-28.83
-35.58
-41.31
-44.88
-45.17
-41.30
-33.00
-20.86
-6.30
8.75
22.47
33.76
42.50
49.32
55.13
60.53
65.62
69.98
73.11
74.72
74.90
74.13
73.03
72.19
71.90
72.13
72.58
72.86
72.63
71.79
70.42
68.67
66.64
64.30
61.59
58.61
55.71
53.43
52.19
52.00
52.18
51.54
48.74
42.77
33.29
20.68
5.84
-10.04
-25.67
-39.87
-51.52
-59.80
-64.26
-65.00
-62.72
-58.52
-53.60
-48.89
-44.83
-41.42
-38.38
-35.48
-32.77
-30.57
-29.26
-29.13
-30.09
-31.73
-33.52
-34.99
-35.92
-36.36
-36.49
-36.49
-36.46
-36.44
-36.47
-36.61
-37.00
-37.78
-39.07
-40.87
-43.07
-45.44
-47.74
-49.74
-51.34
-52.60
-53.72
-55.07
-56.99
-59.71
-63.18
-66.96
-70.21
-71.90
-71.02
-66.86
-59.34
-48.91
-36.54
-23.40
-10.57
1.19
11.53
20.43
28.04
34.52
39.86
44.01
46.85
48.40
48.77
48.18
46.90
45.20
43.34
41.57
40.07
38.96
38.26
37.83
37.40
