1542304301.00
64.000000
-0.00
-0.00
-0.00
-0.00
-0.00
-0.00
-0.00
-0.00
-0.00
-0.00
0.00
0.01
0.01
-0.00
-0.03
-0.05
-0.05
0.00
0.13
0.36
0.66
1.01
1.37
1.72
2.06
2.40
2.79
3.24
3.80
4.42
5.06
5.66
6.20
6.68
7.15
7.68
8.31
9.14
10.09
11.04
11.88
12.56
13.14
13.76
14.65
15.96
17.91
20.32
22.90
25.38
27.58
29.57
31.68
34.32
37.81
42.54
48.15
54.10
59.83
64.97
69.58
74.14
79.34
85.71
93.76
103.00
112.62
121.73
129.77
136.75
143.30
150.75
157.77
166.64
177.95
191.79
206.97
220.57
228.25
225.36
208.53
176.87
132.76
80.05
23.07
-34.94
-92.44
-149.16
-205.23
-260.37
-313.74
-363.87
-409.83
-450.91
-486.50
-515.74
-537.23
-549.22
-549.96
-538.37
-514.21
-478.67
-433.88
-382.45
-327.02
-269.84
-212.63
-156.66
-102.95
-52.37
-5.90
35.58
71.43
101.35
125.50
144.38
158.69
169.15
176.37
180.75
182.57
182.07
179.51
175.23
169.65
163.18
156.15
148.81
141.30
133.69
126.02
118.33
110.69
103.16
95.80
88.68
81.83
75.25
68.95
62.95
57.25
51.86
46.78
42.03
37.59
33.45
29.61
26.07
22.81
19.83
17.11
14.67
12.48
10.54
8.83
7.35
6.07
4.97
4.05
3.27
2.62
2.09
1.65
1.30
1.01
0.79
0.61
0.47
0.37
0.28
0.22
0.18
0.15
0.12
0.11
0.11
0.12
0.13
0.14
0.16
0.19
0.22
0.25
0.29
0.32
0.36
0.40
0.44
0.48
0.52
0.57
0.62
0.67
0.72
0.78
0.85
0.94
1.06
1.19
1.31
1.41
1.47
1.51
1.55
1.63
1.77
2.01
2.30
2.62
2.92
3.17
3.39
3.62
3.90
4.29
4.80
5.39
6.00
6.53
6.95
7.32
7.72
8.27
9.07
10.09
11.23
12.30
13.09
13.55
13.73
13.85
14.15
14.79
15.73
16.63
17.01
16.33
14.34
11.09
7.02
2.74
-1.24
-4.79
-8.11
-11.69
-15.99
-21.09
-26.56
-31.61
-35.39
-37.43
-37.96
-37.71
-37.47
-37.89
-39.18
-41.39
-44.80
-49.76
-56.07
-61.95
-64.31
-60.10
-48.31
-30.77
-11.60
4.45
14.18
16.88
14.17
8.89
3.95
1.30
1.50
3.77
6.72
9.17
10.79
12.12
13.66
15.00
14.27
8.86
-3.22
-21.25
-41.33
-58.15
-67.69
-69.35
-65.55
-59.37
-52.13
-42.57
-28.60
-9.97
9.92
24.87
28.94
19.98
1.29
-19.53
-33.92
-36.14
-25.51
-6.16
15.69
32.62
40.36
38.65
30.51
20.24
11.52
6.36
5.33
8.44
15.82
28.17
45.83
67.85
91.60
113.39
129.61
137.88
137.81
130.95
120.33
109.14
99.49
91.80
84.95
77.18
67.29
55.36
42.57
30.48
19.97
10.92
2.84
-4.15
-8.87
-9.49
-4.92
4.07
14.66
22.96
25.74
21.69
11.90
-0.94
-13.88
-24.75
-32.72
-37.92
-40.84
-41.74
-40.53
-36.87
-30.62
-22.10
-12.15
-1.77
8.25
17.66
26.56
34.97
42.40
47.74
49.63
47.02
39.66
28.12
13.36
-3.78
-22.93
-43.94
-66.40
-89.27
-110.91
-129.61
-144.09
-153.83
-158.94
-159.85
-157.00
-150.83
-142.03
-131.72
-121.39
-112.32
-105.07
-99.02
-92.74
-84.61
-73.55
-59.44
-43.29
-27.36
-14.89
-9.50
-13.84
-28.01
-48.49
-68.56
-80.08
-76.54
-55.62
-20.04
23.96
69.79
113.19
153.46
192.30
231.45
270.58
306.74
335.69
354.06
361.00
358.17
348.15
332.40
310.37
280.56
242.69
199.38
155.97
118.18
89.01
66.94
46.38
20.17
-17.18
-67.26
-127.32
-191.32
-251.67
-300.90
-333.17
-345.84
-340.44
-322.33
-299.20
-278.42
-264.51
-257.94
-256.09
-255.26
-252.84
-248.43
-243.50
-239.98
-238.97
-239.80
-240.10
-236.51
-225.58
-204.69
-172.63
-129.98
-79.38
-25.33
26.65
71.35
105.42
128.49
143.12
153.70
164.72
179.15
197.67
218.69
238.65
252.73
255.88
244.15
216.49
176.26
131.43
92.68
70.00
68.91
88.40
121.62
158.76
190.97
213.14
224.58
227.58
224.98
218.27
207.33
191.50
171.09
148.09
125.50
105.62
88.67
72.69
54.96
33.86
10.17
-13.26
-32.93
-46.44
-53.26
-54.59
-52.37
-48.57
-45.20
-44.42
-48.30
-57.93
-72.54
-89.18
-103.59
-111.94
-112.69
-107.25
-99.27
-92.69
-89.93
-91.05
-94.08
-95.88
-93.22
-83.61
-65.79
-40.20
-9.60
21.34
47.68
66.22
77.02
83.50
90.46
101.72
118.40
138.45
158.30
175.07
187.65
196.04
200.12
198.82
191.30
178.86
165.15
155.24
153.21
159.28
168.82
173.74
165.50
139.57
97.94
46.49
-7.51
-57.80
-101.22
-138.00
-170.96
-205.64
-246.99
-296.60
-354.80
-418.98
-482.04
-533.90
-564.38
-566.51
-541.01
-493.62
-431.62
-366.72
-311.32
-273.46
-254.99
-251.64
-254.91
-257.97
-254.29
-236.60
-204.11
-160.34
-108.31
-49.12
17.59
107.46
218.44
316.54
387.34
429.33
442.26
431.12
404.56
371.57
338.03
302.75
263.14
220.84
176.92
133.15
92.97
58.94
30.63
4.31
-27.73
-71.44
-126.65
-191.20
-260.15
-324.89
-375.37
-403.06
-403.82
-380.47
-339.84
-288.61
-233.50
-178.79
-125.05
-70.89
-15.07
42.01
97.80
149.74
196.98
238.96
275.07
304.64
326.72
340.41
345.29
341.59
330.47
313.89
294.00
273.30
255.27
243.57
240.74
246.27
255.32
259.58
249.95
220.47
171.39
109.70
46.34
-8.18
-47.87
-72.43
-85.71
-93.10
-99.20
-107.24
-119.22
-135.76
-155.45
-174.23
-186.15
-185.61
-170.16
-142.46
-109.95
-82.22
-67.69
-70.90
-91.72
-126.26
-167.81
-208.25
-239.03
-252.56
-243.89
-212.15
-160.95
-97.13
-28.37
38.93
100.56
154.25
198.84
233.78
259.02
274.95
282.19
281.16
272.00
255.06
231.84
205.58
180.95
162.39
151.86
147.65
144.72
136.90
119.98
93.80
62.22
30.92
4.57
-14.89
-28.45
-38.77
-48.19
-57.34
-65.31
-70.63
-72.85
-73.25
-74.28
-78.61
-88.25
-104.46
-128.22
-160.35
-200.66
-246.59
-292.28
-329.54
-350.39
-350.67
-331.85
-300.35
-264.75
-231.91
-204.58
-181.75
-160.82
-140.03
-119.70
-101.66
-87.91
-79.74
-77.94
-83.81
-99.60
-127.45
-167.25
-214.43
-260.03
-293.44
-306.59
-297.53
-270.97
-235.66
-199.95
-168.20
-139.91
-111.66
-80.19
-44.73
-6.98
30.72
67.53
105.11
146.31
192.84
243.17
292.33
333.49
360.74
371.37
366.55
350.31
327.44
301.39
273.53
243.67
211.54
178.07
145.68
117.50
96.05
82.13
74.61
70.93
68.06
63.20
54.21
39.78
19.44
-5.89
-33.49
-58.90
-76.87
-82.99
-75.52
-56.07
-29.12
-0.26
25.73
46.18
60.53
69.62
74.54
75.87
73.64
67.65
57.95
45.21
30.76
16.39
3.93
-5.23
-10.71
-13.30
-14.67
-16.55
-19.80
-23.80
-26.58
-25.72
-19.79
-9.45
2.46
12.03
16.01
13.58
6.87
0.09
-2.41
1.77
11.98
25.04
36.84
44.02
45.01
40.13
31.21
21.06
12.77
8.75
9.56
13.14
14.69
7.98
-12.45
-48.87
-98.74
-154.67
-206.22
-243.40
-260.26
-257.02
-239.56
-216.36
-194.39
-176.10
-159.14
-138.86
-112.00
-79.39
-45.65
-16.43
4.86
18.71
28.64
38.57
50.40
63.68
76.89
89.05
100.62
112.68
125.75
139.12
150.82
158.50
160.33
155.48
144.26
128.29
110.48
94.79
85.21
84.29
91.77
104.38
117.13
125.55
127.76
125.05
120.76
118.19
118.94
122.52
126.99
129.81
128.75
122.41
110.58
94.66
77.58
62.85
53.09
48.67
47.43
45.81
40.76
31.12
17.86
2.93
-12.12
-26.97
-42.14
-57.76
-72.67
-84.35
-90.01
-88.00
-78.62
-64.07
-47.61
-32.35
-20.45
-12.82
-9.25
-8.86
-10.62
-13.63
-17.21
-20.69
-23.22
-23.73
-21.17
-15.01
-5.80
4.61
13.44
17.96
16.59
9.74
-0.19
-9.77
-15.95
-17.29
-14.45
-9.52
-5.01
-2.68
-2.92
-4.97
-7.55
-9.61
-10.84
-11.64
-12.69
-14.53
-17.27
-20.58
-23.91
-26.86
-29.31
-31.47
-33.70
-36.35
-39.59
-43.23
-46.71
-49.14
-49.58
-47.45
-42.85
-36.57
-29.85
-23.78
-18.77
-14.49
-10.18
-5.26
0.18
5.44
9.64
12.24
13.36
13.58
13.53
13.66
14.18
15.23
16.88
18.95
20.81
21.46
20.02
16.32
11.27
6.49
3.55
3.35
5.99
11.20
18.98
29.59
42.98
58.13
72.82
84.31
90.40
90.34
84.83
75.35
63.48
50.40
37.07
24.42
13.42
4.87
-0.89
-4.07
-5.18
-4.75
-3.22
-1.02
1.49
4.02
6.57
9.32
12.19
14.45
14.60
10.82
1.82
-12.39
-30.35
-49.40
-66.43
-78.83
-85.11
-85.22
-80.47
-72.87
-64.37
-56.28
-49.13
-42.92
-37.77
-34.33
-33.59
-36.33
-42.28
-49.85
-56.53
-59.86
-58.42
-52.43
-43.44
-33.62
-24.86
-18.15
-13.39
-9.84
-6.71
-3.71
-1.10
0.58
1.05
0.59
-0.14
-0.55
-0.57
-0.72
-1.79
-4.25
-7.89
-11.83
-14.86
-15.95
-14.56
-10.83
-5.43
0.63
6.21
10.28
12.14
11.58
8.86
4.57
-0.68
-6.46
-12.59
-19.02
-25.51
-31.53
-36.35
-39.24
-39.90
-38.58
-36.13
-33.82
-32.90
-34.27
-38.08
-43.66
-49.74
-54.88
-58.10
-59.30
-59.33
-59.71
-62.00
-67.16
-75.14
-84.99
-95.43
-105.56
-115.35
-125.72
-137.92
-152.66
-169.58
-187.24
-203.72
-217.25
-226.62
-231.11
-229.97
-222.25
-207.28
-185.60
-159.76
-134.09
-113.29
-100.62
-96.64
-99.33
-105.45
-112.30
-118.77
-125.12
-131.85
-138.31
-142.24
-140.32
-129.42
-107.98
-76.56
-37.64
5.61
50.48
95.47
140.51
186.59
235.13
287.45
344.73
407.94
477.29
551.27
625.42
692.17
742.29
767.75
764.86
736.02
688.90
633.33
577.57
525.79
477.97
431.82
385.29
338.00
291.07
245.85
202.88
161.89
122.50
85.01
50.50
20.17
-5.62
-27.81
-48.43
-69.68
-93.07
-119.39
-149.17
-183.21
-222.46
-267.01
-314.68
-360.61
-398.13
-420.93
-425.24
-410.75
-379.96
-336.76
-285.06
-228.73
-172.24
-121.24
-81.98
-59.50
-55.83
-69.08
-94.44
-126.44
-161.76
-200.23
-243.65
-293.04
-346.10
-396.47
-435.46
-455.29
-452.06
-427.47
-387.89
-341.48
-295.00
-251.99
-213.01
-177.15
-143.63
-111.62
-80.61
-49.65
-16.57
21.51
66.55
117.46
169.18
213.72
244.71
258.69
256.59
243.77
228.31
218.00
217.17
225.23
237.57
250.27
259.39
261.63
255.26
241.11
222.87
205.92
195.88
197.19
214.96
249.85
296.70
346.04
387.73
414.77
424.68
419.34
384.82
319.93
237.59
158.01
95.52
53.18
27.61
13.84
7.57
5.55
8.33
15.54
25.33
35.16
42.92
48.35
52.13
54.71
55.69
56.16
55.66
51.35
43.50
31.52
16.10
-1.32
-19.37
-37.27
-53.40
-66.94
-78.16
-87.69
-96.23
-103.46
-108.62
-111.37
-112.18
-111.57
-110.63
-110.72
-112.69
-116.86
-122.29
-127.52
-131.43
-133.83
-135.28
-137.05
-140.56
-146.61
-155.26
-165.74
-176.87
-187.94
-199.03
-211.08
-225.63
-244.66
-270.52
-305.51
-350.67
-404.22
-460.70
-511.43
-546.91
-560.12
-549.29
-518.54
-476.07
-430.65
-388.35
-351.23
-317.94
-285.86
-253.00
-218.81
-183.76
-148.45
-112.93
-76.75
-39.47
-0.98
38.43
78.28
118.55
159.73
202.34
245.97
288.52
326.17
354.40
369.46
369.90
357.16
335.01
308.21
280.85
255.28
231.89
209.84
188.13
166.49
145.64
126.87
111.15
98.37
87.18
75.58
62.06
46.73
31.34
18.51
10.14
6.09
3.90
-0.19
-9.73
-26.39
-49.18
-74.75
-98.22
-114.29
-118.21
-107.04
-81.12
-45.03
-7.25
22.27
35.87
31.51
13.64
-9.02
-27.77
-37.82
-39.72
-37.56
-35.61
-35.48
-35.54
-32.74
-24.97
-12.48
2.43
16.84
28.59
36.94
42.41
46.75
52.42
62.26
78.67
102.72
133.37
167.50
200.66
228.34
247.22
255.88
254.80
245.83
231.44
214.24
196.59
180.47
167.22
157.47
150.93
146.61
143.18
139.38
134.51
128.38
121.29
113.83
106.98
102.07
100.60
103.80
111.68
122.67
133.75
141.68
144.41
141.89
135.56
127.06
116.87
103.95
86.62
63.86
36.30
5.91
-25.27
-56.39
-88.52
-124.42
-167.38
-219.59
-280.48
-345.95
-408.55
-459.24
-489.96
-496.25
-478.50
-441.46
-391.82
-335.70
-276.79
-216.43
-155.21
-94.93
-39.59
5.60
36.37
51.48
53.53
47.96
40.90
36.93
37.75
42.18
47.53
51.35
52.87
53.26
54.79
59.27
66.85
75.63
82.76
85.91
84.52
80.09
75.06
71.17
68.31
64.61
57.90
47.32
34.12
21.05
10.92
5.25
3.90
5.59
8.87
12.72
16.65
20.35
23.56
26.14
28.20
30.07
32.06
33.96
35.06
34.43
31.60
26.94
21.59
16.85
13.46
11.33
9.81
8.15
5.97
3.24
0.01
-3.89
-8.78
-14.69
-21.06
-26.56
-29.60
-29.07
-24.94
-18.40
-11.33
-5.54
-2.05
-0.93
-1.55
-2.96
-4.45
-5.63
-6.34
-6.54
-6.16
-5.20
-3.81
-2.36
-1.28
-0.90
-1.22
-1.84
-2.20
-1.88
-0.83
0.48
1.21
0.51
-2.06
-6.33
-11.54
-16.66
-20.82
-23.70
-25.54
-26.97
-28.63
-30.93
-33.88
-37.21
-40.43
-42.94
-44.07
-43.19
-39.92
-34.31
-26.94
-18.86
-11.15
-4.64
0.37
4.03
6.77
9.08
11.29
13.56
15.84
17.89
19.26
19.51
18.42
16.22
13.61
11.51
10.65
11.25
12.98
15.14
17.01
18.11
18.25
17.44
15.80
13.47
10.65
7.68
4.90
2.55
0.56
-1.52
-4.31
-8.36
-13.80
-20.16
-26.38
-31.12
-33.12
-31.72
-27.01
-19.80
-11.42
-3.17
3.89
9.24
12.83
14.99
16.13
16.68
16.96
17.15
17.31
17.44
17.49
17.36
17.02
16.42
15.60
14.70
13.82
13.11
12.59
12.13
11.49
10.44
8.87
6.85
4.61
2.36
0.23
-1.93
-4.31
-7.10
-10.31
-13.81
-17.38
-20.81
-23.96
-26.56
-28.23
-28.43
-26.73
-23.08
-18.00
-12.38
-7.14
-2.85
0.47
3.18
5.65
8.00
10.06
11.55
12.33
12.55
12.56
12.68
13.00
13.40
13.60
13.47
13.10
12.76
12.78
13.25
14.00
14.65
14.69
13.78
11.73
8.67
4.85
0.66
-3.37
-6.81
-9.30
-10.79
-11.58
-12.33
-13.80
-16.52
-20.50
-25.19
-29.63
-32.74
-33.78
-32.43
-28.91
-23.85
-18.02
-12.24
-7.08
-2.79
0.68
3.51
5.85
7.69
9.01
9.92
10.76
12.07
14.30
17.44
20.96
23.95
25.61
25.59
24.17
22.10
20.11
18.58
17.43
16.26
14.72
12.67
10.26
7.78
5.50
3.58
2.06
0.92
0.09
-0.52
-1.06
-1.78
-3.01
-5.16
-8.42
-12.72
-17.55
-21.99
-24.91
-25.33
-22.77
-17.53
-10.62
-3.44
2.67
6.99
9.51
10.89
11.91
13.10
14.47
15.57
15.98
15.54
14.59
13.68
13.25
13.33
13.55
13.47
12.90
12.06
11.37
11.21
11.59
12.18
12.47
12.10
11.00
9.35
7.41
5.33
3.16
0.90
-1.40
-3.60
-5.53
-7.12
-8.48
-9.88
-11.70
-14.23
-17.58
-21.57
-25.67
-29.08
-30.88
-30.33
-27.08
-21.42
-14.21
-6.72
-0.20
4.51
7.27
8.56
9.17
9.80
10.70
11.65
12.19
11.99
11.11
10.03
9.39
9.59
10.64
12.14
13.62
14.80
15.55
15.72
14.87
12.25
7.09
-0.89
-11.19
-22.53
-33.35
-42.37
-48.93
-53.05
-55.04
-55.32
-54.31
-52.60
-51.20
-51.46
-54.68
-61.35
-70.56
-79.84
-85.90
-85.71
-77.80
-62.80
-43.12
-21.84
-1.55
16.42
31.90
45.32
56.93
66.59
73.83
78.27
79.85
78.71
75.02
68.91
60.77
51.61
43.23
37.83
37.28
42.30
52.12
64.63
77.21
87.67
95.10
100.03
104.24
109.90
118.80
131.78
148.55
167.98
188.48
208.28
225.48
238.12
244.45
243.58
235.84
222.77
206.43
188.22
167.90
143.79
114.15
79.14
42.10
9.09
-13.39
-21.26
-14.83
0.99
18.84
31.78
35.46
28.86
13.12
-10.42
-41.71
-81.74
-130.71
-185.62
-239.22
-281.59
-303.64
-301.64
-279.56
-248.49
-222.76
-214.79
-231.34
-272.39
-332.49
-403.25
-475.70
-541.48
-593.54
-626.80
-638.94
-631.04
-607.31
-573.92
-537.00
-501.39
-469.76
-442.66
-419.04
-396.91
-373.76
-347.30
-316.16
-280.52
-242.15
-203.78
-167.94
-136.24
-108.51
-83.07
-57.36
-28.62
5.08
44.06
86.21
126.99
160.55
181.96
189.49
185.91
177.80
172.79
176.21
188.80
206.88
224.69
237.61
244.53
248.00
252.44
261.56
276.52
295.69
315.94
334.58
350.61
364.99
379.81
396.95
417.27
440.56
465.87
491.84
516.35
535.82
545.06
538.51
513.08
471.06
421.16
376.32
348.78
344.65
361.16
387.89
411.59
421.84
414.54
392.01
360.02
323.96
286.62
247.99
206.90
162.95
117.39
72.88
32.29
-2.50
-31.12
-54.60
-74.62
-92.56
-109.03
-124.12
-137.94
-151.10
-164.51
-178.94
-194.24
-209.22
-222.35
-232.89
-241.76
-251.84
-267.17
-291.38
-325.96
-369.02
-415.16
-456.38
-484.31
-492.61
-478.87
-445.17
-396.96
-340.82
-282.18
-223.89
-166.30
-108.65
-50.59
6.85
61.23
109.80
150.57
183.09
208.22
227.46
241.96
251.84
256.16
253.67
243.44
225.36
200.23
169.94
137.56
107.22
83.51
70.42
69.96
81.43
101.57
125.67
148.92
167.35
177.92
178.32
166.86
143.04
108.27
66.14
21.71
-20.07
-56.28
-87.02
-115.14
-144.90
-180.32
-223.96
-276.10
-334.71
-395.55
-452.37
-497.82
-525.17
-530.89
-516.68
-489.49
-459.12
-433.99
-417.57
-407.01
-395.29
-375.42
-344.59
-305.84
-266.33
-233.49
-211.23
-198.23
-189.13
-177.49
-158.90
-132.29
-99.55
-63.66
-27.09
8.87
43.54
75.87
103.80
124.77
136.83
139.49
133.91
122.21
106.59
88.76
69.80
50.27
30.48
10.72
-8.36
-25.42
-38.23
-44.30
-41.89
-31.13
-14.14
5.86
26.15
45.70
65.08
85.33
106.37
126.50
143.05
153.81
158.22
157.44
153.40
147.70
140.94
132.90
123.26
112.20
100.54
89.37
79.47
70.92
63.10
55.11
46.21
36.28
25.73
15.34
5.85
-2.43
-9.78
-17.04
-25.32
-35.54
-47.99
-61.99
-75.92
-87.49
-94.21
-94.07
-86.04
-70.37
-48.54
-22.87
4.00
29.76
52.81
72.50
88.93
102.65
114.33
124.36
132.91
139.95
145.40
149.14
151.01
150.88
148.78
145.16
140.87
136.78
133.33
130.16
126.34
120.94
113.49
104.23
93.81
82.93
72.09
61.60
51.54
41.96
32.74
23.84
15.54
8.63
4.43
4.43
9.86
21.11
37.57
57.64
79.05
99.36
116.55
129.49
138.26
143.95
147.88
150.55
151.06
147.47
138.16
123.15
104.56
85.71
69.47
56.76
46.43
36.33
25.06
13.07
2.51
-4.05
-5.33
-2.48
1.11
1.14
-5.92
-21.40
-43.95
-70.00
-95.12
-115.54
-129.62
-138.54
-145.76
-155.41
-170.30
-190.26
-211.79
-229.53
-238.79
-237.75
-228.18
-214.14
-199.94
-188.00
-178.07
-167.74
-154.00
-134.71
-109.39
-79.21
-46.37
-13.62
16.28
40.89
58.41
68.05
70.53
68.02
63.92
62.01
65.38
75.48
91.58
110.85
129.32
143.49
151.42
153.07
149.94
143.95
136.47
127.94
118.02
106.36
93.20
79.54
66.95
56.88
50.11
46.51
45.00
43.96
41.63
36.52
27.59
14.48
-2.36
-21.66
-41.23
-58.32
-70.09
-74.37
-70.44
-59.45
-44.07
-27.56
-12.43
0.30
11.01
20.54
29.13
35.94
39.54
39.12
35.35
30.42
26.91
26.31
28.15
30.12
29.37
23.84
12.94
-2.66
-21.75
-42.94
-64.38
-83.26
-95.69
-97.53
-85.87
-60.46
-24.37
16.21
53.50
80.12
91.09
85.34
65.73
37.98
8.69
-16.79
-35.91
-48.97
-58.36
-66.74
-75.67
-84.91
-92.62
-96.01
-91.98
-77.84
-52.14
-15.59
28.63
75.42
119.27
156.11
184.28
204.28
217.05
222.38
217.97
200.34
167.37
120.68
66.64
14.53
-26.98
-53.13
-64.24
-64.10
-56.47
-42.31
-19.36
15.58
62.97
118.17
172.06
214.32
237.52
239.77
224.42
197.26
163.37
125.34
83.74
38.92
-7.21
-50.78
-87.07
-112.41
-126.05
-130.43
-129.98
-128.68
-127.82
-125.26
-116.82
-99.11
-72.15
-40.25
-10.33
11.29
21.83
22.92
19.11
14.78
11.69
8.46
2.21
-9.05
-24.89
-42.68
-59.00
-71.25
-78.33
-80.30
-77.53
-70.14
-58.31
-42.99
-26.55
-12.64
-4.98
-5.53
-13.33
-24.72
-35.12
-41.35
-42.99
-42.01
-40.82
-40.34
-39.30
-35.32
-26.72
-13.71
1.81
17.36
31.19
42.89
53.15
63.06
73.55
85.12
98.00
112.15
127.15
141.81
154.15
161.56
161.35
151.38
130.88
101.11
65.36
28.02
-7.06
-38.09
-65.68
-91.55
-116.59
-139.52
-157.48
-168.08
-171.37
-170.11
-168.14
-167.74
-168.09
-165.93
-158.01
-143.63
-125.65
-109.16
-98.83
-96.49
-100.41
-106.45
-110.19
-108.85
-102.05
-91.35
-79.02
-66.91
-55.82
-45.64
-35.94
-26.56
-17.81
-9.96
-2.57
5.75
16.63
30.59
45.90
58.55
63.51
56.97
38.20
10.24
-21.13
-49.76
-71.52
-85.62
-94.41
-101.83
-111.22
-123.56
-136.99
-147.52
-150.91
-144.84
-130.22
-111.05
-92.70
-79.78
-74.41
-75.95
-81.88
-89.07
-94.80
-96.86
-93.26
-82.18
-62.57
-35.33
-3.96
26.06
49.13
61.98
64.99
61.87
57.65
56.58
60.70
69.98
83.46
100.23
119.67
140.91
162.23
181.05
194.91
202.66
205.18
205.01
204.99
206.81
209.98
212.06
209.71
200.44
183.91
162.39
140.21
121.96
110.72
106.72
107.36
108.50
106.24
98.39
84.71
66.61
46.76
28.85
17.29
16.12
27.28
48.94
75.27
98.18
110.62
109.68
97.70
80.58
64.54
53.09
46.11
41.03
35.10
27.12
17.65
8.00
-0.92
-9.26
-17.92
-27.86
-39.36
-51.56
-62.53
-69.95
-72.06
-68.58
-61.15
-53.11
-48.33
-49.68
-57.76
-70.64
-84.78
-96.63
-104.11
-107.33
-108.17
-109.01
-111.30
-114.85
-117.90
-118.38
-115.23
-109.14
-102.34
-97.47
-96.16
-98.15
-101.48
-103.54
-102.48
-98.05
-91.60
-85.23
-80.70
-78.60
-78.18
-77.95
-76.25
-72.01
-65.09
-56.06
-45.96
-35.81
-26.34
-18.24
-12.36
-9.75
-10.96
-15.18
-19.92
-21.90
-18.73
-10.48
0.03
8.64
12.36
11.33
8.89
9.68
17.02
30.95
48.51
65.42
78.39
86.22
89.42
88.90
84.99
77.28
65.35
49.67
31.89
14.51
-0.17
-10.96
-18.18
-23.32
-28.10
-33.62
-39.99
-46.44
-51.98
-56.00
-58.56
-60.23
-61.67
-63.40
-65.78
-69.26
-74.33
-81.43
-90.52
-100.93
-111.41
-120.63
-127.62
-132.00
-133.83
-133.32
-130.72
-126.38
-120.87
-115.01
-109.41
-104.12
-98.42
-91.07
-80.99
-67.79
-52.04
-34.90
-17.64
-1.15
14.22
28.36
41.19
52.47
61.85
69.12
74.41
78.19
81.07
83.49
85.41
86.37
85.70
83.03
78.60
73.22
67.88
63.12
58.66
53.48
46.29
36.26
23.42
8.65
-6.71
-21.43
-34.81
-46.72
-57.40
-67.19
-76.32
-84.77
-92.11
-97.37
-99.05
-95.47
-85.37
-68.61
-46.49
-21.59
2.88
24.06
40.09
50.44
55.75
57.48
57.38
57.09
57.82
60.19
64.11
68.90
73.55
77.06
78.69
78.22
75.90
72.41
68.60
65.24
62.68
60.79
58.95
56.29
52.13
46.11
38.38
29.40
19.84
10.35
1.53
-6.13
-12.34
-17.16
-21.06
-24.72
-28.81
-33.56
-38.57
-42.85
-45.25
-44.91
-41.54
-35.54
-27.68
-18.80
-9.50
-0.11
9.25
18.44
27.20
35.18
41.96
47.34
51.36
54.31
56.63
58.70
60.70
62.51
63.84
64.31
63.73
62.08
59.44
55.84
51.13
44.95
36.81
26.46
14.00
0.14
-13.97
-27.05
-38.10
-46.70
-53.03
-57.70
-61.31
-64.06
-65.67
-65.36
-62.22
-55.50
-44.93
-30.81
-14.04
4.03
21.80
37.77
51.06
61.71
70.65
79.19
88.25
97.65
106.12
111.90
113.71
111.44
106.19
99.75
93.74
89.24
86.75
86.56
88.90
93.72
100.29
106.90
111.13
110.51
103.36
89.34
69.61
46.57
23.25
2.59
-13.31
-23.69
-29.20
-31.55
-32.80
-34.65
-38.08
-43.31
-49.87
-56.81
-62.81
-66.45
-66.71
-63.36
-57.21
-49.61
-41.63
-33.39
-24.20
-13.34
-1.10
10.88
20.23
25.02
24.89
21.26
16.74
13.94
14.64
19.50
28.23
40.10
54.08
68.78
82.31
92.41
97.04
95.26
87.98
77.85
68.59
63.61
64.68
71.26
80.58
88.55
91.07
85.40
71.13
50.40
26.97
4.77
-13.97
-29.77
-45.99
-67.33
-97.27
-136.17
-180.49
-224.05
-260.31
-284.36
-293.59
-287.09
-265.04
-229.06
-183.21
-134.65
-92.29
-63.40
-50.01
-47.25
-45.38
-35.06
-12.71
16.91
42.62
52.29
38.84
3.66
-44.27
-92.76
-132.44
-160.63
-181.59
-202.88
-230.04
-262.55
-293.16
-311.39
-309.07
-284.69
-244.13
-197.31
-152.98
-114.52
-79.41
-42.13
1.75
52.95
108.84
165.57
220.16
271.03
317.11
356.34
385.36
400.41
399.05
381.43
350.20
309.21
262.14
211.79
160.52
111.00
66.46
30.00
3.24
-14.54
-26.06
-34.57
-42.22
-49.22
-54.16
-55.15
-51.12
-42.44
-30.59
-17.30
-3.82
9.25
21.53
32.11
39.26
40.87
35.23
21.92
2.09
-21.86
-47.03
-70.76
-91.15
-107.19
-118.76
-126.47
-131.28
-134.12
-135.39
-134.66
-130.87
-123.40
-113.09
-102.93
-97.12
-99.05
-109.03
-123.35
-135.48
-139.06
-130.84
-111.98
-86.96
-60.89
-36.83
-14.90
6.77
29.76
53.77
76.56
95.39
108.77
117.32
123.23
128.74
134.73
140.48
144.24
144.60
141.25
135.14
127.89
121.03
115.26
110.39
105.58
99.85
92.59
83.87
74.40
65.24
57.30
50.93
45.82
41.21
36.53
31.92
28.29
27.09
29.60
36.29
46.62
59.26
72.55
84.84
94.59
100.23
100.28
93.59
80.02
60.81
38.54
16.35
-3.16
-18.80
-30.97
-41.08
-50.58
-60.06
-69.13
-76.83
-82.38
-85.78
-87.74
-89.12
-90.27
-90.68
-89.31
-85.32
-79.07
-72.28
-67.40
-66.30
-69.14
-74.06
-78.14
-78.83
-75.08
-67.59
-57.91
-47.36
-36.46
-25.17
-13.58
-2.34
7.49
15.16
20.71
25.03
29.09
33.37
37.61
41.15
43.45
44.55
44.95
45.35
46.24
47.57
48.57
47.99
44.54
37.56
27.56
16.30
6.14
-0.97
-4.39
-5.20
-5.60
-7.69
-12.34
-18.74
-24.83
-28.42
-28.24
-24.35
-17.99
-10.79
-4.11
1.32
5.23
7.09
5.83
0.25
-9.96
-23.23
-36.19
-45.10
-47.69
-44.43
-38.25
-32.86
-30.81
-32.33
-35.68
-38.58
-39.57
-38.62
-36.66
-34.65
-32.96
-31.37
-29.54
-27.50
-25.58
-24.25
-23.77
-24.13
-25.04
-26.20
-27.39
-28.59
-29.90
-31.48
-33.44
-35.71
-38.04
-40.01
-41.10
-40.90
-39.16
-35.96
-31.63
-26.77
-21.99
-17.90
-14.84
-12.84
-11.66
-10.77
-9.59
-7.58
-4.52
-0.58
3.58
6.94
8.56
7.91
5.26
1.61
-1.66
-3.41
-3.05
-0.83
2.33
5.11
5.86
2.90
-5.15
-18.55
-35.57
-52.19
-63.08
-63.74
-52.79
-33.17
-11.20
5.98
13.38
9.77
-2.63
-20.02
-38.93
-56.84
-71.66
-80.62
-80.18
-67.22
-41.02
-4.34
37.10
76.97
110.87
137.79
159.62
179.29
198.85
218.47
236.99
252.78
264.45
270.53
268.98
257.13
232.76
195.88
149.97
101.94
60.20
31.78
19.72
22.13
33.21
45.68
53.53
53.80
46.87
35.37
22.47
10.49
0.26
-8.68
-17.25
-26.06
-34.96
-43.08
-49.32
-52.80
-53.24
-51.00
-46.84
-41.41
-34.86
-26.67
-16.06
-2.72
12.48
27.35
39.05
45.38
45.90
42.39
38.12
36.45
39.27
46.18
54.66
61.07
62.23
56.64
45.01
29.94
14.72
2.01
-7.27
-14.22
-21.35
-31.28
-45.24
-62.05
-78.25
-89.27
-91.35
-83.37
-67.75
-49.79
-35.96
-31.75
-40.12
-60.91
-91.27
-126.47
-160.79
-188.33
-204.06
-205.34
-193.29
-173.01
-152.21
-138.07
-134.13
-138.59
-145.48
-147.87
-141.41
-125.86
-104.18
-80.20
-56.69
-35.21
-17.28
-5.51
-3.20
-12.37
-31.63
-55.77
-77.72
-91.73
-95.76
-91.54
-82.49
-71.05
-57.21
-38.85
-13.73
18.32
54.26
87.98
111.83
119.15
106.77
76.72
36.12
-4.76
-35.76
-50.26
-47.22
-31.02
-9.17
10.96
24.76
31.24
32.22
30.51
28.40
27.06
26.62
27.02
28.49
31.45
35.90
40.82
44.22
43.99
39.24
31.00
21.85
14.56
10.60
9.51
9.42
8.37
5.48
1.33
-2.64
-5.15
-5.99
-6.16
-7.37
-11.38
-19.32
-31.36
-46.63
-63.20
-78.35
-89.25
-94.15
-93.39
-90.39
-91.36
-103.91
-134.43
-185.14
-252.17
-325.68
-392.52
-440.36
-461.71
-455.94
-428.60
-388.45
-343.87
-300.39
-260.14
-223.04
-188.47
-156.38
-127.14
-100.81
-76.47
-52.31
-26.49
1.91
32.41
63.47
93.31
121.08
147.34
173.65
201.54
231.24
261.01
287.49
306.96
316.81
316.70
308.49
295.42
280.75
266.89
254.97
245.14
237.05
230.22
224.21
218.55
212.78
206.47
199.36
191.28
182.08
171.61
159.71
146.57
133.00
120.45
110.55
104.39
101.90
101.66
101.51
99.47
94.45
86.46
76.27
64.82
52.92
41.26
30.68
22.26
16.91
14.72
14.57
14.38
12.00
6.26
-2.56
-13.09
-23.85
-34.05
-43.85
-53.92
-64.57
-75.28
-84.69
-91.07
-92.98
-89.73
-81.53
-69.28
-54.27
-37.97
-21.73
-6.58
6.91
18.65
28.79
37.55
45.13
51.89
58.61
66.44
76.49
88.99
102.76
115.10
122.74
123.04
115.12
100.22
81.24
61.50
43.73
29.29
18.31
10.28
4.60
0.71
-2.26
-5.97
-12.82
-24.83
-42.28
-62.67
-81.14
-92.40
-93.21
-84.19
-69.70
-55.77
-47.14
-45.21
-47.84
-51.01
-51.20
-47.13
-39.92
-31.96
-25.40
-21.09
-18.43
-16.09
-12.95
-8.78
-4.37
-0.98
0.37
-0.54
-3.34
-7.81
-14.51
-24.63
-38.77
-55.25
-69.43
-74.90
-66.32
-42.48
-7.53
30.44
62.88
84.42
94.66
97.31
97.38
98.34
100.86
103.45
104.25
102.41
98.26
92.50
85.23
75.66
62.61
45.70
25.97
5.88
-11.44
-23.41
-29.03
-29.14
-25.93
-22.08
-19.65
-19.41
-20.79
-22.24
-22.10
-19.52
-15.00
-10.40
-7.88
-8.49
-11.03
-12.21
-8.00
4.05
23.23
45.60
65.76
79.38
85.09
84.72
81.84
79.68
79.54
80.73
81.48
80.29
76.76
71.46
65.30
58.86
52.10
44.45
35.19
23.90
10.79
-3.20
-16.76
-28.72
-38.55
-46.49
-53.19
-59.10
-64.00
-67.08
-67.40
-64.60
-59.16
-52.23
-45.08
-38.62
-33.23
-28.90
-25.49
-22.94
-21.21
-20.07
-19.20
-18.23
-17.01
-15.75
-14.84
-14.67
-15.34
-16.62
-17.97
-18.86
-19.05
-18.72
-18.37
-18.63
-19.88
-22.15
-25.05
-27.98
-30.38
-32.02
-33.07
-34.04
-35.63
-38.42
-42.65
-48.00
-53.66
-58.50
-61.40
-61.66
-59.13
-54.14
-47.33
-39.35
-30.67
-21.67
-12.68
-4.18
3.33
9.40
13.84
16.77
18.57
19.67
20.36
20.77
20.86
20.62
20.09
19.43
18.79
18.26
17.78
17.15
16.14
14.53
12.25
9.35
6.04
2.60
-0.67
-3.61
-6.23
-8.74
-11.46
-14.73
-18.74
-23.49
-28.76
-34.19
-39.25
-43.32
-45.76
-46.08
-44.02
-39.75
-33.79
-26.86
-19.73
-12.99
-6.93
-1.54
3.29
7.62
11.41
14.47
16.63
17.80
18.07
17.65
16.78
15.71
14.71
14.04
13.90
14.41
15.44
16.67
17.60
17.79
16.99
15.15
12.37
8.85
4.75
0.27
-4.31
-8.64
-12.44
-15.64
-18.48
-21.44
-25.11
-29.87
-35.67
-41.92
-47.59
-51.54
-52.87
-51.23
-46.96
-40.92
-34.17
-27.67
-21.98
-17.24
-13.36
-10.24
-7.96
-6.75
-6.87
-8.43
-11.22
-14.72
-18.33
-21.61
-24.51
-27.39
-30.86
-35.39
-41.02
-47.16
-52.80
-56.75
-57.97
-55.69
-49.45
-39.18
-25.34
-9.08
7.72
22.78
34.07
40.57
42.59
41.57
39.22
36.68
33.96
30.28
24.88
17.78
10.05
3.49
-0.18
0.15
4.58
12.43
22.65
34.00
45.24
55.24
63.10
68.51
71.79
73.69
74.91
75.62
75.38
73.59
70.03
65.27
60.44
56.63
54.25
52.71
50.69
46.75
39.99
30.46
19.05
7.08
-4.07
-13.35
-20.21
-24.66
-27.11
-28.25
-28.75
-29.23
-30.21
-32.19
-35.65
-40.90
-47.76
-55.27
-61.75
-65.27
-64.47
-59.19
-50.65
-41.07
-32.69
-26.91
-23.82
-22.43
-21.43
-19.87
-17.66
-15.43
-14.07
-14.29
-16.32
-19.83
-24.15
-28.38
-31.63
-33.17
-32.56
-29.85
-25.55
-20.55
-15.83
-12.17
-9.83
-8.55
-7.68
-6.45
-4.38
-1.36
2.35
6.29
10.05
13.41
16.43
19.52
23.47
29.30
38.04
50.20
65.36
82.06
98.17
111.61
120.97
125.80
126.40
123.28
116.76
107.18
95.35
82.92
72.11
64.76
61.18
59.60
56.79
49.63
36.75
19.30
0.31
-17.14
-31.50
-43.36
-54.44
-65.82
-76.42
-82.77
-80.51
-66.74
-41.85
-9.95
22.70
50.12
68.95
79.22
83.60
85.45
87.00
88.63
89.36
88.09
84.74
80.59
77.64
77.62
81.06
87.25
94.77
102.33
109.32
115.72
121.40
125.30
125.21
118.30
102.79
79.33
51.79
26.41
9.68
5.77
14.60
31.74
50.01
62.23
63.81
54.23
36.66
16.06
-2.89
-17.41
-26.95
-32.24
-33.90
-31.44
-23.52
-9.24
10.25
31.17
47.92
55.06
49.39
30.75
1.19
-36.42
-79.60
-125.96
-171.66
-210.39
-233.98
-234.97
-209.87
-161.14
-96.69
-27.22
37.25
89.82
127.17
149.02
156.89
153.55
142.84
129.26
116.95
108.39
103.33
99.11
91.99
78.99
59.10
33.36
4.07
-26.56
-57.19
-87.72
-119.23
-153.41
-192.34
-237.95
-291.04
-350.15
-410.68
-465.13
-505.16
-524.30
-520.45
-496.61
-459.13
-414.26
-365.23
-311.73
-252.06
-186.88
-121.75
-66.64
-32.58
-27.37
-52.75
-104.27
-173.39
-250.04
-324.59
-388.69
-435.61
-460.81
-462.83
-443.86
-409.25
-365.85
-319.84
-275.25
-233.76
-195.49
-160.05
-126.88
-95.21
-63.90
-31.59
2.65
38.52
74.39
107.78
136.21
158.17
173.70
184.29
192.35
200.56
211.26
226.11
245.58
268.45
291.76
311.34
323.00
324.22
315.39
299.76
282.11
266.47
254.03
242.52
227.22
202.83
165.34
113.16
47.46
-27.74
-105.90
-178.47
-236.36
-272.17
-282.44
-268.79
-237.21
-196.01
-152.83
-112.64
-77.00
-44.86
-13.83
18.66
54.42
93.84
135.28
175.05
207.96
228.72
233.62
221.63
194.93
158.21
117.31
77.57
42.61
13.66
-10.05
-30.36
-49.11
-67.24
-84.43
-99.34
-110.37
-116.34
-117.15
-113.85
-108.49
-103.61
-101.39
-102.97
-107.96
-114.80
-121.46
-126.55
-129.77
-131.57
-132.34
-131.62
-127.98
-119.82
-106.22
-87.69
-65.87
-42.84
-20.17
1.66
23.21
45.73
70.58
98.85
131.00
166.41
203.05
237.27
264.61
281.33
286.30
281.95
273.78
268.53
271.46
284.36
305.06
328.38
348.28
360.04
361.71
354.51
342.29
330.24
323.13
323.57
330.77
340.56
346.73
343.38
327.34
299.10
262.21
221.47
180.65
141.28
102.55
62.35
18.71
-29.01
-79.65
-130.21
-176.15
-211.91
-231.89
-231.73
-209.95
-169.11
-115.89
-59.75
-10.29
25.52
45.22
50.59
46.02
35.83
22.40
5.64
-16.20
-45.28
-83.13
-129.92
-183.81
-240.70
-294.61
-339.04
-369.08
-383.34
-384.33
-376.94
-365.70
-352.46
-335.86
-312.97
-281.70
-242.32
-197.04
-148.40
-97.98
-46.58
4.35
51.39
89.30
113.11
120.66
114.13
99.79
85.77
79.30
84.74
103.00
132.32
169.35
209.97
249.59
283.50
307.40
318.28
315.27
299.90
275.47
246.03
215.09
185.00
156.99
131.66
109.39
90.52
75.12
62.78
52.74
44.25
37.10
31.72
28.87
29.11
32.26
37.13
41.75
43.95
41.96
34.95
23.13
7.59
-10.23
-28.99
-47.59
-65.09
-80.46
-92.46
-99.87
-101.88
-98.56
-90.98
-80.73
-69.37
-57.81
-46.27
-34.84
-24.06
-15.25
-10.02
-9.35
-12.81
-18.51
-24.02
-27.61
-29.30
-30.79
-34.58
-42.54
-54.88
-70.02
-85.31
-98.17
-106.82
-110.57
-109.40
-103.56
-93.39
-79.53
-63.25
-46.44
-31.16
-18.97
-10.39
-4.63
-0.07
4.85
10.91
17.68
23.79
27.79
29.00
28.03
26.50
26.18
28.04
31.72
35.65
37.83
36.74
32.05
24.67
16.35
8.87
3.46
0.54
-0.18
0.58
1.89
2.83
2.51
0.20
-4.55
-11.72
-20.60
-29.77
-37.26
-41.07
-39.81
-33.35
-22.88
-10.62
1.00
10.16
16.22
19.75
22.13
24.92
29.22
35.34
42.78
50.41
56.93
61.37
63.34
63.16
61.67
59.86
58.47
57.74
57.46
57.09
56.01
53.67
49.67
43.78
35.99
26.66
16.52
6.49
-2.58
-10.29
-16.85
-22.89
-29.07
-35.65
-42.23
-47.91
-51.66
-52.70
-50.84
-46.36
-39.94
-32.39
-24.52
-17.03
-10.41
-4.90
-0.33
3.74
7.80
12.06
16.21
19.47
21.01
20.36
17.76
14.12
10.71
8.52
7.89
8.40
9.13
9.15
7.95
5.64
2.82
0.07
-2.41
-5.07
-8.77
-14.26
-21.69
-30.50
-39.72
-48.48
-56.33
-63.22
-69.05
-73.25
-74.73
-72.32
-65.41
-54.49
-41.10
-27.43
-15.47
-6.47
-0.69
2.41
3.79
4.38
4.98
6.09
7.85
10.03
12.03
13.07
12.51
10.12
6.27
1.85
-2.15
-5.04
-6.73
-7.73
-8.78
-10.49
-12.91
-15.63
-18.04
-19.75
-20.78
-21.54
-22.57
-24.27
-26.78
-30.00
-33.79
-37.93
-42.17
-46.03
-48.83
-49.81
-48.45
-44.76
-39.33
-33.04
-26.72
-20.74
-15.04
-9.33
-3.45
2.46
7.97
12.65
16.25
18.82
20.61
21.84
22.62
22.85
22.41
21.31
19.80
18.30
17.24
16.86
17.13
17.72
18.14
17.96
16.83
14.56
11.10
6.50
0.89
-5.58
-12.75
-20.34
-27.94
-34.92
-40.45
-43.63
-43.75
-40.57
-34.53
-26.80
-18.96
-12.63
-8.96
-8.31
-10.26
-13.83
-17.96
-21.89
-25.44
-28.99
-33.21
-38.64
-45.32
-52.70
-59.84
-65.92
-70.48
-73.54
-75.42
-76.48
-77.06
-77.53
-78.47
-80.43
-83.50
-86.66
-87.37
-82.10
-67.72
-43.08
-9.74
28.50
67.23
103.08
134.68
162.22
186.15
205.61
218.14
220.91
212.71
195.04
171.72
147.34
125.42
107.32
91.78
75.64
55.95
31.56
3.46
-25.82
-53.21
-75.75
-91.15
-98.82
-100.34
-98.51
-96.25
-96.08
-100.04
-108.90
-120.56
-129.25
-127.52
-109.55
-73.86
-24.65
29.01
75.93
105.41
109.66
91.86
65.99
46.28
37.87
36.87
36.57
32.68
25.74
20.18
20.67
28.42
40.01
49.63
52.09
45.53
30.62
10.42
-10.40
-27.22
-37.03
-39.31
-35.59
-28.83
-22.02
-19.01
-21.84
-29.39
-38.46
-44.98
-46.49
-39.99
-27.60
-14.16
-6.91
-12.42
-30.01
-55.91
-84.49
-110.03
-128.03
-136.70
-127.04
-100.18
-65.17
-33.31
-12.03
-1.87
1.49
3.71
8.66
17.78
28.20
36.33
38.86
33.24
17.22
-10.96
-51.14
-99.68
-149.46
-193.39
-225.58
-237.35
-223.25
-184.14
-127.53
-64.69
-6.30
41.30
75.81
99.51
117.85
140.45
175.72
227.28
292.65
364.96
435.07
492.38
528.13
515.28
443.83
330.24
209.12
109.86
43.07
3.59
-20.76
-39.95
-58.21
-71.32
-74.16
-66.17
-52.50
-40.75
-36.90
-44.34
-62.41
-87.54
-112.86
-133.38
-147.90
-158.30
-166.31
-166.70
-157.70
-139.51
-114.74
-85.55
-54.40
-23.29
5.92
30.62
46.80
48.05
29.19
-10.69
-65.09
-122.19
-167.96
-190.69
-185.01
-153.65
-107.28
-60.91
-30.00
-21.56
-36.13
-66.08
-97.85
-116.45
-111.22
-80.61
-32.76
17.62
55.32
69.69
58.62
27.13
-16.05
-62.03
-104.04
-137.20
-157.50
-161.47
-147.53
-116.87
-75.02
-30.87
6.28
29.98
38.81
36.71
31.24
27.28
29.83
41.04
59.98
83.44
107.37
128.45
145.25
158.76
171.34
186.39
206.45
232.85
265.83
304.72
347.72
391.46
430.62
458.48
469.09
458.86
428.17
381.34
325.00
265.81
208.59
156.03
109.18
68.71
34.92
7.15
-17.20
-42.87
-75.67
-119.66
-174.20
-232.62
-283.04
-311.95
-308.81
-269.83
-199.75
-110.64
-18.50
61.18
117.27
145.16
146.56
127.50
95.70
57.93
18.70
-19.93
-57.59
-94.73
-131.77
-168.69
-204.99
-239.31
-269.31
-291.91
-304.09
-303.97
-291.72
-269.32
-240.14
-207.98
-176.33
-148.15
-125.78
-110.67
-102.80
-100.18
-98.96
-94.50
-83.04
-63.23
-36.96
-8.73
15.86
32.19
38.20
34.92
25.65
14.44
4.39
-3.23
-8.98
-14.22
-20.09
-26.89
-34.16
-41.50
-48.86
-56.48
-64.19
-70.91
-74.55
-73.08
-65.70
-53.56
-39.45
-26.55
-16.95
-10.77
-6.39
-1.60
5.20
14.19
24.30
33.90
41.62
46.90
49.98
51.55
52.38
52.98
53.49
53.81
53.74
53.06
51.56
49.00
45.07
39.48
32.13
23.25
13.41
3.25
-6.64
-16.01
-24.92
-33.56
-41.91
-49.47
-55.28
-58.09
-56.83
-51.01
-40.95
-27.79
-13.14
1.28
14.10
24.44
32.01
36.98
39.87
41.34
42.03
42.33
42.26
41.49
39.64
36.59
32.65
28.51
24.92
22.17
20.02
17.76
14.72
10.66
5.89
0.99
-3.62
-8.01
-12.65
-18.00
-24.10
-30.48
-36.43
-41.38
-45.27
-48.44
-51.12
-52.99
-53.02
-49.84
-42.45
-30.92
-16.50
-1.18
13.07
25.07
34.63
42.29
48.71
54.15
58.40
61.11
62.24
62.30
62.20
62.73
64.00
65.20
64.93
61.89
55.58
46.64
36.62
27.35
20.17
15.49
12.70
10.61
7.98
4.03
-1.41
-8.07
-15.53
-23.60
-32.21
-41.14
-49.74
-56.67
-60.32
-59.27
-53.06
-42.50
-29.41
-15.98
-3.88
6.18
14.50
21.86
28.98
36.08
42.73
48.11
51.40
52.17
50.56
47.29
43.38
39.83
37.22
35.61
34.55
33.41
31.70
29.26
26.23
22.84
19.19
15.17
10.53
5.02
-1.41
-8.59
-16.24
-24.18
-32.36
-40.79
-49.27
-57.15
-63.32
-66.41
-65.41
-59.94
-50.54
-38.37
-24.90
-11.42
1.16
12.33
21.95
30.06
36.74
42.07
46.07
48.69
49.86
49.60
48.10
45.70
42.81
39.77
36.81
34.05
31.60
29.55
27.90
26.51
24.96
22.71
19.35
14.70
8.98
2.56
-4.14
-10.91
-17.77
-24.91
-32.63
-41.06
-49.98
-58.70
-65.98
-70.43
-70.83
-66.71
-58.55
-47.63
-35.56
-23.70
-12.79
-2.90
6.21
14.70
22.48
29.16
34.32
37.74
39.51
39.99
39.62
38.77
37.61
36.18
34.49
32.68
31.03
29.83
29.15
28.73
27.89
25.91
22.25
16.94
10.57
3.99
-2.00
-7.02
-11.13
-14.74
-18.35
-22.42
-27.28
-33.22
-40.35
-48.45
-56.77
-64.04
-68.79
-69.79
-66.52
-59.39
-49.54
-38.40
-27.17
-16.49
-6.49
2.94
11.89
20.15
27.30
32.86
36.55
38.44
38.95
38.67
38.19
37.89
37.85
37.90
37.73
37.06
35.76
33.95
31.87
29.78
27.76
25.64
23.09
19.79
15.63
10.81
5.74
0.87
-3.51
-7.36
-10.85
-14.31
-18.16
-22.84
-28.76
-36.22
-45.11
-54.82
-64.09
-71.38
-75.25
-74.86
-70.32
-62.58
-53.10
-43.27
-34.03
-25.60
-17.69
-9.82
-1.66
6.79
15.11
22.61
28.55
32.34
33.73
32.87
30.32
26.92
23.58
21.01
19.54
19.18
19.71
20.92
22.75
25.26
28.47
32.21
36.01
39.28
41.44
42.17
41.47
39.52
36.57
32.81
28.31
23.10
17.26
10.96
4.32
-2.68
-10.15
-18.31
-27.20
-36.53
-45.62
-53.52
-59.24
-62.05
-61.65
-58.22
-52.26
-44.43
-35.42
-25.86
-16.46
-8.01
-1.35
2.87
4.44
3.80
1.99
0.44
0.64
3.63
9.74
18.44
28.44
38.03
45.64
50.21
51.51
50.12
47.10
43.54
40.19
37.27
34.59
31.77
28.58
25.11
21.58
18.27
15.26
12.40
9.40
6.07
2.39
-1.51
-5.52
-9.76
-14.61
-20.65
-28.28
-37.44
-47.45
-57.19
-65.36
-70.87
-73.10
-71.91
-67.61
-60.82
-52.39
-43.27
-34.44
-26.74
-20.72
-16.53
-13.92
-12.42
-11.52
-10.88
-10.35
-9.96
-9.81
-10.00
-10.67
-11.88
-13.69
-16.07
-18.98
-22.34
-26.13
-30.43
-35.34
-40.95
-47.08
-53.40
-59.47
-64.79
-68.94
-71.55
-72.55
-72.29
-71.67
-71.93
-73.99
-77.62
-81.00
-81.05
-74.80
-60.89
-40.69
-17.88
3.04
18.79
28.54
33.92
37.71
42.19
48.14
54.90
61.33
66.93
72.29
78.59
86.71
96.45
106.62
115.82
123.47
130.33
138.05
148.05
160.34
173.25
183.97
189.99
190.17
184.93
175.64
163.69
149.99
135.16
120.09
106.15
94.71
86.34
80.05
73.54
64.08
49.86
30.88
8.79
-14.09
-36.02
-56.50
-76.24
-96.24
-116.95
-137.67
-156.93
-173.34
-186.36
-196.60
-205.29
-213.37
-220.76
-226.42
-228.97
-227.64
-222.78
-215.63
-207.49
-198.80
-188.87
-176.14
-158.99
-136.58
-109.24
-78.42
-46.24
-14.96
13.47
37.72
57.33
72.59
84.46
93.95
101.72
107.79
111.59
112.58
110.64
106.42
101.12
96.06
92.02
89.15
87.04
85.21
83.46
81.88
80.69
79.87
78.95
77.15
73.73
68.36
61.26
53.10
44.64
36.39
28.44
20.54
12.39
3.96
-4.29
-11.48
-16.65
-19.20
-19.11
-16.97
-13.74
-10.33
-7.42
-5.39
-4.40
-4.55
-5.85
-8.07
-10.72
-13.07
-14.36
-14.11
-12.32
-9.42
-6.05
-2.70
0.41
3.41
6.41
9.44
12.20
14.24
15.18
14.83
13.39
11.21
8.64
5.94
3.26
0.72
-1.48
-3.07
-3.83
-3.83
-3.38
-2.98
-3.15
-4.16
-6.09
-8.86
-12.42
-16.84
-22.19
-28.36
-34.78
-40.41
-43.93
-44.13
-40.28
-32.43
-21.34
-8.28
5.25
17.94
28.90
37.75
44.63
49.92
54.05
57.21
59.37
60.32
59.98
58.51
56.29
53.72
50.86
47.37
42.72
36.56
29.05
20.97
13.46
7.50
3.49
1.15
-0.34
-1.89
-4.06
-6.87
-9.89
-12.54
-14.36
-15.29
-15.61
-15.79
-16.34
-17.67
-20.08
-23.84
-29.19
-36.28
-44.99
-54.77
-64.56
-72.97
-78.63
-80.71
-79.25
-75.22
-70.11
-65.43
-62.12
-60.32
-59.49
-58.76
-57.21
-54.05
-48.69
-40.71
-30.07
-17.34
-3.79
8.80
18.70
24.73
26.78
25.75
23.18
20.69
19.41
19.71
21.19
22.99
24.13
23.91
22.15
19.12
15.35
11.31
7.14
2.65
-2.43
-8.21
-14.43
-20.61
-26.33
-31.65
-37.09
-43.33
-50.69
-58.62
-65.79
-70.45
-71.15
-67.24
-59.08
-47.77
-34.68
-20.98
-7.50
5.22
16.70
26.51
34.29
39.94
43.79
46.41
48.29
49.54
49.64
47.61
42.59
34.43
24.17
13.89
6.10
2.80
4.74
11.17
20.22
29.68
37.67
43.11
45.67
45.47
42.77
37.84
31.10
23.25
15.18
7.80
1.61
-3.39
-7.79
-12.42
-17.96
-24.56
-31.70
-38.25
-42.84
-44.42
-42.55
-37.71
-31.08
-24.11
-17.89
-12.75
-8.21
-3.29
2.78
10.17
18.17
25.60
31.31
34.68
35.87
35.70
35.20
35.19
35.93
37.13
38.15
38.34
37.36
35.31
32.60
29.75
27.11
24.73
22.39
19.71
16.27
11.72
5.83
-1.53
-10.28
-20.04
-30.06
-39.35
-46.98
-52.36
-55.54
-57.14
-58.13
-59.46
-61.76
-65.08
-68.86
-72.18
-74.05
-73.76
-71.19
-66.71
-60.96
-54.44
-47.28
-39.31
-30.42
-21.01
-12.21
-5.57
-2.28
-2.53
-5.31
-8.80
-11.16
-11.17
-8.35
-2.73
5.74
17.35
32.29
50.04
68.92
86.36
99.69
107.24
108.97
106.30
101.32
95.80
90.48
84.99
78.28
69.30
57.77
44.44
30.97
19.28
10.60
4.89
0.72
-4.07
-11.32
-21.51
-33.55
-45.25
-54.42
-59.79
-61.36
-60.02
-56.89
-52.65
-47.48
-41.32
-34.24
-26.65
-19.24
-12.66
-7.25
-2.86
1.00
4.95
9.38
14.27
19.20
23.55
26.80
28.79
29.80
30.50
31.58
33.51
36.24
39.27
41.80
43.07
42.55
40.16
36.15
31.02
25.36
19.65
14.29
9.44
5.10
1.13
-2.65
-6.44
-10.38
-14.58
-19.19
-24.33
-30.09
-36.39
-42.81
-48.62
-52.83
-54.48
-52.97
-48.27
-41.04
-32.36
-23.42
-14.96
-7.13
0.49
8.43
16.75
24.75
31.25
35.08
35.72
33.72
30.45
27.57
26.36
27.35
30.21
33.88
36.91
37.78
35.39
29.61
21.67
14.01
9.55
10.45
16.90
26.71
35.99
40.84
39.06
31.17
20.04
9.45
2.31
-0.62
-1.12
-2.62
-8.80
-22.00
-42.02
-66.14
-89.61
-107.00
-113.51
-106.30
-85.54
-55.15
-22.34
4.04
16.56
12.33
-5.00
-26.11
-39.47
-36.58
-16.05
15.44
46.20
65.07
66.69
53.40
33.04
14.10
1.01
-7.62
-16.88
-31.20
-50.70
-70.39
-82.72
-81.95
-67.06
-42.02
-12.91
15.79
43.41
72.35
105.27
141.87
177.57
204.85
216.37
208.28
181.78
142.61
98.75
57.72
24.46
0.55
-15.29
-25.72
-33.29
-39.33
-43.90
-46.29
-46.01
-43.37
-39.52
-35.96
-33.80
-33.17
-33.24
-32.71
-30.59
-26.79
-22.19
-18.17
-15.88
-15.69
-17.12
-19.26
-21.26
-22.64
-23.39
-23.59
-23.08
-21.40
-18.02
-12.75
-6.20
0.47
6.13
10.39
14.08
18.88
26.47
37.42
50.54
63.05
71.57
73.60
68.41
57.42
43.40
29.29
17.08
7.49
0.34
-4.72
-7.61
-7.97
-5.64
-1.42
3.02
5.75
5.59
2.83
-0.92
-3.78
-4.63
-3.63
-2.03
-1.15
-1.63
-3.22
-5.15
-6.86
-8.29
-9.72
-11.28
-12.72
-13.56
-13.53
-13.02
-12.99
-14.44
-17.64
-21.92
-25.89
-28.27
-28.66
-27.84
-27.31
-28.48
-31.89
-36.99
-42.60
-47.45
-50.78
-52.36
-52.23
-50.34
-46.48
-40.48
-32.48
-23.17
-13.54
-4.64
2.78
8.37
12.17
14.46
15.63
16.15
16.41
16.69
17.01
17.21
17.07
16.60
16.11
16.14
17.15
19.20
21.86
24.33
25.89
26.13
25.13
23.23
20.72
17.71
14.12
9.86
5.04
-0.04
-5.00
-9.65
-14.05
-18.51
-23.44
-29.06
-35.29
-41.61
-47.10
-50.71
-51.55
-49.27
-44.29
-37.61
-30.48
-23.86
-18.19
-13.30
-8.75
-4.21
0.32
4.57
8.16
10.89
12.76
13.98
14.77
15.30
15.63
15.71
15.51
15.08
14.54
14.10
13.96
14.21
14.75
15.23
15.20
14.25
12.16
9.02
5.22
1.28
-2.34
-5.44
-8.15
-10.78
-13.76
-17.37
-21.65
-26.47
-31.48
-36.17
-39.94
-42.09
-42.03
-39.49
-34.72
-28.49
-21.85
-15.74
-10.62
-6.36
-2.46
1.55
5.79
9.91
13.36
15.61
16.52
16.32
15.50
14.57
13.90
13.73
14.12
15.00
16.23
17.59
18.82
19.71
20.08
19.84
18.91
17.22
14.69
11.28
7.14
2.61
-1.82
-5.70
-8.77
-11.12
-13.21
-15.67
-19.10
-23.77
-29.48
-35.48
-40.69
-44.04
-44.80
-42.82
-38.53
-32.74
-26.31
-19.83
-13.59
-7.61
-1.89
3.48
8.25
12.16
15.08
17.08
18.37
19.20
19.72
20.00
20.02
19.74
19.17
18.38
17.49
16.59
15.73
14.89
13.93
12.62
10.70
7.99
4.51
0.48
-3.66
-7.44
-10.49
-12.76
-14.50
-16.19
-18.43
-21.72
-26.31
-32.09
-38.61
-45.05
-50.39
-53.62
-54.02
-51.39
-46.13
-39.08
-31.23
-23.46
-16.32
-10.01
-4.52
0.24
4.35
7.93
11.09
13.95
16.55
18.86
20.77
22.18
23.02
23.33
23.17
22.63
21.72
20.54
19.20
17.84
16.53
15.22
13.68
11.61
8.76
5.08
0.74
-3.87
-8.33
-12.35
-15.87
-19.14
-22.69
-27.09
-32.79
-39.80
-47.55
-54.96
-60.67
-63.43
-62.52
-57.98
-50.56
-41.45
-31.82
-22.49
-13.81
-5.76
1.76
8.78
15.11
20.60
25.17
28.98
32.29
35.34
38.15
40.51
42.12
42.77
42.52
41.60
40.32
38.93
37.56
36.22
34.83
33.24
31.20
28.39
24.46
19.24
12.79
5.40
-2.46
-10.35
-17.92
-24.99
-31.54
-37.75
-44.01
-50.77
-58.39
-66.83
-75.33
-82.58
-87.03
-87.51
-83.67
-76.04
-65.83
-54.30
-42.43
-30.70
-19.25
-8.12
2.54
12.43
21.24
28.76
34.98
39.94
43.71
46.30
47.69
47.97
47.40
46.33
45.17
44.22
43.57
43.17
42.84
42.43
41.80
40.84
39.45
37.44
34.63
30.87
26.12
20.53
14.44
8.29
2.44
-3.00
-8.25
-13.82
-20.30
-28.07
-37.24
-47.48
-58.12
-68.26
-76.81
-82.66
-84.82
-82.69
-76.27
-66.18
-53.51
-39.53
-25.38
-11.90
0.28
10.75
19.31
25.95
31.03
35.14
39.03
43.32
48.37
54.09
60.05
65.59
70.07
73.07
74.53
74.69
73.85
72.23
69.73
66.24
61.68
56.24
50.19
43.79
37.06
29.84
21.97
13.58
5.23
-2.17
-7.49
-9.46
-6.80
1.52
15.98
36.04
59.84
84.42
106.36
122.85
132.62
136.48
137.04
137.56
140.40
145.55
150.47
151.23
144.80
130.83
112.14
93.43
79.13
71.64
70.81
74.77
81.18
88.10
93.85
96.49
93.52
82.29
61.05
30.06
-8.11
-49.45
-89.68
-125.42
-154.54
-176.09
-189.67
-195.01
-191.74
-179.43
-158.03
-128.11
-91.08
-49.22
-5.57
36.22
72.23
98.72
113.05
114.32
103.51
83.15
56.58
27.12
-2.33
-29.48
-52.68
-71.06
-84.48
-93.31
-97.84
-97.89
-92.78
-81.90
-65.45
-44.78
-21.98
1.14
23.93
46.86
70.43
93.74
113.93
127.03
130.12
123.14
109.40
94.24
82.81
78.18
80.74
88.80
99.49
109.56
115.86
115.99
108.95
95.77
79.27
62.54
47.10
31.67
12.89
-12.74
-46.55
-87.32
-131.98
-177.94
-225.10
-275.97
-333.35
-397.17
-462.88
-521.81
-564.58
-583.87
-576.93
-546.36
-499.08
-443.59
-387.67
-336.84
-293.88
-259.78
-231.96
-204.19
-168.16
-116.37
-45.45
41.04
131.94
211.16
262.21
276.65
258.07
220.35
181.21
154.98
147.37
154.90
175.71
201.31
221.82
232.77
236.87
239.60
244.50
251.71
260.26
269.30
276.64
279.98
276.76
265.31
244.86
216.93
185.51
156.23
133.75
119.14
111.13
107.53
105.94
103.74
101.91
99.34
94.44
85.52
70.50
48.26
18.71
-17.88
-60.73
-107.59
-153.91
-192.23
-214.58
-216.45
-199.56
-172.54
-148.45
-140.06
-155.21
-194.89
-253.53
-321.95
-390.44
-450.06
-493.09
-513.63
-508.29
-477.35
-425.50
-360.17
-288.99
-217.71
-149.49
-85.90
-28.46
20.59
58.25
81.62
89.21
81.63
61.64
33.99
4.51
-21.11
-38.86
-47.51
-48.78
-46.33
-44.09
-44.75
-49.12
-56.68
-66.32
-77.23
-88.97
-100.84
-111.47
-119.34
-123.45
-123.64
-120.96
-117.16
-113.88
-111.95
-111.07
-110.01
-107.22
-101.50
-92.45
-80.58
-66.75
-51.90
-36.62
-20.96
-4.50
13.36
32.96
54.39
77.40
102.33
129.40
158.51
189.07
220.07
250.63
280.19
309.67
340.68
376.22
417.35
461.66
503.19
534.18
548.32
542.56
519.89
487.11
454.79
431.56
421.41
423.58
433.94
447.46
457.92
460.64
450.71
427.46
392.47
350.20
308.13
274.48
255.89
252.91
262.88
256.21
211.62
122.92
3.24
-122.57
-233.38
-309.79
-359.37
-392.03
-414.05
-424.11
-418.86
-399.32
-368.58
-332.91
-299.25
-274.73
-264.32
-268.18
-279.97
-287.21
-283.09
-265.78
-240.07
-211.73
-187.47
-170.37
-160.20
-152.55
-141.82
-123.99
-96.72
-60.26
-15.88
32.61
80.51
121.52
149.16
158.14
146.54
118.61
84.03
55.93
44.35
52.78
76.66
106.15
130.78
143.63
143.84
129.80
104.45
72.53
38.94
7.10
-21.20
-44.71
-62.04
-72.04
-74.92
-72.03
-66.48
-61.91
-60.79
-63.37
-67.80
-71.29
-71.60
-68.12
-61.39
-53.25
-45.96
-41.14
-39.07
-38.70
-38.28
-36.34
-32.30
-26.24
-18.97
-11.56
-4.88
0.81
5.88
11.06
16.90
23.51
30.61
37.62
43.84
48.60
51.54
52.61
52.03
50.05
46.92
42.64
37.40
31.35
24.69
17.68
10.72
4.24
-1.34
-5.77
-9.31
-12.20
-14.96
-18.18
-22.42
-27.87
-34.37
-41.46
-46.91
-51.08
-54.20
-56.65
-58.94
-61.45
-64.16
-66.59
-67.94
-67.52
-65.44
-62.12
-58.62
-56.18
-55.73
-57.36
-60.23
-62.97
-64.31
-63.89
-61.98
-59.63
-58.08
-58.39
-61.33
-67.32
-76.21
-86.54
-95.34
-98.10
-90.54
-70.72
-40.65
-6.06
25.64
48.11
59.25
60.52
55.87
49.18
42.61
36.32
29.52
21.83
13.91
7.10
2.27
-0.67
-2.93
-6.05
-11.31
-18.90
-27.92
-36.92
-44.46
-49.78
-52.90
-54.53
-55.49
-56.29
-56.78
-56.25
-53.76
-48.54
-40.57
-30.16
-18.12
-5.50
6.82
18.28
28.64
37.87
45.95
52.73
58.00
61.50
63.12
62.95
61.25
58.40
54.80
50.80
46.69
42.81
39.52
37.20
36.08
36.17
37.09
38.13
38.45
37.36
34.67
30.67
26.09
21.72
18.10
15.29
12.86
10.24
7.10
3.72
0.98
0.08
2.07
7.35
15.46
25.20
35.31
44.87
53.80
62.71
72.48
83.98
98.02
115.48
137.01
162.04
187.69
208.46
217.41
208.72
180.47
135.90
82.36
28.61
-18.00
-53.13
-75.14
-83.58
-79.07
-63.45
-40.31
-14.90
6.77
19.88
22.51
16.13
4.51
-8.29
-19.20
-26.94
-31.76
-34.86
-37.92
-42.53
-50.08
-61.21
-75.63
-92.05
-108.57
-123.50
-136.33
-148.17
-160.77
-174.57
-186.75
-190.76
-178.61
-144.96
-90.95
-25.50
37.28
83.39
103.77
96.47
65.09
15.50
-46.80
-116.78
-188.40
-253.43
-302.27
-327.51
-327.35
-306.89
-275.96
-244.76
-219.85
-202.32
-188.74
-173.64
-152.68
-124.17
-88.97
-49.52
-8.56
31.95
71.19
109.28
147.61
187.82
231.66
280.17
332.70
385.65
432.66
465.84
478.13
466.77
433.89
386.18
332.56
281.20
237.00
201.83
175.50
153.80
134.95
118.47
104.78
94.32
86.73
80.08
72.48
62.73
50.71
38.26
27.01
17.66
9.64
2.01
-9.21
-27.71
-55.41
-92.12
-134.73
-179.40
-223.06
-264.54
-300.77
-331.84
-358.39
-380.30
-402.02
-421.69
-435.33
-439.02
-429.70
-405.73
-367.94
-319.21
-265.28
-211.98
-168.12
-142.22
-137.97
-151.79
-173.82
-192.76
-200.01
-193.16
-175.79
-153.96
-132.63
-113.56
-95.13
-75.06
-53.48
-33.17
-18.28
-11.85
-13.72
-20.55
-27.38
-29.79
-25.96
-17.68
-8.82
-3.38
-3.48
-8.11
-13.42
-14.34
-6.34
13.26
44.87
86.93
135.75
185.21
226.87
251.56
252.43
228.38
185.75
136.73
95.09
70.72
66.32
77.48
96.13
114.90
130.09
141.66
151.31
160.12
167.52
171.97
172.53
169.91
166.39
164.82
167.16
173.55
182.67
192.64
202.47
212.90
225.89
243.38
265.52
289.68
310.78
323.07
322.28
307.35
280.58
246.57
210.41
176.14
146.13
121.32
101.84
87.44
77.60
71.42
67.59
64.60
61.14
56.41
50.24
43.06
35.56
28.31
21.60
15.39
9.53
3.89
-1.40
-6.01
-9.68
-12.44
-14.78
-17.40
-20.78
-24.81
-28.79
-31.84
-33.36
-33.45
-32.83
-32.50
-33.22
-35.32
-38.68
-42.85
-47.27
-51.29
-54.24
-55.49
-54.61
-51.71
-47.65
-44.06
-42.80
-45.43
-52.58
-63.74
-77.34
-91.24
-103.33
-112.06
-116.71
-117.46
-115.17
-111.12
-106.63
-102.67
-99.59
-97.17
-94.84
-92.02
-88.60
-84.89
-81.39
-78.43
-75.90
-73.37
-70.36
-66.62
-62.24
-57.51
-52.75
-48.12
-43.72
-39.66
-36.09
-33.11
-30.65
-28.49
-26.44
-24.46
-22.76
-21.61
-21.08
-20.94
-20.74
-20.05
-18.56
-16.02
-12.16
-6.71
0.26
7.97
15.06
20.07
22.38
22.79
23.45
27.04
35.56
49.34
66.88
85.23
100.99
111.37
114.95
112.07
104.74
96.02
88.94
85.43
85.53
87.51
88.83
87.49
83.10
77.00
71.50
68.43
68.02
68.46
66.23
57.26
38.25
8.03
-31.54
-75.26
-115.11
-141.85
-147.94
-130.56
-93.47
-46.34
-1.61
30.10
43.85
41.70
30.90
19.94
14.66
15.90
20.05
21.56
15.77
1.17
-20.52
-45.58
-70.25
-91.93
-109.09
-120.41
-124.12
-118.44
-103.23
-81.60
-60.18
-46.94
-47.24
-60.58
-79.89
-94.77
-96.49
-82.38
-56.81
-28.61
-6.27
6.80
12.55
17.41
28.25
48.73
77.16
108.31
136.28
157.27
170.12
175.46
175.24
169.89
159.32
144.29
127.05
110.89
98.58
90.36
83.10
71.51
50.48
19.34
-18.01
-54.08
-81.42
-96.58
-101.96
-104.31
-110.74
-124.98
-145.59
-167.46
-184.97
-195.10
-198.62
-199.19
-201.55
-209.42
-224.65
-246.76
-273.13
-299.25
-319.39
-327.90
-320.91
-297.20
-258.67
-209.76
-155.94
-102.52
-53.64
-11.92
21.75
47.87
68.28
85.81
103.61
124.40
149.58
178.89
210.55
241.72
268.95
289.01
299.50
299.56
290.27
274.70
257.35
243.09
235.62
236.05
242.12
248.70
249.42
238.95
214.73
177.70
131.28
79.44
25.01
-31.25
-90.61
-155.37
-227.08
-305.01
-385.03
-459.84
-520.52
-559.18
-571.59
-558.72
-526.20
-481.89
-432.86
-383.26
-334.17
-285.11
-236.00
-188.33
-144.68
-107.32
-76.95
-52.55
-32.18
-14.35
1.42
14.63
24.29
29.73
30.97
28.83
24.87
21.19
20.11
23.74
33.30
48.60
67.81
87.90
105.57
118.35
125.46
127.96
128.26
129.12
132.56
139.34
148.89
159.95
171.50
183.21
195.40
208.43
221.74
233.27
239.58
236.89
222.49
196.01
159.80
118.12
75.80
36.74
3.20
-24.12
-45.24
-60.13
-68.31
-69.16
-62.61
-49.68
-32.51
-13.73
4.39
20.67
35.29
49.40
64.43
81.03
98.49
114.61
126.41
131.29
127.82
116.14
97.73
75.08
51.57
31.47
19.67
20.58
36.45
65.89
103.58
141.65
172.31
190.29
194.04
185.03
166.28
140.86
111.48
80.87
51.99
27.59
8.93
-5.28
-19.27
-39.13
-70.63
-116.67
-175.32
-239.39
-298.08
-340.01
-356.77
-345.58
-309.73
-256.67
-195.00
-131.64
-70.79
-14.61
35.29
76.95
108.57
129.81
142.75
151.49
160.45
172.33
186.88
201.22
210.98
212.03
201.94
180.91
151.64
118.55
86.21
58.13
36.12
20.60
11.80
10.32
16.89
31.00
49.85
68.38
80.89
83.74
77.14
64.95
52.51
43.81
39.81
38.74
37.93
35.57
31.43
26.13
19.81
11.26
-1.87
-21.69
-48.46
-79.54
-109.76
-133.05
-144.64
-142.91
-129.90
-110.13
-88.29
-67.38
-47.66
-27.90
-7.18
13.21
29.65
37.73
34.63
20.82
-0.13
-23.30
-44.78
-63.00
-78.34
-91.54
-102.12
-108.05
-106.72
-96.65
-78.63
-55.66
-31.57
-9.31
10.22
28.29
47.27
69.01
93.47
118.28
139.36
152.48
154.82
145.99
127.85
103.35
74.88
43.26
7.96
-31.51
-74.06
-116.39
-153.90
-182.60
-201.01
-210.80
-215.82
-220.35
-227.45
-238.20
-251.84
-266.40
-279.38
-288.27
-290.75
-285.16
-270.96
-249.10
-221.96
-192.85
-165.02
-141.26
-123.54
-112.76
-108.66
-109.69
-113.24
-116.19
-115.77
-109.93
-98.09
-81.03
-60.19
-36.76
-11.18
17.14
49.75
88.84
137.17
196.04
263.66
334.27
398.70
446.88
471.30
469.84
446.40
410.09
370.80
335.78
308.07
287.07
270.66
257.23
246.48
232.55
211.30
180.02
138.84
91.23
42.63
-1.54
-37.30
-62.95
-78.94
-86.39
-87.49
-84.60
-79.66
-73.97
-68.10
-62.17
-56.26
-50.73
-45.39
-40.36
-35.54
-30.53
-24.96
-18.74
-12.36
-6.93
-4.02
-4.72
-9.31
-17.88
-29.56
-43.38
-58.57
-75.01
-93.16
-113.63
-135.19
-157.57
-180.70
-204.15
-226.46
-244.53
-253.66
-249.10
-228.26
-192.72
-148.62
-104.61
-68.43
-44.08
-30.91
-24.98
-21.67
-18.01
-13.65
-9.32
-5.72
-2.58
1.15
6.29
12.55
18.55
22.42
22.59
18.60
11.29
2.33
-6.36
-13.59
-19.21
-23.98
-29.11
-35.63
-43.86
-53.40
-63.38
-72.69
-80.71
-87.44
-93.36
-99.20
-105.48
-112.29
-119.37
-126.21
-132.14
-136.79
-140.16
-142.45
-143.89
-144.42
-143.57
-140.46
-135.59
-129.03
-121.03
-112.01
-102.44
-92.69
-82.86
-72.75
-62.04
-50.53
-38.03
-24.79
-11.34
1.70
13.98
25.58
37.02
49.02
62.16
76.78
92.59
108.98
125.18
140.76
155.73
170.56
185.99
202.91
222.32
245.03
271.14
299.47
327.24
350.39
364.63
367.00
357.01
336.91
310.73
282.66
255.73
231.26
209.26
189.33
171.40
155.73
142.67
132.06
123.16
114.96
106.72
98.39
90.57
84.24
80.24
78.81
79.45
81.11
82.58
83.04
82.43
81.54
81.76
84.47
90.41
99.31
109.89
120.28
128.71
134.03
135.94
134.81
131.26
125.74
118.33
108.79
96.67
81.47
62.74
40.16
13.83
-15.47
-46.12
-75.71
-101.56
-121.44
-134.28
-140.61
-142.30
-141.83
-141.43
-142.44
-145.13
-149.05
-153.42
-157.64
-161.30
-164.20
-166.12
-166.87
-166.36
-164.73
-162.33
-159.48
-156.34
-152.77
-148.43
-142.88
-135.89
-127.61
-118.60
-109.77
-101.97
-95.74
-90.98
-86.84
-81.97
-75.21
-66.37
-56.44
-47.33
-40.73
-37.67
-37.90
-40.02
-42.00
-42.08
-39.80
-36.11
-32.99
-32.01
-34.26
-39.29
-44.96
-47.63
-43.32
-29.54
-5.52
27.91
69.63
116.82
164.82
206.85
235.68
245.38
232.96
200.10
153.02
101.54
54.39
16.85
-10.05
-27.64
-33.69
-26.17
-3.95
24.25
52.34
75.60
93.73
105.86
111.80
111.99
106.57
95.79
80.10
61.53
41.94
22.84
4.97
-11.15
-25.33
-38.34
-51.29
-65.31
-80.31
-96.21
-112.95
-130.81
-149.90
-170.34
-192.82
-218.58
-249.12
-284.92
-325.23
-367.26
-406.33
-436.56
-452.90
-453.28
-439.45
-416.39
-390.19
-366.43
-348.77
-338.61
-335.13
-336.00
-337.87
-336.80
-328.93
-311.33
-283.03
-245.45
-201.89
-156.34
-112.21
-71.46
-34.48
-0.54
31.56
62.86
93.72
123.58
151.00
174.03
191.04
201.36
205.64
205.57
203.17
199.89
196.17
191.52
185.01
175.91
164.01
149.65
133.71
117.58
103.16
92.72
88.24
90.55
98.76
110.56
123.06
133.98
142.40
148.67
153.64
157.85
161.40
164.37
167.37
171.61
177.97
185.85
192.66
194.60
188.53
173.90
153.42
131.90
114.02
102.13
95.53
91.18
85.64
76.71
64.17
49.28
33.83
19.37
6.93
-2.88
-9.70
-13.47
-14.57
-13.91
-12.63
-11.79
-12.11
-13.95
-17.36
-22.07
-27.38
-32.10
-34.84
-34.53
-31.22
-26.12
-21.16
-17.98
-17.04
-17.29
-16.72
-13.39
-6.28
4.33
17.16
30.58
43.15
53.94
62.53
69.00
73.85
77.89
82.01
86.92
92.69
98.75
104.02
107.32
107.85
105.30
99.91
92.23
82.98
72.91
62.87
53.69
46.02
40.12
35.65
31.80
27.60
22.36
15.97
8.94
2.03
-4.08
-9.09
-13.02
-16.13
-18.62
-20.61
-22.18
-23.51
-24.95
-26.90
-29.60
-32.99
-36.67
-40.06
-42.69
-44.45
-45.59
-46.65
-48.16
-50.39
-53.21
-56.05
-58.09
-58.51
-56.73
-52.66
-46.71
-39.64
-32.29
-25.36
-19.14
-13.58
-8.32
-2.86
3.19
9.93
17.01
23.74
29.31
33.05
34.76
34.71
33.46
31.55
29.25
26.58
23.44
19.82
15.81
11.53
6.96
1.88
-4.06
-11.06
-18.88
-26.74
-33.47
-37.85
-39.01
-36.76
-31.77
-25.37
-19.18
-14.75
-13.09
-14.64
-19.21
-26.13
-34.47
-43.03
-50.59
-55.90
-58.00
-56.39
-51.12
-42.79
-32.35
-20.90
-9.54
0.81
9.56
16.63
22.55
28.39
35.44
44.68
56.36
69.75
83.29
95.09
103.53
107.71
107.68
104.28
98.78
92.44
86.23
80.51
75.10
69.44
62.90
55.14
46.26
36.80
27.42
18.65
10.77
3.80
-2.39
-8.00
-13.19
-18.14
-22.90
-27.38
-31.16
-33.58
-33.89
-31.65
-26.94
-20.45
-13.27
-6.46
-0.71
3.80
7.30
10.20
12.76
14.97
16.58
17.26
16.81
15.36
13.35
11.42
10.26
10.46
12.31
15.77
20.40
25.38
29.64
32.10
31.86
28.44
21.90
12.80
2.04
-9.32
-20.28
-30.15
-38.61
-45.85
-52.37
-58.83
-65.78
-73.54
-82.14
-91.46
-101.15
-110.64
-119.06
-125.36
-128.56
-128.18
-124.49
-118.52
-111.61
-104.95
-99.01
-93.64
-88.32
-82.67
-76.76
-71.00
-65.75
-60.86
-55.51
-48.45
-38.59
-25.51
-9.64
8.03
26.45
44.87
62.66
78.90
91.95
99.47
99.16
89.80
72.12
48.76
23.62
0.55
-17.63
-29.56
-35.05
-34.68
-29.46
-20.91
-11.00
-1.96
4.41
7.49
8.19
8.50
10.61
15.85
24.15
34.39
45.03
54.96
63.83
71.87
79.48
86.82
93.69
99.68
104.37
107.50
108.95
108.72
106.83
103.24
97.81
90.26
80.26
67.53
52.17
34.85
16.85
-0.30
-15.32
-27.64
-37.54
-45.79
-53.07
-59.46
-64.41
-67.05
-66.85
-64.08
-59.84
-55.73
-53.14
-52.78
-54.46
-57.34
-60.28
-62.23
-62.39
-60.21
-55.36
-47.74
-37.49
-25.06
-11.22
2.94
16.15
27.16
34.92
38.76
38.46
34.23
26.73
16.97
6.23
-4.06
-12.59
-18.45
-21.29
-21.38
-19.46
-16.44
-13.08
-9.81
-6.81
-4.11
-1.79
-0.01
1.15
1.70
1.85
1.80
1.62
1.08
-0.18
-2.44
-5.67
-9.53
-13.45
-16.93
-19.76
-22.05
-24.07
-25.98
-27.59
-28.42
-27.88
-25.66
-21.98
-17.50
-13.16
-9.75
-7.65
-6.79
-6.81
-7.28
-7.97
-8.77
-9.62
-10.33
-10.59
-10.12
-8.83
-6.99
-5.11
-3.74
-3.19
-3.36
-3.85
-4.22
-4.28
-4.24
-4.59
-5.77
-7.91
-10.70
-13.59
-16.09
-18.03
-19.60
-21.23
-23.24
-25.70
-28.42
-31.14
-33.66
-35.91
-37.77
-38.90
-38.72
-36.61
-32.26
-25.95
-18.62
-11.55
-5.92
-2.42
-0.98
-0.94
-1.37
-1.52
-1.06
-0.18
0.63
0.97
0.73
0.23
0.07
0.80
2.70
5.65
9.30
13.30
17.37
21.32
24.91
27.75
29.29
29.07
26.94
23.19
18.52
13.75
9.59
6.35
3.95
2.00
0.05
-2.30
-5.25
-8.73
-12.39
-15.65
-17.80
-18.18
-16.47
-12.76
-7.64
-1.99
3.34
7.76
11.10
13.52
15.23
16.33
16.64
15.86
13.88
10.95
7.72
5.03
3.56
3.47
4.42
5.73
6.75
7.11
6.81
6.05
5.02
3.77
2.22
0.46
-1.21
-2.29
-2.38
-1.36
0.39
2.14
3.14
2.81
0.96
-2.27
-6.58
-11.50
-16.42
-20.51
-22.88
-22.76
-19.92
-14.73
-8.13
-1.29
4.77
9.52
12.88
15.15
16.72
17.80
18.49
18.72
18.40
17.52
16.13
14.37
12.44
10.56
8.87
7.45
6.31
5.40
4.71
4.19
3.78
3.29
2.44
0.93
-1.44
-4.57
-8.05
-11.24
-13.52
-14.50
-14.28
-13.35
-12.47
-12.41
-13.66
-16.24
-19.65
-22.96
-25.05
-25.08
-22.77
-18.60
-13.63
-9.16
-6.17
-5.00
-5.32
-6.32
-7.25
-7.66
-7.57
-7.44
-7.85
-9.36
-12.36
-16.96
-22.86
-29.19
-34.54
-37.24
-35.94
-30.23
-20.94
-9.97
0.43
8.50
13.55
16.01
16.94
17.35
17.77
18.16
18.17
17.44
15.73
12.95
9.02
3.87
-2.41
-9.38
-16.19
-21.70
-24.80
-24.80
-21.69
-16.21
-9.59
-3.14
2.07
5.47
6.96
6.77
5.28
2.90
0.15
-2.36
-3.96
-4.05
-2.40
0.76
4.76
8.80
12.27
14.92
16.89
18.49
20.04
21.87
24.41
28.13
33.47
40.38
48.18
55.44
60.57
62.33
60.35
55.15
47.72
38.99
29.44
19.14
8.05
-3.58
-15.01
-25.22
-33.26
-38.63
-41.51
-42.58
-42.67
-42.39
-41.82
-40.55
-37.97
-33.69
-27.88
-21.27
-14.86
-9.50
-5.65
-3.25
-1.94
-1.30
-0.87
-0.35
0.50
1.77
3.40
5.19
6.90
8.31
9.32
9.82
9.70
8.74
6.80
3.97
0.62
-2.64
-5.24
-6.91
-7.70
-7.94
-8.01
-8.30
-9.13
-10.82
-13.57
-17.30
-21.47
-25.12
-27.15
-26.72
-23.60
-18.29
-11.74
-4.96
1.33
6.90
11.88
16.54
21.11
25.63
29.96
33.93
37.42
40.43
43.03
45.33
47.36
49.06
50.32
50.98
50.99
50.43
49.46
48.23
46.85
45.35
43.68
41.80
39.70
37.42
34.93
32.16
28.96
25.19
20.76
15.77
10.43
5.03
-0.18
-5.05
-9.55
-13.74
-17.76
-21.73
-25.65
-29.38
-32.57
-34.74
-35.44
-34.41
-31.80
-28.06
-23.89
-19.95
-16.60
-13.90
-11.68
-9.74
-8.01
-6.62
-5.79
-5.72
-6.42
-7.67
-9.11
-10.36
-11.20
-11.57
-11.63
-11.66
-11.91
-12.58
-13.69
-15.18
-16.90
-18.73
-20.61
-22.56
-24.72
-27.24
-30.23
-33.59
-37.09
-40.24
-42.46
-43.20
-42.04
-38.90
-34.02
-27.96
-21.47
-15.31
-10.02
-5.82
-2.51
0.34
3.25
6.58
10.40
14.52
18.58
22.14
24.86
26.51
27.03
26.58
25.40
23.82
22.12
20.45
18.88
17.42
16.07
14.92
14.09
13.62
13.53
13.70
14.12
14.81
15.90
17.48
19.52
21.80
23.90
25.33
25.70
24.84
22.85
20.07
17.01
14.17
11.87
10.23
9.10
8.22
7.26
5.95
4.16
1.92
-0.50
-2.71
-4.19
-4.52
-3.53
-1.41
1.29
3.92
5.90
6.98
7.27
7.13
6.97
7.01
7.26
7.52
7.61
7.48
7.16
6.79
6.42
6.02
5.46
4.68
3.67
2.53
1.41
0.39
-0.57
-1.59
-2.81
-4.38
-6.36
-8.74
-11.41
-14.15
-16.70
-18.87
-20.59
-22.05
-23.53
-25.35
-27.63
-30.36
-33.39
-36.50
-39.49
-42.06
-43.85
-44.44
-43.60
-41.30
-37.87
-33.83
-29.66
-25.65
-21.80
-17.96
-14.08
-10.27
-6.83
-4.06
-2.11
-0.87
-0.03
0.81
2.00
3.71
5.93
8.47
11.06
13.42
15.33
16.66
17.42
17.67
17.50
17.01
16.22
15.07
13.45
11.25
8.39
4.92
1.02
-3.01
-6.79
-9.96
-12.25
-13.54
-13.92
-13.68
-13.17
-12.65
-12.17
-11.54
-10.42
-8.61
-6.16
-3.42
-0.89
1.07
2.37
3.19
3.86
4.63
5.56
6.50
7.20
7.41
6.99
5.92
4.34
2.51
0.74
-0.70
-1.73
-2.51
-3.34
-4.60
-6.48
-8.88
-11.36
-13.25
-13.96
-13.17
-10.99
-7.91
-4.67
-1.90
-0.08
0.61
0.16
-1.32
-3.70
-6.75
-10.13
-13.40
-16.07
-17.68
-17.81
-16.18
-12.65
-7.39
-0.91
5.92
12.08
16.72
19.51
20.77
21.32
22.13
23.83
26.54
29.87
33.13
35.66
37.03
37.09
36.04
34.23
32.20
30.47
29.43
29.22
29.68
30.44
31.04
31.11
30.49
29.16
27.13
24.44
21.11
17.33
13.51
10.21
7.98
7.00
6.95
7.03
6.26
3.84
-0.54
-6.68
-14.02
-21.81
-29.29
-35.72
-40.44
-42.93
-42.97
-40.68
-36.57
-31.38
-25.85
-20.50
-15.59
-11.11
-6.90
-2.84
1.15
4.94
8.33
11.06
12.86
13.61
13.30
12.03
10.00
7.46
4.67
1.91
-0.56
-2.53
-3.89
-4.71
-5.26
-5.93
-7.15
-9.21
-12.18
-15.89
-19.97
-24.07
-27.98
-31.67
-35.34
-39.23
-43.50
-48.26
-53.46
-59.05
-64.90
-70.77
-76.38
-81.45
-85.80
-89.30
-91.62
-91.98
-89.21
-82.10
-70.02
-53.48
-34.18
-14.53
3.24
17.89
29.50
39.02
47.58
55.77
63.35
69.47
73.28
74.45
73.35
70.96
68.48
66.91
66.71
67.76
69.45
70.72
70.25
66.59
58.69
46.39
30.78
14.13
-0.83
-11.90
-18.13
-20.08
-19.22
-17.11
-14.73
-12.27
-9.45
-5.95
-1.68
3.30
8.91
15.00
21.16
26.54
30.03
30.89
29.18
26.03
23.14
21.91
22.79
25.00
27.17
28.21
28.02
27.48
27.75
29.30
31.47
32.67
31.47
27.49
21.88
16.71
13.91
14.18
16.54
18.90
19.11
16.06
10.18
3.05
-3.44
-8.06
-10.70
-12.22
-13.86
-16.57
-20.59
-25.50
-30.54
-35.07
-38.73
-41.39
-42.93
-43.07
-41.41
-37.67
-32.02
-25.11
-17.98
-11.60
-6.63
-3.21
-1.12
0.00
0.41
0.18
-0.73
-2.35
-4.57
-7.09
-9.47
-11.30
-12.20
-12.01
-10.78
-8.68
-5.87
-2.40
1.84
6.97
13.01
19.68
26.41
32.48
37.25
40.29
41.44
40.73
38.22
33.97
28.06
20.61
11.87
2.21
-7.80
-17.34
-25.45
-31.14
-33.73
-33.07
-29.71
-24.75
-19.43
-14.76
-11.21
-8.78
-7.12
-5.99
-5.26
-5.07
-5.55
-6.77
-8.58
-10.65
-12.50
-13.59
-13.36
-11.28
-7.08
-0.77
7.18
15.95
24.53
31.94
37.51
40.92
42.18
41.46
39.00
35.03
29.89
24.05
18.11
12.67
8.07
4.33
1.06
-2.28
-6.18
-10.77
-15.77
-20.60
-24.56
-27.09
-27.87
-26.83
-24.07
-19.74
-14.10
-7.55
-0.63
5.95
11.51
15.54
17.74
18.10
16.76
13.94
9.98
5.34
0.59
-3.64
-6.84
-8.74
-9.39
-9.06
-8.05
-6.62
-4.91
-2.99
-0.99
0.85
2.23
2.86
2.60
1.51
-0.14
-1.98
-3.65
-4.93
-5.82
-6.51
-7.31
-8.52
-10.33
-12.85
-16.07
-19.91
-24.15
-28.34
-31.76
-33.54
-32.97
-29.85
-24.62
-18.26
-11.92
-6.45
-2.17
1.07
3.66
5.86
7.65
8.85
9.31
9.14
8.72
8.48
8.73
9.48
10.48
11.42
12.05
12.29
12.22
11.97
11.65
11.33
11.00
10.62
10.09
9.23
7.78
5.56
2.52
-1.17
-5.10
-8.83
-11.96
-14.34
-16.00
-17.10
-17.88
-18.60
-19.53
-20.89
-22.82
-25.18
-27.47
-28.87
-28.53
-25.94
-21.21
-15.05
-8.50
-2.51
2.36
6.06
8.86
11.05
12.81
14.13
14.96
15.29
15.17
14.67
13.83
12.70
11.33
9.83
8.32
6.91
5.64
4.45
3.29
2.12
0.93
-0.32
-1.67
-3.23
-5.05
-7.12
-9.32
-11.44
-13.35
-15.05
-16.71
-18.60
-20.94
-23.79
-27.03
-30.37
-33.45
-35.88
-37.21
-36.89
-34.37
-29.24
-21.55
-11.96
-1.65
8.09
16.34
22.89
28.22
33.08
38.01
42.99
47.50
50.79
52.30
51.84
49.68
46.25
42.06
37.51
32.88
28.31
23.90
19.69
15.70
11.99
8.61
5.60
2.90
0.32
-2.41
-5.48
-8.85
-12.22
-15.15
-17.23
-18.31
-18.57
-18.42
-18.30
-18.58
-19.41
-20.81
-22.73
-25.06
-27.55
-29.78
-31.13
-30.94
-28.73
-24.47
-18.58
-11.91
-5.42
0.09
4.21
6.97
8.69
9.82
10.68
11.42
11.98
12.31
12.44
12.59
13.02
13.99
15.52
17.42
19.32
20.76
21.44
21.15
19.96
18.10
15.90
13.66
11.57
9.61
7.61
5.36
2.78
-0.01
-2.75
-5.16
-7.16
-8.86
-10.46
-12.17
-13.98
-15.80
-17.58
-19.42
-21.58
-24.21
-27.10
-29.52
-30.46
-29.03
-24.87
-18.42
-10.74
-3.10
3.51
8.68
12.58
15.65
18.29
20.58
22.23
22.80
21.95
19.72
16.54
13.14
10.28
8.44
7.67
7.70
8.13
8.67
9.22
9.83
10.55
11.21
11.52
11.12
9.82
7.66
4.91
1.90
-1.09
-3.88
-6.43
-8.73
-10.75
-12.46
-13.89
-15.16
-16.53
-18.35
-20.88
-24.18
-28.00
-31.70
-34.38
-35.13
-33.29
-28.77
-22.10
-14.35
-6.70
-0.09
5.08
8.89
11.82
14.33
16.64
18.70
20.26
21.03
20.91
19.98
18.50
16.76
15.03
13.43
11.95
10.53
9.11
7.72
6.52
5.68
5.31
5.33
5.52
5.52
5.03
3.95
2.37
0.56
-1.22
-2.77
-4.08
-5.25
-6.45
-7.87
-9.70
-12.11
-15.25
-19.11
-23.38
-27.36
-30.05
-30.49
-28.15
-23.18
-16.42
-9.07
-2.30
3.20
7.29
10.24
12.50
14.39
15.95
17.03
17.40
16.95
15.78
14.22
12.77
11.82
11.55
11.73
11.86
11.35
9.80
7.21
3.96
0.54
-2.68
-5.62
-8.45
-11.35
-14.37
-17.28
-19.68
-21.23
-21.77
-21.49
-20.74
-20.00
-19.68
-20.11
-21.44
-23.75
-26.92
-30.64
-34.29
-37.02
-37.94
-36.40
-32.23
-25.94
-18.52
-11.14
-4.79
0.12
3.71
6.51
9.07
11.72
14.38
16.72
18.36
19.08
18.98
18.40
17.75
17.32
17.13
17.02
16.76
16.22
15.47
14.67
14.03
13.60
13.31
12.90
12.11
10.68
8.54
5.73
2.47
-0.97
-4.31
-7.37
-10.14
-12.74
-15.37
-18.16
-21.15
-24.40
-28.03
-32.22
-37.03
-42.16
-46.87
-50.07
-50.76
-48.36
-43.10
-35.86
-27.88
-20.29
-13.71
-8.25
-3.61
0.61
4.64
8.47
11.84
14.45
16.11
16.84
16.87
16.61
16.49
16.81
17.66
18.92
20.33
21.60
22.46
22.78
22.54
21.82
20.73
19.38
17.77
15.85
13.50
10.67
7.40
3.81
0.12
-3.49
-6.92
-10.19
-13.39
-16.68
-20.27
-24.42
-29.35
-35.11
-41.33
-47.13
-51.37
-52.93
-51.17
-46.21
-38.78
-30.02
-20.97
-12.38
-4.61
2.30
8.35
13.53
17.74
20.85
22.77
23.57
23.51
23.05
22.74
22.96
23.83
25.06
26.16
26.68
26.45
25.66
24.71
23.95
23.52
23.19
22.49
20.97
18.38
14.81
10.63
6.33
2.30
-1.35
-4.74
-8.20
-12.02
-16.38
-21.36
-26.95
-33.09
-39.54
-45.80
-50.95
-53.90
-53.66
-49.79
-42.60
-33.05
-22.44
-11.95
-2.35
6.09
13.39
19.64
24.83
28.89
31.72
33.36
34.04
34.07
33.81
33.55
33.44
33.49
33.60
33.61
33.37
32.81
31.98
31.00
29.94
28.75
27.19
24.91
21.59
17.14
11.75
5.89
0.09
-5.20
-9.81
-13.84
-17.64
-21.70
-26.51
-32.45
-39.55
-47.34
-54.75
-60.35
-62.68
-60.78
-54.54
-44.78
-32.93
-20.57
-8.91
1.45
10.47
18.38
25.36
31.36
36.16
39.57
41.56
42.38
42.46
42.26
42.07
41.96
41.79
41.33
40.41
39.03
37.35
35.62
34.05
32.70
31.33
29.56
26.98
23.32
18.66
13.34
7.89
2.76
-1.86
-6.05
-10.13
-14.50
-19.59
-25.71
-32.99
-41.19
-49.53
-56.80
-61.50
-62.38
-58.84
-51.23
-40.70
-28.79
-16.93
-5.99
3.77
12.48
20.39
27.52
33.67
38.48
41.72
43.41
43.91
43.79
43.58
43.61
43.83
43.94
43.57
42.49
40.82
38.86
37.00
35.43
34.03
32.38
29.98
26.43
21.69
16.06
10.08
4.31
-0.88
-5.39
-9.43
-13.39
-17.76
-22.96
-29.22
-36.40
-43.93
-50.78
-55.64
-57.29
-54.99
-48.76
-39.44
-28.35
-16.88
-6.06
3.61
12.06
19.43
25.86
31.32
35.69
38.91
41.01
42.20
42.71
42.78
42.51
41.93
41.01
39.76
38.29
36.76
35.35
34.16
33.13
32.00
30.41
28.00
24.60
20.28
15.41
10.49
6.06
2.33
-0.80
-3.80
-7.26
-11.68
-17.28
-23.91
-31.02
-37.76
-43.11
-46.05
-45.82
-42.19
-35.55
-26.83
-17.21
-7.74
0.89
8.41
14.84
20.28
24.75
28.16
30.49
31.76
32.17
31.97
31.43
30.76
30.07
29.35
28.59
27.78
26.98
26.36
26.01
25.91
25.77
25.14
23.51
20.64
16.67
12.08
7.51
3.43
-0.02
-3.09
-6.19
-9.71
-13.84
-18.58
-23.74
-29.01
-33.97
-38.05
-40.60
-40.93
-38.62
-33.67
-26.58
-18.26
-9.77
-2.06
4.33
9.27
12.94
15.65
17.61
18.90
19.49
19.42
18.82
17.97
17.16
16.58
16.25
16.03
15.76
15.38
14.97
14.66
14.55
14.59
14.52
14.04
12.89
11.00
8.51
5.75
3.06
0.65
-1.50
-3.64
-6.11
-9.26
-13.24
-17.94
-22.95
-27.66
-31.32
-33.26
-32.99
-30.36
-25.63
-19.41
-12.48
-5.65
0.50
5.65
9.78
12.97
15.36
17.00
17.89
18.04
17.55
16.60
15.47
14.43
13.58
12.94
12.33
11.59
10.60
9.42
8.20
7.11
6.22
5.39
4.42
3.07
1.25
-0.99
-3.44
-5.84
-8.07
-10.10
-12.10
-14.32
-16.99
-20.22
-23.90
-27.61
-30.71
-32.46
-32.17
-29.54
-24.70
-18.26
-11.12
-4.22
1.74
6.44
9.96
12.60
14.62
16.16
17.14
17.40
16.84
15.55
13.74
11.68
9.59
7.57
5.70
4.10
2.93
2.32
2.22
2.39
2.42
1.92
0.63
-1.45
-4.13
-7.11
-10.09
-12.86
-15.26
-17.25
-18.91
-20.47
-22.28
-24.62
-27.54
-30.70
-33.34
-34.54
-33.53
-30.02
-24.36
-17.46
-10.38
-4.10
0.89
4.51
6.98
8.58
9.51
9.84
9.60
8.93
8.06
7.28
6.75
6.48
6.28
5.92
5.31
4.56
4.02
4.01
4.74
6.04
7.42
8.20
7.84
6.10
3.21
-0.30
-3.81
-6.82
-9.22
-11.15
-12.95
-14.98
-17.54
-20.77
-24.63
-28.76
-32.48
-34.93
-35.29
-33.15
-28.69
-22.67
-16.09
-9.84
-4.44
0.04
3.69
6.67
9.00
10.65
11.63
12.09
12.17
12.00
11.61
10.96
10.06
8.95
7.78
6.71
5.91
5.45
5.39
5.65
6.02
6.23
5.93
4.89
3.08
0.73
-1.79
-4.12
-6.09
-7.73
-9.28
-11.08
-13.44
-16.58
-20.56
-25.15
-29.78
-33.61
-35.75
-35.42
-32.42
-27.10
-20.33
-13.16
-6.50
-0.90
3.57
7.03
9.76
11.90
13.51
14.54
14.92
14.67
13.87
12.72
11.45
10.27
9.27
8.48
7.82
7.23
6.70
6.26
5.97
5.77
5.44
4.70
3.27
1.06
-1.79
-4.90
-7.80
-10.14
-11.82
-13.05
-14.22
-15.82
-18.22
-21.57
-25.72
-30.11
-33.96
-36.39
-36.74
-34.69
-30.47
-24.71
-18.25
-11.90
-6.15
-1.18
3.14
7.04
10.69
14.05
16.88
18.85
19.66
19.26
17.91
16.12
14.44
13.18
12.34
11.67
10.90
9.97
9.08
8.52
8.38
8.44
8.16
6.98
4.68
1.50
-1.99
-5.17
-7.71
-9.68
-11.42
-13.38
-15.82
-18.80
-22.24
-26.05
-30.15
-34.37
-38.28
-41.17
-42.18
-40.58
-36.21
-29.51
-21.52
-13.44
-6.19
-0.16
4.78
9.00
12.78
16.09
18.60
19.98
20.12
19.34
18.20
17.35
17.19
17.68
18.47
19.09
19.18
18.71
17.94
17.23
16.77
16.47
15.92
14.68
12.43
9.21
5.42
1.64
-1.64
-4.23
-6.32
-8.41
-11.04
-14.56
-19.08
-24.38
-30.08
-35.63
-40.41
-43.70
-44.82
-43.24
-38.81
-31.92
-23.42
-14.45
-6.06
1.05
6.69
11.11
14.76
18.03
21.01
23.56
25.42
26.42
26.61
26.28
25.81
25.50
25.46
25.60
25.73
25.68
25.40
24.94
24.36
23.65
22.69
21.34
19.46
16.97
13.86
10.21
6.20
2.07
-1.94
-5.62
-8.92
-11.92
-14.83
-17.92
-21.42
-25.45
-29.99
-34.80
-39.41
-43.07
-44.95
-44.33
-40.87
-34.82
-26.93
-18.27
-9.83
-2.25
4.23
9.69
14.35
18.39
21.87
24.74
26.88
28.22
28.80
28.83
28.64
28.53
28.68
29.04
29.33
29.22
28.51
27.23
25.65
24.13
22.93
22.11
21.46
20.66
19.39
17.43
14.74
11.44
7.73
3.87
0.06
-3.54
-6.87
-9.98
-13.00
-16.16
-19.72
-23.92
-28.78
-34.03
-39.04
-42.93
-44.70
-43.65
-39.58
-32.89
-24.50
-15.53
-6.94
0.69
7.17
12.65
17.31
21.30
24.62
27.19
28.96
29.95
30.26
30.08
29.65
29.20
28.88
28.69
28.50
28.07
27.21
25.87
24.18
22.41
20.75
19.31
17.96
16.45
14.47
11.80
8.38
4.36
0.04
-4.16
-7.88
-10.90
-13.25
-15.23
-17.28
-19.94
-23.62
-28.53
-34.45
-40.65
-45.96
-49.00
-48.59
-44.28
-36.56
-26.75
-16.55
-7.36
0.10
5.92
10.63
14.73
18.38
21.37
23.32
24.06
23.76
22.90
22.02
21.44
21.20
21.09
20.83
20.31
19.60
18.99
18.71
18.84
19.20
19.39
18.97
17.65
15.35
12.23
8.58
4.71
0.90
-2.68
-5.95
-8.95
-11.81
-14.77
-18.11
-22.10
-26.79
-31.90
-36.76
-40.39
-41.73
-40.00
-34.93
-26.94
-16.99
-6.38
3.68
12.28
19.02
23.93
27.24
29.26
30.17
30.10
29.13
27.47
25.49
23.65
22.38
21.91
22.14
22.70
23.10
22.89
21.83
19.98
17.56
14.88
12.17
9.50
6.89
4.28
1.66
-1.01
-3.84
-6.89
-10.19
-13.64
-17.03
-20.25
-23.44
-27.02
-31.59
-37.60
-45.12
-53.62
-62.15
-69.54
-74.70
-76.90
-75.84
-71.74
-65.23
-57.19
-48.47
-39.56
-30.51
-21.06
-11.00
-0.55
9.59
18.44
25.18
29.47
31.50
31.83
31.11
29.87
28.50
27.33
26.61
26.56
27.18
28.20
29.16
29.51
28.84
26.99
24.05
20.31
16.17
12.09
8.40
5.34
2.96
1.15
-0.35
-1.84
-3.66
-6.07
-9.23
-13.22
-18.00
-23.40
-29.17
-34.84
-39.86
-43.64
-45.77
-46.15
-45.07
-43.04
-40.57
-37.91
-34.90
-31.16
-26.39
-20.70
-14.64
-9.11
-4.92
-2.54
-1.99
-2.92
-4.81
-7.13
-9.42
-11.35
-12.77
-13.74
-14.49
-15.22
-15.83
-15.73
-14.05
-10.06
-3.66
4.29
12.26
18.65
22.52
23.93
23.82
23.38
23.44
24.07
24.64
24.23
21.99
17.53
10.95
2.83
-5.84
-13.93
-20.32
-24.16
-24.99
-22.73
-17.58
-9.82
0.18
11.88
24.42
36.58
46.93
54.23
57.85
57.93
55.34
51.29
46.87
42.74
39.07
35.61
32.02
28.08
23.81
19.47
15.39
11.84
8.81
6.07
3.23
-0.05
-3.92
-8.27
-12.78
-17.09
-20.93
-24.23
-27.18
-30.09
-33.36
-37.35
-42.30
-48.27
-54.96
-61.63
-67.23
-70.57
-70.70
-67.25
-60.49
-51.31
-40.79
-29.98
-19.59
-10.05
-1.52
5.92
12.19
17.20
20.90
23.40
24.86
25.61
25.94
26.04
25.94
25.58
24.85
23.81
22.68
21.80
21.41
21.49
21.66
21.24
19.55
16.12
10.96
4.47
-2.63
-9.62
-15.98
-21.62
-26.81
-32.12
-38.20
-45.46
-53.79
-62.53
-70.45
-76.08
-78.12
-75.82
-69.31
-59.52
-47.94
-36.15
-25.37
-16.15
-8.40
-1.66
4.59
10.70
16.71
22.50
27.85
32.58
36.57
39.67
41.72
42.58
42.25
40.97
39.23
37.59
36.47
35.94
35.63
34.86
32.90
29.31
24.11
17.78
11.08
4.66
-1.17
-6.56
-12.02
-18.19
-25.57
-34.29
-43.99
-53.84
-62.59
-68.80
-71.18
-68.97
-62.21
-51.79
-39.23
-26.21
-14.16
-3.85
4.59
11.53
17.47
22.72
27.28
30.88
33.23
34.22
34.03
33.07
31.79
30.48
29.20
27.84
26.27
24.56
22.91
21.58
20.69
20.16
19.79
19.46
19.25
19.42
20.24
21.80
23.79
25.68
26.84
26.82
25.32
22.18
17.23
10.35
1.69
-8.02
-17.45
-24.84
-28.67
-28.10
-23.41
-15.73
-6.56
2.80
11.64
19.88
27.71
35.36
42.73
49.49
55.10
59.14
61.36
61.87
60.99
59.18
56.86
54.33
51.70
48.94
46.03
42.97
39.87
36.84
33.86
30.77
27.25
22.99
17.82
11.77
5.14
-1.61
-7.99
-13.62
-18.33
-22.27
-25.82
-29.45
-33.54
-38.12
-42.91
-47.25
-50.36
-51.49
-50.12
-45.97
-39.15
-30.11
-19.55
-8.36
2.57
12.48
20.87
27.59
32.72
36.52
39.33
41.41
42.91
43.92
44.47
44.66
44.67
44.69
44.86
45.16
45.41
45.29
44.62
43.31
41.44
39.13
36.41
33.18
29.30
24.70
19.52
14.07
8.79
4.01
-0.17
-3.96
-7.77
-12.08
-17.24
-23.37
-30.24
-37.35
-43.92
-49.01
-51.71
-51.31
-47.53
-40.64
-31.46
-21.11
-10.72
-1.11
7.33
14.58
20.75
25.89
29.91
32.63
33.98
34.12
33.48
32.59
31.93
31.66
31.67
31.60
31.10
29.97
28.24
26.16
24.03
22.01
20.12
18.13
15.76
12.79
9.21
5.23
1.23
-2.43
-5.54
-8.18
-10.64
-13.35
-16.76
-21.13
-26.50
-32.62
-38.90
-44.49
-48.48
-50.05
-48.80
-44.81
-38.66
-31.16
-23.14
-15.24
-7.79
-0.94
5.27
10.84
15.73
19.91
23.34
25.97
27.79
28.81
29.12
28.93
28.45
27.86
27.22
26.49
25.66
24.73
23.78
22.91
22.12
21.29
20.19
18.58
16.28
13.30
9.80
6.06
2.42
-0.84
-3.56
-5.77
-7.67
-9.59
-11.91
-15.02
-19.17
-24.50
-30.78
-37.43
-43.45
-47.65
-48.95
-46.83
-41.50
-33.87
-25.20
-16.69
-9.08
-2.60
2.89
7.61
11.67
14.98
17.39
18.79
19.25
18.95
18.17
17.17
16.14
15.20
14.42
13.81
13.31
12.84
12.29
11.60
10.77
9.86
8.92
7.96
6.91
5.63
4.03
2.15
0.06
-2.09
-4.20
-6.24
-8.24
-10.24
-12.29
-14.46
-16.85
-19.61
-22.89
-26.78
-31.13
-35.48
-39.06
-41.01
-40.58
-37.49
-32.00
-24.87
-17.11
-9.70
-3.27
1.90
5.87
8.89
11.14
12.75
13.76
14.17
14.02
13.39
12.42
11.29
10.20
9.30
8.69
8.37
8.24
8.14
7.94
7.55
6.99
6.34
5.63
4.81
3.76
2.30
0.35
-1.99
-4.51
-6.95
-9.12
-11.03
-12.78
-14.51
-16.25
-17.94
-19.47
-20.84
-22.20
-23.79
-25.72
-27.76
-29.32
-29.61
-28.02
-24.39
-19.12
-13.06
-7.14
-2.06
1.91
4.87
7.15
9.01
10.54
11.61
12.04
11.75
10.84
9.59
8.38
7.53
7.15
7.18
7.39
7.54
7.51
7.30
7.00
6.72
6.51
6.28
5.89
5.18
4.01
2.36
0.32
-1.90
-4.02
-5.83
-7.25
-8.38
-9.51
-10.96
-12.98
-15.68
-18.96
-22.52
-25.90
-28.52
-29.76
-29.14
-26.43
-21.83
-15.93
-9.58
-3.64
1.27
4.92
7.43
9.10
10.24
11.02
11.47
11.56
11.27
10.61
9.73
8.80
8.00
7.45
7.17
7.01
6.81
6.39
5.69
4.80
3.89
3.11
2.48
1.83
0.90
-0.58
-2.71
-5.38
-8.31
-11.18
-13.82
-16.18
-18.39
-20.63
-23.02
-25.63
-28.45
-31.39
-34.31
-36.94
-38.86
-39.57
-38.63
-35.83
-31.32
-25.60
-19.37
-13.33
-8.03
-3.65
-0.17
2.63
5.02
7.12
8.95
10.38
11.22
11.37
10.91
10.07
9.19
8.59
8.36
8.43
8.53
8.42
8.06
7.55
7.06
6.68
6.30
5.63
4.38
2.40
-0.20
-3.12
-6.00
-8.59
-10.83
-12.84
-14.88
-17.25
-20.16
-23.76
-28.04
-32.93
-38.18
-43.33
-47.71
-50.54
-51.08
-48.88
-44.01
-37.03
-28.94
-20.77
-13.29
-6.88
-1.47
3.21
7.40
11.18
14.50
17.20
19.18
20.45
21.09
21.27
21.19
21.03
20.87
20.71
20.49
20.11
19.54
18.83
18.11
17.46
16.87
16.17
15.07
13.30
10.75
7.51
3.84
0.09
-3.46
-6.67
-9.56
-12.27
-15.09
-18.30
-22.19
-26.89
-32.31
-38.03
-43.30
-47.13
-48.63
-47.24
-42.97
-36.38
-28.39
-19.97
-11.84
-4.37
2.40
8.54
14.08
18.85
22.59
25.09
26.35
26.62
26.36
26.08
26.08
26.40
26.80
26.92
26.50
25.51
24.10
22.58
21.19
20.00
18.93
17.73
16.11
13.87
10.92
7.35
3.42
-0.52
-4.14
-7.28
-10.02
-12.63
-15.47
-18.87
-23.03
-27.96
-33.42
-38.92
-43.67
-46.71
-47.13
-44.40
-38.60
-30.49
-21.24
-12.00
-3.63
3.54
9.55
14.59
18.78
22.15
24.66
26.37
27.44
28.08
28.52
28.85
29.08
29.16
28.99
28.55
27.84
26.97
26.06
25.21
24.38
23.33
21.75
19.29
15.87
11.70
7.23
2.98
-0.68
-3.74
-6.44
-9.17
-12.36
-16.29
-21.04
-26.52
-32.36
-37.93
-42.40
-44.87
-44.63
-41.43
-35.57
-27.80
-19.09
-10.30
-1.99
5.59
12.36
18.26
23.21
27.04
29.69
31.20
31.80
31.78
31.47
31.12
30.86
30.70
30.52
30.14
29.37
28.11
26.43
24.51
22.57
20.73
18.85
16.61
13.68
9.92
5.52
0.90
-3.40
-7.02
-9.94
-12.43
-14.97
-18.07
-22.11
-27.24
-33.27
-39.64
-45.48
-49.67
-51.22
-49.54
-44.68
-37.34
-28.57
-19.42
-10.68
-2.69
4.51
10.99
16.75
21.76
25.88
29.02
31.21
32.52
33.09
33.11
32.74
32.15
31.49
30.78
30.00
29.10
28.03
26.80
25.45
24.02
22.46
20.71
18.64
16.19
13.39
10.34
7.17
3.98
0.79
-2.45
-5.83
-9.45
-13.38
-17.66
-22.30
-27.26
-32.33
-37.07
-40.87
-42.97
-42.76
-39.97
-34.79
-27.82
-19.84
-11.65
-3.82
3.35
9.79
15.46
20.31
24.23
27.14
29.02
29.98
30.26
30.11
29.78
29.45
29.17
28.92
28.63
28.18
27.51
26.51
25.19
23.57
21.73
19.75
17.62
15.29
12.71
9.84
6.76
3.65
0.68
-1.97
-4.29
-6.43
-8.65
-11.20
-14.30
-18.01
-22.26
-26.83
-31.35
-35.29
-37.99
-38.84
-37.40
-33.59
-27.76
-20.64
-13.13
-6.02
0.16
5.28
9.43
12.82
15.54
17.56
18.80
19.22
18.97
18.42
17.98
17.97
18.42
19.09
19.58
19.58
19.03
18.14
17.21
16.46
15.90
15.29
14.33
12.79
10.59
7.84
4.78
1.65
-1.34
-4.02
-6.36
-8.40
-10.28
-12.28
-14.64
-17.61
-21.27
-25.50
-29.82
-33.51
-35.68
-35.60
-32.92
-27.89
-21.31
-14.20
-7.51
-1.75
3.02
7.04
10.57
13.68
16.20
17.95
18.80
18.90
18.52
17.99
17.53
17.17
16.88
16.57
16.20
15.78
15.32
14.79
14.15
13.33
12.31
11.08
9.62
7.92
5.94
3.63
1.08
-1.59
-4.16
-6.48
-8.51
-10.35
-12.23
-14.41
-17.10
-20.41
-24.32
-28.62
-32.93
-36.62
-39.01
-39.44
-37.56
-33.43
-27.60
-20.86
-14.06
-7.84
-2.57
1.71
5.16
8.02
10.48
12.70
14.68
16.36
17.63
18.39
18.65
18.54
18.23
17.94
17.81
17.89
18.10
18.34
18.41
18.18
17.54
16.42
14.85
12.91
10.70
8.32
5.85
3.33
0.79
-1.72
-4.16
-6.45
-8.59
-10.63
-12.67
-14.86
-17.31
-20.12
-23.30
-26.82
-30.48
-34.00
-36.87
-38.53
-38.44
-36.30
-32.20
-26.61
-20.25
-13.82
-7.86
-2.60
2.01
6.06
9.63
12.63
14.88
16.20
16.58
16.19
15.37
14.48
13.82
13.51
13.47
13.52
13.42
13.06
12.39
11.52
10.59
9.75
9.04
8.42
7.78
6.95
5.78
4.20
2.23
-0.05
-2.50
-4.96
-7.31
-9.45
-11.36
-13.07
-14.63
-16.20
-17.95
-20.10
-22.76
-25.73
-28.51
-30.32
-30.31
-27.97
-23.33
-17.03
-10.06
-3.43
2.24
6.75
10.31
13.25
15.78
17.91
19.52
20.42
20.59
20.09
19.12
17.89
16.58
15.27
14.00
12.75
11.53
10.42
9.52
8.88
8.49
8.22
7.84
7.15
5.98
4.31
2.17
-0.29
-2.91
-5.53
-8.00
-10.28
-12.40
-14.44
-16.53
-18.77
-21.30
-24.18
-27.42
-30.82
-33.91
-35.96
-36.17
-33.93
-29.11
-22.14
-13.90
-5.44
2.35
8.95
14.23
18.34
21.47
23.72
25.04
25.33
24.54
22.83
20.52
18.03
15.71
13.74
12.02
10.37
8.60
6.66
4.62
2.64
0.85
-0.77
-2.36
-4.10
-6.20
-8.71
-11.58
-14.68
-17.78
-20.71
-23.33
-25.61
-27.56
-29.28
-30.87
-32.49
-34.31
-36.49
-39.01
-41.64
-43.80
-44.71
-43.62
-40.10
-34.19
-26.49
-17.93
-9.47
-1.83
4.75
10.36
15.34
19.91
24.08
27.58
30.05
31.21
31.11
30.07
28.61
27.19
26.06
25.20
24.35
23.23
21.66
19.65
17.39
15.12
13.01
11.05
9.12
6.98
4.51
1.65
-1.46
-4.62
-7.56
-10.10
-12.17
-13.87
-15.47
-17.36
-19.96
-23.56
-28.17
-33.44
-38.63
-42.82
-45.10
-44.88
-41.99
-36.78
-29.92
-22.29
-14.62
-7.44
-0.96
4.80
9.84
14.15
17.58
20.03
21.50
22.12
22.19
22.00
21.74
21.42
20.94
20.19
19.18
18.08
17.14
16.55
16.35
16.34
16.16
15.40
13.78
11.26
8.01
4.36
0.67
-2.81
-6.00
-8.93
-11.80
-14.86
-18.44
-22.81
-28.07
-33.99
-39.90
-44.79
-47.55
-47.34
-43.92
-37.75
-29.76
-21.09
-12.63
-4.88
2.06
8.26
13.82
18.69
22.73
25.73
27.66
28.63
28.91
28.83
28.61
28.29
27.74
26.79
25.35
23.56
21.72
20.17
19.13
18.50
17.92
16.91
15.04
12.15
8.40
4.22
0.08
-3.61
-6.65
-9.11
-11.29
-13.61
-16.53
-20.39
-25.31
-31.10
-37.08
-42.32
-45.68
-46.24
-43.56
-37.85
-29.94
-20.93
-11.94
-3.71
3.40
9.43
14.54
18.86
22.44
25.21
27.17
28.36
28.98
29.19
29.15
28.94
28.57
28.10
27.59
27.19
26.97
26.97
27.05
27.02
26.59
25.50
23.59
20.78
17.20
13.10
8.84
4.81
1.30
-1.65
-4.24
-6.86
-10.04
-14.16
-19.43
-25.64
-32.20
-38.19
-42.53
-44.33
-43.06
-38.79
-32.08
-23.79
-14.81
-5.88
2.51
10.09
16.69
22.25
26.67
29.92
32.00
32.98
33.04
32.44
31.49
30.49
29.62
28.92
28.33
27.74
27.09
26.38
25.63
24.82
23.87
22.64
20.98
18.79
16.09
12.92
9.44
5.83
2.25
-1.17
-4.38
-7.42
-10.42
-13.60
-17.18
-21.35
-26.11
-31.22
-36.13
-40.06
-42.11
-41.54
-38.04
-31.86
-23.75
-14.81
-6.09
1.67
8.16
13.44
17.75
21.29
24.06
25.97
26.91
26.91
26.21
25.14
24.00
23.00
22.19
21.51
20.89
20.27
19.67
19.08
18.51
17.90
17.12
16.00
14.36
12.06
9.12
5.69
2.04
-1.52
-4.78
-7.67
-10.30
-12.91
-15.80
-19.23
-23.35
-28.05
-32.86
-37.01
-39.57
-39.74
-37.14
-31.96
-24.96
-17.16
-9.54
-2.72
3.12
8.12
12.49
16.34
19.58
21.97
23.34
23.68
23.22
22.34
21.43
20.71
20.20
19.73
19.13
18.25
17.12
15.86
14.63
13.51
12.43
11.18
9.46
7.09
4.03
0.49
-3.18
-6.62
-9.58
-12.06
-14.27
-16.54
-19.19
-22.48
-26.54
-31.29
-36.39
-41.19
-44.78
-46.20
-44.77
-40.34
-33.41
-24.94
-16.05
-7.64
-0.22
6.09
11.38
15.80
19.35
22.03
23.76
24.59
24.66
24.20
23.46
22.61
21.80
21.08
20.45
19.91
19.45
19.03
18.58
18.02
17.29
16.32
15.12
13.66
11.89
9.72
7.10
4.07
0.83
-2.38
-5.29
-7.76
-9.83
-11.70
-13.64
-15.95
-18.91
-22.72
-27.32
-32.38
-37.18
-40.77
-42.19
-40.87
-36.79
-30.52
-23.05
-15.40
-8.38
-2.39
2.57
6.69
10.24
13.35
16.03
18.17
19.71
20.60
20.93
20.84
20.50
20.04
19.50
18.93
18.40
17.93
17.54
17.15
16.63
15.83
14.67
13.14
11.32
9.26
7.06
4.77
2.42
0.08
-2.19
-4.36
-6.46
-8.57
-10.81
-13.26
-16.01
-19.08
-22.47
-26.11
-29.70
-32.76
-34.61
-34.58
-32.32
-27.89
-21.85
-15.04
-8.26
-2.10
3.21
7.69
11.44
14.42
16.53
17.63
17.69
16.89
15.56
14.08
12.75
11.71
10.91
10.19
9.45
8.62
7.77
7.01
6.44
6.06
5.75
5.30
4.50
3.14
1.17
-1.34
-4.13
-6.89
-9.30
-11.14
-12.41
-13.33
-14.24
-15.53
-17.47
-20.23
-23.82
-27.97
-32.15
-35.50
-37.04
-35.94
-31.90
-25.32
-17.23
-8.93
-1.46
4.70
9.62
13.67
17.19
20.23
22.62
24.10
24.57
24.19
23.28
22.18
21.13
20.23
19.43
18.64
17.72
16.60
15.29
13.82
12.30
10.82
9.40
7.95
6.31
4.30
1.81
-1.15
-4.49
-8.08
-11.82
-15.67
-19.65
-23.72
-27.71
-31.39
-34.57
-37.16
-39.20
-40.71
-41.58
-41.44
-39.83
-36.41
-31.24
-24.85
-18.10
-11.87
-6.77
-2.91
-0.02
2.34
4.47
6.43
8.01
8.94
9.03
8.28
6.89
5.23
3.65
2.47
1.95
2.28
3.69
6.30
10.10
14.86
20.06
24.97
28.80
30.98
31.26
29.85
27.30
24.29
21.40
18.95
16.95
15.15
13.15
10.47
6.66
1.30
-5.80
-14.50
-24.11
-33.45
-41.06
-45.64
-46.46
-43.62
-37.97
-30.78
-23.25
-16.18
-9.88
-4.31
0.66
5.10
8.93
12.01
14.26
15.70
16.48
16.76
16.73
16.53
16.26
16.00
15.80
15.74
15.89
16.33
17.11
18.15
19.23
19.96
19.89
18.64
16.09
12.36
7.83
3.01
-1.66
-5.87
-9.51
-12.70
-15.68
-18.79
-22.32
-26.43
-31.06
-35.81
-40.01
-42.87
-43.63
-41.89
-37.67
-31.50
-24.22
-16.72
-9.70
-3.50
1.83
6.41
10.37
13.71
16.30
18.01
18.79
18.81
18.43
18.04
17.94
18.20
18.65
19.01
19.07
18.81
18.41
18.10
18.00
18.01
17.80
16.93
15.09
12.20
8.51
4.46
0.58
-2.78
-5.54
-7.91
-10.34
-13.32
-17.15
-21.89
-27.23
-32.60
-37.21
-40.31
-41.22
-39.60
-35.46
-29.28
-21.84
-14.08
-6.81
-0.54
4.56
8.63
11.91
14.59
16.71
18.23
19.11
19.44
19.49
19.54
19.86
20.48
21.22
21.79
21.88
21.43
20.54
19.47
18.49
17.67
16.90
15.87
14.25
11.83
8.65
4.95
1.11
-2.51
-5.73
-8.60
-11.37
-14.39
-18.00
-22.36
-27.43
-32.83
-37.95
-42.02
-44.27
-44.14
-41.39
-36.22
-29.19
-21.16
-13.07
-5.74
0.26
4.70
7.62
9.30
10.07
10.20
9.90
9.32
8.57
7.72
6.81
5.79
4.54
3.03
1.38
-0.01
-0.52
0.38
2.86
6.54
10.50
13.66
15.17
14.79
12.90
10.34
7.98
6.41
5.76
5.69
5.60
4.83
2.89
-0.41
-4.86
-9.87
-14.48
-17.65
-18.54
-16.82
-12.72
-6.96
-0.49
5.88
11.59
16.42
20.36
23.45
25.71
27.15
27.83
27.91
27.60
27.13
26.62
26.11
25.57
24.91
24.05
22.96
21.69
20.36
19.15
18.15
17.36
16.54
15.36
13.50
10.77
7.19
3.00
-1.48
-5.91
-10.04
-13.74
-17.01
-20.01
-23.03
-26.45
-30.56
-35.36
-40.43
-44.90
-47.73
-48.03
-45.37
-39.92
-32.44
-23.92
-15.29
-7.17
0.18
6.76
12.64
17.78
22.05
25.21
27.08
27.68
27.28
26.30
25.26
24.51
24.21
24.21
24.29
24.19
23.83
23.30
22.76
22.32
21.91
21.30
20.14
18.18
15.36
11.85
7.98
4.09
0.42
-2.92
-5.97
-8.81
-11.56
-14.37
-17.42
-20.94
-25.12
-29.95
-35.02
-39.60
-42.70
-43.45
-41.41
-36.69
-29.96
-22.10
-13.99
-6.21
0.93
7.36
13.06
17.94
21.92
24.87
26.77
27.66
27.67
26.99
25.86
24.54
23.28
22.24
21.44
20.76
19.97
18.84
17.28
15.34
13.22
11.09
9.08
7.10
4.95
2.36
-0.86
-4.72
-8.97
-13.18
-16.84
-19.60
-21.47
-22.94
-24.93
-28.46
-34.27
-42.43
-52.26
-62.38
-71.09
-76.78
-78.25
-75.08
-67.61
-56.83
-44.25
-31.47
-19.81
-9.90
-1.56
6.03
13.84
22.48
31.80
41.01
49.11
55.41
59.86
62.91
65.22
67.13
68.60
69.33
69.08
67.95
66.38
64.91
63.89
63.27
62.62
61.21
58.21
52.94
45.10
34.92
23.19
11.10
-0.13
-9.65
-17.14
-22.79
-27.03
-30.28
-32.80
-34.77
-36.43
-38.04
-39.72
-41.30
-42.23
-41.79
-39.39
-34.95
-28.92
-22.13
-15.50
-9.70
-4.97
-1.29
1.55
3.73
5.30
6.21
6.39
5.83
4.67
3.16
1.60
0.19
-0.99
-1.96
-2.77
-3.36
-3.59
-3.30
-2.49
-1.39
-0.43
-0.08
-0.60
-2.04
-4.17
-6.69
-9.36
-12.00
-14.53
-16.88
-19.03
-21.03
-23.06
-25.35
-28.11
-31.49
-35.49
-39.99
-44.74
-49.35
-53.24
-55.77
-56.36
-54.82
-51.33
-46.40
-40.58
-34.13
-26.97
-18.87
-9.76
0.02
9.71
18.46
25.68
31.23
35.37
38.47
40.75
42.19
42.66
42.09
40.62
38.58
36.33
34.17
32.23
30.50
28.90
27.36
25.85
24.39
22.99
21.64
20.29
18.85
17.16
15.07
12.49
9.41
5.99
2.50
-0.85
-3.93
-6.88
-10.09
-14.01
-18.99
-25.01
-31.54
-37.62
-42.09
-43.94
-42.67
-38.49
-32.27
-25.26
-18.65
-13.23
-9.10
-5.70
-2.15
2.35
8.12
14.78
21.45
27.03
30.71
32.18
31.79
30.38
29.06
28.85
30.38
33.71
38.30
43.16
47.25
49.80
50.59
49.85
48.03
45.41
42.02
37.68
32.24
25.84
18.84
11.73
4.85
-1.66
-7.89
-13.94
-19.88
-25.68
-31.24
-36.52
-41.56
-46.46
-51.26
-55.78
-59.55
-61.85
-61.93
-59.30
-53.99
-46.62
-38.24
-29.94
-22.52
-16.30
-11.13
-6.68
-2.72
0.80
3.66
5.66
6.72
7.02
6.97
6.98
7.31
7.99
8.89
9.78
10.51
11.06
11.48
11.82
12.08
12.21
12.15
11.89
11.44
10.81
9.96
8.73
7.00
4.65
1.76
-1.51
-4.92
-8.34
-11.77
-15.34
-19.21
-23.50
-28.13
-32.77
-36.88
-39.76
-40.70
-39.16
-34.92
-28.19
-19.56
-9.90
-0.13
8.97
16.90
23.39
28.39
31.91
33.98
34.69
34.24
32.92
31.12
29.21
27.46
25.99
24.75
23.60
22.39
21.04
19.51
17.87
16.21
14.57
12.92
11.11
8.93
6.18
2.75
-1.27
-5.58
-9.79
-13.54
-16.67
-19.25
-21.60
-24.12
-27.21
-31.13
-35.89
-41.17
-46.33
-50.48
-52.68
-52.19
-48.78
-42.82
-35.17
-26.90
-18.95
-11.86
-5.76
-0.42
4.40
8.80
12.68
15.77
17.89
18.97
19.19
18.86
18.35
17.92
17.65
17.49
17.31
17.04
16.67
16.28
15.85
15.32
14.45
13.02
10.86
7.95
4.44
0.56
-3.46
-7.47
-11.45
-15.47
-19.63
-24.01
-28.65
-33.57
-38.78
-44.36
-50.37
-56.76
-63.31
-69.40
-74.19
-76.72
-76.23
-72.52
-65.98
-57.58
-48.53
-39.92
-32.46
-26.35
-21.46
-17.53
-14.39
-11.98
-10.15
-8.50
-6.36
-2.97
2.08
8.62
15.94
23.15
29.81
36.29
43.60
52.71
63.74
75.60
86.32
94.01
97.74
97.93
95.86
92.73
88.91
83.76
76.15
65.32
51.34
35.10
17.81
0.38
-16.80
-33.64
-49.83
-64.53
-76.47
-84.32
-87.22
-85.09
-78.61
-69.09
-58.05
-46.91
-36.69
-27.88
-20.43
-13.91
-7.78
-1.68
4.33
9.83
14.19
16.92
17.94
17.56
16.47
15.45
15.17
16.12
18.58
22.56
27.76
33.53
39.02
43.35
45.92
46.60
45.66
43.61
40.92
37.89
34.66
31.27
27.83
24.49
21.39
18.57
15.88
12.97
9.34
4.39
-2.41
-11.20
-21.43
-31.71
-40.14
-44.90
-44.99
-40.69
-33.38
-25.06
-17.48
-11.62
-7.64
-5.12
-3.65
-3.10
-3.74
-5.94
-9.85
-15.18
-21.09
-26.37
-29.64
-29.75
-26.06
-18.55
-7.82
5.07
18.97
32.83
45.94
57.93
68.64
77.84
85.15
90.02
91.95
90.78
86.83
80.78
73.18
64.05
52.49
36.95
15.90
-11.24
-43.37
-77.48
-109.17
-133.66
-147.00
-147.15
-134.51
-111.81
-83.25
-53.33
-25.63
-2.14
16.70
31.36
42.40
49.91
53.60
53.39
50.04
45.28
41.35
40.05
41.88
45.80
49.67
51.24
49.09
43.23
34.92
26.10
18.57
13.32
10.38
9.15
8.88
9.25
10.41
12.82
16.64
21.40
25.93
28.77
28.72
25.31
18.78
9.86
-0.73
-12.40
-24.61
-36.60
-47.21
-55.04
-58.86
-58.04
-52.78
-44.10
-33.41
-22.13
-11.39
-1.82
6.37
13.20
18.82
23.36
26.93
29.60
31.45
32.51
32.81
32.38
31.21
29.36
26.98
24.30
21.61
19.14
16.99
15.09
13.22
11.09
8.44
5.17
1.31
-2.95
-7.36
-11.67
-15.79
-19.75
-23.80
-28.30
-33.62
-40.03
-47.55
-55.81
-64.03
-71.07
-75.68
-76.87
-74.17
-67.80
-58.58
-47.65
-36.11
-24.74
-13.94
-3.86
5.46
13.90
21.25
27.30
31.97
35.37
37.76
39.46
40.67
41.47
41.80
41.61
40.93
39.94
38.89
37.96
37.19
36.37
35.15
33.17
30.22
26.29
21.66
16.69
11.75
7.04
2.57
-1.86
-6.59
-12.01
-18.41
-25.82
-33.95
-42.03
-48.95
-53.48
-54.56
-51.77
-45.43
-36.56
-26.45
-16.28
-6.71
2.11
10.33
18.13
25.46
32.03
37.44
41.40
43.88
45.11
45.49
45.38
44.99
44.38
43.47
42.21
40.61
38.74
36.77
34.81
32.90
30.94
28.79
26.29
23.29
19.74
15.75
11.52
7.30
3.29
-0.50
-4.21
-8.14
-12.61
-17.88
-24.00
-30.77
-37.71
-44.04
-48.82
-51.10
-50.26
-46.21
-39.44
-30.87
-21.56
-12.36
-3.73
4.21
11.54
18.33
24.49
29.81
34.02
36.91
38.43
38.74
38.14
37.00
35.62
34.20
32.83
31.50
30.19
28.85
27.47
26.02
24.45
22.70
20.71
18.40
15.74
12.69
9.26
5.52
1.65
-2.18
-5.80
-9.19
-12.41
-15.66
-19.12
-22.96
-27.24
-31.93
-36.84
-41.61
-45.68
-48.38
-49.06
-47.32
-43.16
-37.00
-29.47
-21.30
-13.03
-5.03
2.51
9.40
15.48
20.54
24.41
27.00
28.35
28.68
28.28
27.50
26.69
26.10
25.87
25.95
26.17
26.30
26.13
25.57
24.59
23.26
21.62
19.66
17.38
14.80
12.00
9.10
6.19
3.27
0.25
-2.94
-6.28
-9.60
-12.70
-15.44
-17.98
-20.64
-23.87
-27.94
-32.77
-37.81
-42.23
-45.11
-45.76
-43.90
-39.73
-33.81
-26.90
-19.73
-12.88
-6.74
-1.50
2.82
6.26
8.96
11.01
12.52
13.51
14.03
14.13
13.96
13.70
13.53
13.58
13.80
14.06
14.16
14.00
13.58
13.00
12.38
11.69
10.79
9.44
7.47
4.85
1.78
-1.45
-4.49
-7.16
-9.45
-11.50
-13.54
-15.75
-18.27
-21.17
-24.47
-28.10
-31.92
-35.63
-38.84
-41.11
-42.08
-41.57
-39.60
-36.37
-32.19
-27.43
-22.42
-17.49
-12.96
-9.08
-6.06
-4.07
-3.18
-3.30
-4.04
-4.73
-4.55
-2.79
0.88
6.16
12.18
17.76
21.78
23.58
23.10
20.85
17.64
14.29
11.42
9.38
8.17
7.61
7.41
7.29
7.07
6.69
6.12
5.27
4.06
2.33
-0.06
-3.14
-6.84
-11.06
-15.71
-20.69
-25.83
-30.73
-34.78
-37.23
-37.50
-35.36
-31.19
-25.74
-19.99
-14.74
-10.43
-7.07
-4.39
-2.07
0.06
1.96
3.46
4.36
4.55
4.11
3.24
2.16
1.09
0.11
-0.73
-1.46
-2.17
-2.95
-3.99
-5.45
-7.41
-9.72
-12.04
-13.87
-14.77
-14.48
-13.01
-10.58
-7.52
-4.23
-1.13
1.39
3.04
3.62
3.17
1.88
0.01
-2.30
-5.06
-8.33
-12.04
-15.78
-18.82
-20.38
-19.88
-17.25
-12.94
-7.73
-2.36
2.67
7.20
11.33
15.22
18.94
22.38
25.29
27.40
28.47
28.46
27.49
25.89
24.07
22.38
21.03
20.01
19.12
18.11
16.79
15.13
13.22
11.21
9.22
7.29
5.44
3.68
2.03
0.51
-0.93
-2.40
-4.00
-5.81
-7.76
-9.69
-11.42
-12.88
-14.16
-15.64
-17.84
-21.27
-26.18
-32.31
-38.89
-44.76
-48.74
-50.04
-48.55
-44.87
-40.06
-35.20
-30.99
-27.54
-24.48
-21.31
-17.70
-13.67
-9.59
-5.93
-3.01
-0.90
0.53
1.53
2.35
3.26
4.58
6.68
9.92
14.39
19.86
25.66
30.93
34.87
36.96
37.05
35.31
32.09
27.83
23.00
18.06
13.38
9.13
5.14
1.04
-3.70
-9.45
-16.39
-24.42
-33.19
-42.18
-50.70
-57.87
-62.75
-64.52
-62.72
-57.47
-49.46
-39.70
-29.24
-18.87
-9.02
0.13
8.50
15.95
22.29
27.26
30.69
32.56
33.12
32.81
32.26
32.12
32.82
34.44
36.69
39.07
41.10
42.51
43.25
43.38
42.95
41.89
40.09
37.58
34.49
31.12
27.71
24.29
20.60
16.19
10.60
3.56
-4.82
-14.15
-23.87
-33.41
-42.38
-50.50
-57.54
-63.13
-66.72
-67.67
-65.53
-60.19
-52.08
-42.09
-31.32
-20.75
-11.04
-2.49
4.88
11.16
16.45
20.77
24.10
26.49
28.06
28.98
29.48
29.71
29.74
29.58
29.20
28.63
27.95
27.34
26.94
26.77
26.67
26.30
25.31
23.52
20.95
17.85
14.55
11.35
8.34
5.51
2.70
-0.24
-3.44
-6.97
-10.96
-15.46
-20.49
-25.77
-30.73
-34.56
-36.41
-35.73
-32.45
-27.08
-20.51
-13.71
-7.42
-1.95
2.79
7.04
10.96
14.48
17.31
19.10
19.63
19.00
17.61
15.98
14.56
13.58
12.96
12.49
11.88
11.00
9.88
8.65
7.42
6.17
4.70
2.70
-0.15
-4.03
-8.89
-14.45
-20.24
-25.74
-30.49
-34.22
-36.99
-39.14
-41.17
-43.54
-46.35
-49.29
-51.57
-52.24
-50.49
-46.03
-39.14
-30.63
-21.52
-12.72
-4.86
1.81
7.28
11.63
14.96
17.31
18.71
19.32
19.36
19.15
18.95
18.91
19.00
19.06
18.91
18.46
17.90
17.62
18.07
19.50
21.78
24.37
26.53
27.79
28.08
27.90
27.92
28.57
29.69
30.50
29.90
26.90
21.01
12.38
1.80
-9.49
-20.00
-28.29
-33.26
-34.41
-31.96
-26.75
-19.92
-12.56
-5.42
1.07
6.78
11.63
15.57
18.55
20.62
21.91
22.59
22.84
22.74
22.30
21.53
20.43
19.10
17.71
16.47
15.54
14.98
14.72
14.49
13.96
12.75
10.65
7.65
3.96
-0.05
-4.06
-7.85
-11.50
-15.25
-19.47
-24.51
-30.58
-37.61
-45.19
-52.56
-58.70
-62.56
-63.31
-60.68
-54.99
-47.13
-38.17
-29.07
-20.44
-12.43
-4.96
2.11
8.76
14.82
20.01
24.10
27.01
28.81
29.70
29.89
29.60
28.97
28.13
27.17
26.17
25.24
24.45
23.79
23.12
22.21
20.73
18.44
15.22
11.22
6.82
2.46
-1.51
-5.00
-8.19
-11.53
-15.49
-20.44
-26.52
-33.57
-41.08
-48.19
-53.87
-57.05
-56.96
-53.36
-46.72
-38.04
-28.51
-19.12
-10.43
-2.53
4.74
11.60
18.02
23.80
28.61
32.18
34.49
35.71
36.23
36.39
36.49
36.60
36.71
36.70
36.47
35.95
35.16
34.13
32.87
31.40
29.62
27.45
24.79
21.60
17.91
13.87
9.69
5.52
1.48
-2.47
-6.40
-10.40
-14.56
-18.99
-23.80
-29.13
-35.00
-41.13
-46.92
-51.41
-53.67
-53.02
-49.34
-43.06
-35.08
-26.37
-17.72
-9.61
-2.17
4.64
10.88
16.56
21.60
25.89
29.33
31.91
33.67
34.75
35.33
35.59
35.74
35.89
36.10
36.30
36.37
36.16
35.55
34.51
33.05
31.21
29.02
26.49
23.54
20.18
16.40
12.32
8.08
3.82
-0.35
-4.40
-8.37
-12.34
-16.45
-20.84
-25.63
-30.90
-36.52
-42.06
-46.80
-49.81
-50.27
-47.74
-42.41
-35.04
-26.69
-18.38
-10.78
-4.11
1.75
7.03
11.85
16.16
19.78
22.54
24.41
25.44
25.88
26.02
26.14
26.43
26.89
27.41
27.76
27.73
27.25
26.37
25.28
24.12
22.90
21.48
19.65
17.20
14.14
10.67
7.05
3.58
0.36
-2.67
-5.72
-9.00
-12.63
-16.68
-21.12
-25.93
-31.02
-36.20
-41.01
-44.75
-46.63
-46.02
-42.74
-37.14
-30.04
-22.40
-15.04
-8.40
-2.50
2.83
7.78
12.39
16.53
19.97
22.56
24.27
25.20
25.57
25.58
25.38
25.11
24.83
24.59
24.40
24.27
24.18
24.10
23.95
23.59
22.84
21.49
19.37
16.46
12.87
8.84
4.66
0.53
-3.48
-7.37
-11.19
-14.98
-18.76
-22.61
-26.73
-31.36
-36.70
-42.66
-48.75
-54.14
-57.90
-59.37
-58.47
-55.71
-52.00
-48.26
-45.12
-42.73
-40.77
-38.75
-36.29
-33.27
-30.03
-27.21
-25.65
-26.01
-28.49
-32.52
-36.80
-39.46
-38.68
-33.18
-22.68
-7.91
9.59
27.97
45.62
61.40
74.81
85.73
94.19
100.17
103.54
104.14
101.86
96.68
88.63
77.87
64.82
50.35
35.79
22.65
12.13
4.54
-0.92
-5.93
-12.37
-21.52
-33.48
-47.19
-60.72
-71.93
-78.92
-80.44
-76.07
-66.26
-52.32
-36.18
-20.02
-5.76
5.27
12.55
16.29
17.19
16.19
14.28
12.36
11.21
11.40
13.20
16.50
20.77
25.26
29.20
32.09
33.77
34.53
34.81
35.04
35.41
35.85
36.06
35.71
34.58
32.60
29.86
26.43
22.37
17.63
12.13
5.90
-0.92
-8.01
-15.00
-21.60
-27.73
-33.56
-39.43
-45.57
-51.89
-57.88
-62.68
-65.45
-65.66
-63.38
-59.32
-54.52
-50.17
-47.18
-46.07
-46.88
-49.11
-51.78
-53.60
-53.22
-49.71
-42.96
-33.81
-23.88
-15.04
-8.71
-5.38
-4.61
-5.27
-6.14
-6.36
-5.60
-3.99
-1.87
0.49
2.92
5.31
7.57
9.56
11.22
12.70
14.36
16.66
19.85
23.75
27.63
30.40
31.05
29.06
24.61
18.42
11.46
4.56
-1.60
-6.46
-9.42
-9.93
-7.72
-3.08
3.03
9.26
14.38
17.72
19.39
20.22
21.33
23.73
27.96
34.01
41.31
48.91
55.80
61.15
64.65
66.55
67.46
67.92
68.07
67.41
65.03
59.96
51.71
40.55
27.59
14.48
2.91
-5.91
-11.60
-14.60
-15.96
-16.84
-18.18
-20.47
-23.75
-27.75
-32.01
-35.98
-39.08
-40.85
-41.10
-40.03
-38.09
-35.71
-32.89
-29.22
-24.05
-16.98
-8.29
1.15
10.17
17.80
23.54
27.43
29.72
30.71
30.52
29.22
27.00
24.17
21.20
18.52
16.39
14.83
13.63
12.36
10.59
8.00
4.65
0.93
-2.51
-5.13
-6.76
-7.84
-9.22
-11.88
-16.63
-23.91
-33.69
-45.55
-58.68
-71.97
-84.08
-93.66
-99.59
-101.34
-99.24
-94.43
-88.52
-82.93
-78.20
-73.78
-68.27
-60.18
-48.75
-34.48
-18.88
-3.81
9.39
20.39
29.66
37.81
45.06
50.98
54.83
56.20
55.45
53.59
51.71
50.14
48.16
44.43
37.92
28.94
19.45
12.46
10.65
15.22
25.18
37.88
50.08
59.21
64.03
64.67
62.00
57.02
50.47
42.72
33.92
24.22
13.85
3.22
-7.00
-16.18
-23.78
-29.49
-33.33
-35.40
-35.77
-34.38
-31.14
-26.17
-19.97
-13.40
-7.39
-2.64
0.66
2.68
3.76
4.10
3.73
2.55
0.62
-1.74
-4.05
-5.92
-7.34
-8.67
-10.42
-12.85
-15.69
-18.19
-19.54
-19.26
-17.62
-15.55
-14.26
-14.84
-17.81
-23.07
-29.93
-37.36
-44.30
-49.86
-53.58
-55.53
-56.21
-56.38
-56.67
-57.33
-58.15
-58.52
-57.79
-55.44
-51.34
-45.61
-38.53
-30.42
-21.57
-12.32
-3.10
5.60
13.33
19.75
24.84
28.82
32.09
35.03
37.76
40.10
41.59
41.67
39.91
36.27
31.15
25.21
19.23
13.75
8.99
4.89
1.37
-1.54
-3.65
-4.76
-4.97
-4.72
-4.68
-5.44
-7.21
-9.81
-12.82
-15.77
-18.24
-19.60
-18.87
-14.67
-5.77
8.25
26.51
46.85
66.53
83.08
95.03
102.10
104.67
103.32
98.36
89.92
78.32
64.43
49.74
36.09
25.12
17.81
14.22
13.69
15.10
17.31
19.28
20.23
19.56
16.96
12.52
6.69
0.24
-6.18
-12.39
-18.77
-26.06
-34.80
-44.89
-55.44
-65.11
-72.60
-77.21
-78.84
-77.89
-74.86
-70.13
-63.92
-56.49
-48.27
-39.98
-32.38
-26.03
-21.02
-16.92
-12.99
-8.55
-3.40
2.10
7.21
11.29
14.13
16.12
17.82
19.54
21.04
21.72
21.05
19.15
16.90
15.64
16.55
20.01
25.35
31.01
35.04
35.75
32.17
24.39
13.38
0.72
-11.98
-23.39
-32.74
-39.79
-44.76
-48.21
-50.89
-53.41
-55.92
-57.83
-57.96
-54.99
-48.15
-37.72
-25.04
-11.99
-0.24
9.30
16.58
21.96
25.72
27.86
28.23
26.93
24.59
22.28
21.19
22.20
25.41
30.13
34.96
38.33
38.95
36.39
31.16
24.66
18.72
15.01
14.46
16.97
21.53
26.63
30.74
32.71
31.96
28.54
22.94
16.02
8.75
2.14
-2.79
-5.11
-4.09
0.53
8.31
17.91
27.41
34.78
38.60
38.68
36.10
32.71
30.42
30.38
32.67
36.48
40.62
44.00
45.96
46.33
45.34
43.47
41.32
39.50
38.45
38.33
38.96
39.90
40.58
40.54
39.55
37.60
34.84
31.37
27.23
22.40
16.88
10.77
4.23
-2.65
-9.88
-17.44
-25.06
-32.02
-37.17
-39.26
-37.44
-31.71
-23.09
-13.36
-4.36
2.62
7.20
9.93
11.80
13.74
16.15
18.85
21.31
22.98
23.58
23.12
21.87
20.20
18.44
16.87
15.67
14.96
14.72
14.88
15.23
15.57
15.66
15.36
14.63
13.54
12.28
11.03
9.94
8.98
7.93
6.35
3.67
-0.59
-6.58
-14.01
-22.10
-29.79
-35.98
-39.90
-41.31
-40.43
-37.87
-34.32
-30.40
-26.56
-23.09
-20.17
-17.84
-16.10
-14.80
-13.78
-12.93
-12.21
-11.62
-11.18
-10.82
-10.42
-9.86
-9.04
-7.92
-6.54
-4.98
-3.38
-1.96
-1.01
-0.83
-1.63
-3.37
-5.78
-8.43
-10.83
-12.67
-13.84
-14.50
-15.04
-15.94
-17.67
-20.47
-24.26
-28.55
-32.53
-35.38
-36.46
-35.58
-33.01
-29.35
-25.25
-21.10
-16.97
-12.67
-8.00
-3.08
1.65
5.51
7.90
8.55
7.73
6.13
4.61
3.89
4.37
6.07
8.64
11.40
13.47
13.94
12.32
8.86
4.61
1.09
-0.45
0.40
2.94
5.70
7.13
6.37
3.50
-0.63
-4.99
-8.83
-11.97
-14.57
-16.83
-18.80
-20.28
-20.91
-20.29
-18.19
-14.62
-9.90
-4.57
0.76
5.65
9.87
13.45
16.52
19.16
21.27
22.67
23.19
22.91
22.15
21.37
20.97
21.06
21.51
21.97
22.16
21.98
21.47
20.80
20.04
19.22
18.27
17.16
15.94
14.70
13.57
12.54
11.46
10.05
7.99
5.11
1.41
-2.79
-7.06
-10.99
-14.43
-17.50
-20.59
-24.06
-27.99
-32.16
-36.02
-39.01
-40.82
-41.53
-41.52
-41.33
-41.43
-42.10
-43.44
-45.31
-47.25
-48.47
-48.03
-45.08
-39.34
-31.34
-22.23
-13.39
-5.87
0.01
4.57
8.37
11.83
14.87
17.12
18.18
17.92
16.62
14.82
13.11
11.91
11.38
11.44
11.76
11.78
10.82
8.12
3.14
-4.34
-13.98
-25.02
-36.37
-46.92
-55.64
-61.86
-65.17
-65.44
-62.73
-57.21
-49.12
-38.83
-26.85
-13.84
-0.36
13.21
26.82
40.57
54.42
67.92
80.21
90.35
97.81
102.64
105.39
106.61
106.52
105.02
102.13
98.40
94.84
92.24
90.46
88.04
82.79
72.97
58.39
40.78
23.07
8.15
-2.23
-7.91
-9.99
-10.16
-10.08
-11.10
-14.17
-19.83
-28.15
-38.67
-50.54
-62.98
-75.63
-88.64
-102.16
-115.55
-127.07
-134.31
-135.34
-129.62
-118.24
-103.13
-86.08
-68.13
-49.68
-31.18
-13.56
1.84
13.96
22.64
28.70
33.31
37.18
39.99
40.75
38.53
33.09
25.05
15.55
5.94
-2.43
-8.50
-11.74
-12.54
-12.15
-12.37
-14.64
-19.34
-25.52
-31.48
-35.76
-38.04
-39.34
-41.18
-44.64
-49.73
-55.50
-60.98
-65.85
-70.40
-74.96
-78.96
-80.67
-77.97
-69.48
-55.62
-38.67
-21.70
-6.90
5.41
16.57
28.30
41.18
54.02
64.45
70.32
70.95
67.49
62.23
57.43
54.37
53.07
52.77
52.69
52.44
52.04
51.61
50.98
49.57
46.52
40.96
32.49
21.45
8.85
-4.08
-16.58
-28.80
-41.45
-54.97
-68.64
-80.24
-86.85
-86.28
-78.39
-65.48
-51.45
-40.14
-33.76
-32.18
-33.42
-34.90
-34.74
-32.37
-28.37
-23.72
-18.91
-13.51
-6.45
3.25
15.53
29.06
41.69
51.39
57.23
59.66
60.01
59.47
58.46
56.56
53.27
48.79
44.24
41.15
40.42
41.56
42.90
42.45
39.11
33.25
26.38
20.16
15.46
12.06
8.98
5.26
0.50
-5.11
-11.05
-16.95
-22.60
-27.86
-32.41
-35.71
-37.09
-36.08
-32.55
-26.81
-19.55
-11.66
-4.15
2.12
6.58
9.08
9.94
9.82
9.50
9.60
10.43
11.99
13.98
16.11
18.17
20.11
21.90
23.42
24.43
24.74
24.29
23.35
22.39
21.88
21.98
22.49
22.96
22.93
22.16
20.71
18.92
17.19
15.72
14.48
13.06
10.80
6.95
1.01
-6.95
-16.03
-24.55
-30.57
-32.64
-30.39
-24.73
-17.44
-10.36
-4.71
-0.71
2.13
4.48
6.75
8.94
10.82
12.28
13.43
14.50
15.62
16.64
17.22
17.07
16.14
14.68
13.11
11.88
11.29
11.45
12.19
13.16
13.84
13.73
12.48
10.05
6.69
2.87
-0.86
-4.01
-6.23
-7.40
-7.78
-7.95
-8.69
-10.60
-13.66
-17.10
-19.53
-19.54
-16.39
-10.26
-2.06
7.17
16.78
26.55
36.22
45.01
51.52
54.28
52.65
47.35
40.24
33.48
28.50
25.54
23.86
22.49
20.96
19.37
18.18
17.58
17.26
16.44
14.49
11.18
6.96
2.59
-1.27
-4.40
-7.04
-9.67
-12.63
-15.99
-19.49
-22.79
-25.68
-28.24
-30.87
-34.18
-38.74
-44.83
-52.20
-60.03
-67.03
-71.78
-73.20
-70.92
-65.40
-57.66
-48.79
-39.71
-31.02
-23.29
-17.25
-13.80
-13.56
-16.19
-20.18
-23.14
-22.86
-18.35
-10.32
-0.91
7.57
13.62
17.21
19.22
20.65
21.84
22.29
21.28
18.56
14.78
11.22
9.12
8.91
9.96
10.94
10.44
7.80
3.25
-2.02
-6.56
-9.09
-8.92
-6.11
-1.27
4.67
10.83
16.49
21.32
25.18
28.10
30.16
31.39
31.77
31.33
30.20
28.60
26.81
24.99
23.13
21.00
18.37
15.22
11.80
8.64
6.24
4.87
4.43
4.53
4.64
4.33
3.39
1.82
-0.16
-2.32
-4.47
-6.47
-8.29
-9.84
-11.04
-11.88
-12.45
-13.01
-13.89
-15.25
-16.97
-18.56
-19.43
-19.08
-17.35
-14.49
-10.93
-7.17
-3.56
-0.26
2.59
4.86
6.37
7.01
6.78
5.86
4.53
3.05
1.62
0.31
-0.87
-1.88
-2.66
-3.11
-3.17
-2.88
-2.41
-1.99
-1.85
-2.14
-2.93
-4.18
-5.75
-7.48
-9.16
-10.63
-11.78
-12.60
-13.13
-13.52
-13.96
-14.64
-15.67
-16.95
-18.15
-18.75
-18.18
-16.18
-12.84
-8.66
-4.34
-0.49
2.53
4.71
6.21
7.17
7.68
7.74
7.38
6.72
5.93
5.19
4.57
4.05
3.58
3.14
2.77
2.49
2.27
2.03
1.60
0.87
-0.25
-1.70
-3.37
-5.07
-6.64
-7.96
-8.98
-9.78
-10.45
-11.09
-11.78
-12.58
-13.50
-14.49
-15.44
-16.05
-15.92
-14.69
-12.15
-8.44
-4.04
0.35
4.06
6.64
8.05
8.52
8.43
8.10
7.69
7.17
6.44
5.47
4.33
3.22
2.38
1.95
1.99
2.38
2.96
3.49
3.81
3.78
3.33
2.51
1.41
0.21
-0.96
-2.02
-3.00
-3.96
-4.98
-6.04
-7.10
-8.09
-8.99
-9.79
-10.47
-10.87
-10.76
-9.84
-7.93
-5.07
-1.56
2.15
5.54
8.18
9.76
10.11
9.17
6.94
3.57
-0.62
-5.05
-8.97
-11.61
-12.44
-11.33
-8.67
-5.24
-1.92
0.55
1.73
1.56
0.22
-2.04
-4.92
-8.17
-11.50
-14.58
-17.13
-18.95
-20.07
-20.69
-21.18
-21.89
-23.03
-24.64
-26.48
-28.21
-29.40
-29.73
-29.06
-27.53
-25.51
-23.43
-21.65
-20.26
-19.21
-18.37
-17.72
-17.39
-17.56
-18.30
-19.38
-20.29
-20.33
-18.79
-15.18
-9.31
-1.42
7.83
17.41
26.16
32.96
37.01
37.94
35.95
31.80
26.63
21.72
17.98
15.70
14.43
13.26
11.22
7.68
2.42
-4.55
-13.23
-23.68
-35.83
-49.19
-62.68
-74.88
-84.54
-90.98
-94.06
-93.78
-89.83
-81.47
-67.96
-49.18
-26.08
-0.63
24.73
47.83
67.18
81.98
91.97
97.30
98.66
97.55
96.19
96.95
101.33
109.02
117.79
124.35
125.99
121.90
113.22
101.96
89.28
74.59
55.92
31.57
1.72
-31.04
-62.44
-88.18
-105.42
-113.28
-112.48
-104.49
-90.93
-73.41
-53.75
-33.99
-16.18
-1.94
7.73
12.52
12.72
9.21
3.30
-3.62
-10.43
-16.51
-21.55
-25.12
-26.59
-25.35
-21.43
-15.75
-9.81
-4.90
-1.51
0.74
2.43
3.66
3.89
2.45
-0.54
-3.78
-5.33
-3.87
0.30
5.17
8.02
6.80
1.03
-8.29
-19.45
-30.92
-41.86
-51.93
-60.91
-68.20
-72.65
-72.88
-67.88
-57.52
-42.85
-25.95
-9.27
5.02
15.62
22.27
25.46
26.02
24.64
21.77
17.76
13.22
9.06
6.17
4.92
4.72
3.98
0.70
-6.49
-17.56
-30.71
-42.99
-51.39
-54.00
-50.70
-42.93
-32.96
-23.00
-14.59
-8.54
-5.14
-4.42
-6.15
-9.77
-14.29
-18.44
-21.02
-21.33
-19.26
-15.26
-9.91
-3.65
3.38
11.17
19.66
28.60
37.60
46.27
54.29
61.41
67.38
72.01
75.22
77.13
78.13
78.78
79.61
80.93
82.65
84.31
85.13
84.34
81.40
76.23
69.25
61.20
52.87
44.70
36.64
28.10
18.30
6.60
-7.05
-21.95
-36.56
-48.82
-56.67
-58.70
-54.66
-45.55
-33.33
-20.13
-7.60
3.52
13.25
21.93
29.63
35.95
40.26
42.14
41.83
40.15
38.16
36.61
35.73
35.24
34.76
34.04
32.95
31.19
28.22
23.52
17.17
10.23
4.52
1.67
2.16
4.86
7.65
8.73
7.57
5.15
3.03
2.21
2.41
2.32
0.62
-2.99
-7.50
-11.09
-12.17
-10.21
-5.90
-0.77
3.59
6.23
7.10
6.97
6.87
7.52
8.93
10.37
10.70
8.88
4.38
-2.60
-11.29
-20.55
-29.23
-36.23
-40.67
-41.97
-40.00
-35.25
-28.84
-22.36
-17.47
-15.48
-16.97
-21.60
-28.27
-35.51
-41.86
-46.48
-49.25
-50.61
-51.21
-51.44
-51.18
-49.90
-46.98
-42.06
-35.33
-27.33
-18.88
-10.63
-3.01
3.85
10.02
15.67
21.01
26.18
31.17
35.77
39.60
42.28
43.53
43.38
42.05
39.84
36.92
33.40
29.36
25.06
20.93
17.42
14.75
12.70
10.59
7.55
2.89
-3.60
-11.58
-20.27
-28.84
-36.60
-43.23
-48.54
-52.42
-54.69
-55.14
-53.72
-50.61
-46.27
-41.20
-35.80
-30.20
-24.31
-17.96
-11.10
-3.80
3.74
11.28
18.58
25.42
31.51
36.53
40.11
41.96
41.89
39.93
36.40
31.85
26.90
21.99
17.22
12.25
6.62
0.04
-7.28
-14.66
-21.17
-26.01
-28.68
-29.03
-27.09
-23.01
-17.08
-9.83
-2.09
5.12
10.95
14.98
17.28
18.24
18.28
17.60
16.27
14.38
12.29
10.61
9.97
10.74
12.82
15.68
18.63
20.98
22.17
21.73
19.25
14.45
7.47
-0.96
-9.48
-16.50
-20.73
-21.66
-19.74
-16.15
-12.17
-8.71
-6.00
-3.68
-1.17
1.94
5.73
9.92
14.15
18.17
21.97
25.68
29.37
32.98
36.21
38.69
40.12
40.26
38.96
36.04
31.34
24.87
16.98
8.52
0.71
-5.17
-8.13
-7.82
-4.60
0.57
6.34
11.36
14.66
15.83
15.01
12.85
10.09
7.33
4.92
2.98
1.56
0.73
0.57
1.10
2.11
3.22
4.00
4.18
3.77
3.00
2.18
1.50
0.91
0.17
-1.02
-2.91
-5.56
-8.75
-12.13
-15.27
-17.90
-19.95
-21.63
-23.30
-25.36
-28.09
-31.59
-35.76
-40.32
-44.84
-48.74
-51.40
-52.17
-50.67
-46.87
-41.16
-34.29
-27.07
-20.13
-13.78
-8.04
-2.81
1.95
6.06
9.26
11.33
12.24
12.21
11.65
11.00
10.58
10.55
10.87
11.36
11.76
11.87
11.59
10.98
10.18
9.32
8.41
7.30
5.78
3.64
0.85
-2.44
-5.93
-9.28
-12.26
-14.77
-16.88
-18.76
-20.75
-23.23
-26.45
-30.43
-34.80
-38.80
-41.50
-42.08
-40.11
-35.70
-29.40
-21.99
-14.26
-6.77
0.10
6.15
11.28
15.42
18.49
20.43
21.29
21.22
20.52
19.64
18.94
18.64
18.68
18.79
18.67
18.19
17.46
16.77
16.37
16.31
16.29
15.89
14.68
12.53
9.62
6.32
3.00
-0.13
-3.09
-6.05
-9.18
-12.58
-16.29
-20.31
-24.60
-29.04
-33.33
-36.95
-39.22
-39.57
-37.70
-33.71
-28.08
-21.56
-14.89
-8.64
-3.21
1.27
4.83
7.55
9.52
10.80
11.49
11.78
11.89
12.11
12.65
13.56
14.80
16.26
17.90
19.82
22.14
24.85
27.68
30.20
31.96
32.73
32.63
32.08
31.54
31.35
31.64
32.33
33.26
34.33
35.45
36.52
37.29
37.37
36.38
34.17
31.09
28.02
26.25
26.98
30.95
38.09
47.60
58.26
68.87
78.42
86.19
91.66
94.49
94.69
92.83
90.07
87.69
86.24
84.82
80.97
71.43
53.44
26.05
-9.29
-49.10
-89.08
-125.40
-155.66
-178.94
-195.34
-205.42
-209.75
-209.01
-204.01
-195.83
-185.63
-174.45
-163.15
-152.64
-143.88
-137.81
-135.03
-135.43
-138.04
-141.23
-143.23
-142.68
-139.06
-132.78
-125.05
-117.45
-111.27
-106.72
-102.39
-95.44
-82.69
-62.39
-35.52
-5.91
21.26
41.78
54.14
59.88
62.21
64.01
66.52
69.33
71.45
72.63
73.83
76.63
82.11
89.94
98.28
104.52
106.48
103.30
95.64
85.26
74.23
64.06
55.23
47.26
39.12
30.02
19.93
9.72
0.85
-5.18
-7.40
-5.60
-0.26
7.66
16.87
25.95
33.57
38.76
41.27
41.74
41.48
42.00
44.31
48.42
53.40
57.86
60.64
61.30
60.19
58.12
55.91
54.05
52.54
51.22
49.91
48.72
47.99
48.08
49.09
50.61
51.70
51.26
48.46
43.19
36.17
28.67
21.88
16.35
11.73
7.02
1.25
-5.83
-13.53
-20.42
-24.99
-26.36
-24.63
-20.75
-16.04
-11.69
-8.46
-6.53
-5.63
-5.29
-5.01
-4.47
-3.73
-3.16
-3.23
-4.28
-6.23
-8.58
-10.66
-12.00
-12.51
-12.47
-12.33
-12.38
-12.62
-12.92
-13.11
-13.22
-13.45
-14.11
-15.50
-17.78
-21.06
-25.30
-30.35
-35.94
-41.74
-47.48
-52.96
-58.07
-62.64
-66.38
-68.77
-69.31
-67.62
-63.66
-57.75
-50.42
-42.18
-33.34
-23.96
-14.01
-3.62
6.72
16.08
23.22
27.04
26.84
22.62
14.95
4.84
-6.47
-17.61
-27.02
-32.96
-33.97
-29.50
-20.59
-10.05
-1.75
0.80
-4.00
-14.97
-28.57
-40.36
-46.89
-47.06
-42.34
-35.86
-30.88
-29.47
-31.78
-36.05
-39.39
-38.80
-32.19
-19.26
-1.69
17.24
33.79
45.06
49.96
49.29
45.16
39.87
35.13
31.77
30.03
29.94
31.43
34.33
38.19
42.48
46.87
51.46
56.82
63.48
71.49
80.14
88.14
94.19
97.51
98.08
96.41
93.36
89.65
85.72
81.70
77.43
72.44
66.06
57.55
46.41
32.73
17.34
1.77
-12.15
-22.81
-29.23
-31.30
-29.78
-25.87
-20.90
-15.96
-11.71
-8.35
-5.76
-3.73
-2.03
-0.60
0.51
1.22
1.53
1.55
1.47
1.47
1.60
1.88
2.42
3.54
5.78
9.67
15.45
22.78
30.76
38.20
43.98
47.38
48.20
46.69
43.25
38.24
31.93
24.48
16.09
7.10
-1.98
-10.53
-17.88
-23.46
-26.90
-28.17
-27.46
-25.21
-21.92
-18.04
-13.94
-9.87
-6.02
-2.55
0.36
2.61
4.19
5.18
5.77
6.18
6.57
6.98
7.37
7.62
7.62
7.32
6.79
6.15
5.58
5.18
4.91
4.54
3.69
2.06
-0.49
-3.80
-7.48
-11.02
-14.06
-16.46
-18.39
-20.20
-22.38
-25.37
-29.41
-34.41
-39.88
-44.93
-48.54
-49.85
-48.55
-44.99
-40.01
-34.65
-29.65
-25.27
-21.35
-17.55
-13.71
-10.00
-6.86
-4.78
-4.15
-5.12
-7.46
-10.59
-13.48
-14.83
-13.43
-8.61
-0.63
9.26
19.30
27.84
33.98
37.78
40.01
41.61
43.22
44.96
46.57
47.68
48.01
47.40
45.81
43.25
39.78
35.46
30.41
24.72
18.49
11.88
5.14
-1.34
-7.19
-12.14
-16.18
-19.55
-22.50
-25.10
-27.06
-27.77
-26.57
-23.11
-17.60
-10.73
-3.47
3.28
8.97
13.46
16.90
19.43
20.98
21.23
19.74
16.24
11.00
4.82
-1.06
-5.46
-7.60
-7.39
-5.34
-2.37
0.53
2.53
3.01
1.70
-1.40
-5.92
-11.24
-16.57
-21.17
-24.54
-26.51
-27.20
-27.04
-26.69
-26.91
-28.33
-31.12
-34.80
-38.30
-40.34
-40.02
-37.14
-32.23
-26.26
-20.15
-14.44
-9.25
-4.46
0.05
4.26
8.02
11.04
13.08
13.96
13.67
12.45
10.73
9.07
7.87
7.29
7.19
7.23
7.10
6.65
5.82
4.68
3.26
1.62
-0.19
-2.09
-3.93
-5.60
-7.05
-8.30
-9.39
-10.29
-10.95
-11.35
-11.48
-11.46
-11.46
-11.69
-12.26
-13.16
-14.20
-15.03
-15.18
-14.20
-11.81
-8.06
-3.32
1.76
6.54
10.48
13.34
15.11
15.94
15.98
15.35
14.13
12.43
10.44
8.42
6.66
5.40
4.79
4.78
5.25
5.98
6.70
7.19
7.24
6.78
5.89
4.76
3.69
2.93
2.56
2.42
2.23
1.63
0.41
-1.46
-3.83
-6.37
-8.78
-10.83
-12.45
-13.71
-14.85
-16.20
-18.05
-20.48
-23.24
-25.79
-27.42
-27.63
-26.21
-23.40
-19.74
-15.79
-12.01
-8.63
-5.75
-3.37
-1.47
-0.04
0.97
1.64
2.08
2.38
2.61
2.79
2.94
3.13
3.42
3.85
4.43
5.10
5.74
6.21
6.34
6.03
5.25
4.06
2.53
0.75
-1.24
-3.46
-5.94
-8.61
-11.33
-13.93
-16.22
-18.14
-19.78
-21.33
-23.08
-25.31
-28.22
-31.83
-35.90
-39.85
-42.88
-44.15
-43.05
-39.49
-33.90
-27.19
-20.41
-14.44
-9.80
-6.52
-4.31
-2.73
-1.45
-0.30
0.68
1.37
1.67
1.59
1.29
0.93
0.68
0.62
0.76
1.08
1.48
1.79
1.80
1.36
0.44
-0.84
-2.38
-4.13
-6.16
-8.54
-11.08
-13.21
-14.03
-12.70
-8.90
-3.05
3.66
9.73
13.75
14.92
13.15
9.04
3.67
-1.58
-5.34
-6.55
-4.71
-0.02
6.64
13.90
20.25
24.42
25.61
23.87
20.06
15.56
11.77
9.47
8.52
8.02
7.02
5.14
2.94
1.62
2.27
5.20
9.66
14.21
17.39
18.42
17.37
14.99
12.16
9.59
7.57
6.13
5.17
4.60
4.34
4.21
3.84
2.67
0.12
-4.18
-10.10
-16.96
-23.72
-29.43
-33.75
-37.12
-40.67
-45.60
-52.29
-59.67
-65.23
-65.89
-59.38
-45.46
-26.27
-5.54
12.87
26.40
34.44
38.02
38.76
37.96
36.03
32.62
27.24
19.93
11.58
3.82
-1.56
-3.35
-1.26
3.92
10.70
17.52
23.22
27.16
29.05
28.66
25.84
20.68
13.82
6.53
0.24
-4.05
-6.23
-7.05
-7.53
-8.42
-9.80
-11.29
-12.32
-12.59
-12.14
-11.35
-10.70
-10.63
-11.55
-13.74
-17.24
-21.58
-25.61
-27.78
-26.68
-21.79
-13.92
-4.94
3.05
8.74
12.09
14.08
15.84
17.77
19.29
19.28
17.01
12.69
7.46
2.74
-0.62
-2.69
-4.32
-6.48
-9.63
-13.53
-17.32
-19.95
-20.50
-18.54
-14.17
-8.01
-1.03
5.64
10.98
14.31
15.39
14.35
11.47
7.06
1.32
-5.54
-13.19
-21.17
-28.85
-35.53
-40.52
-43.22
-43.21
-40.39
-35.03
-27.78
-19.49
-10.92
-2.55
5.50
13.38
21.23
28.99
36.28
42.61
47.53
50.95
53.12
54.50
55.54
56.46
57.24
57.71
57.80
57.65
57.61
58.06
59.10
60.43
61.33
60.94
58.63
54.26
48.23
41.26
34.10
27.18
20.54
13.93
7.00
-0.45
-8.41
-16.60
-24.50
-31.47
-36.78
-39.84
-40.25
-38.04
-33.61
-27.69
-21.14
-14.70
-8.86
-3.88
0.17
3.35
5.72
7.45
8.72
9.69
10.46
10.98
11.17
10.96
10.46
9.89
9.55
9.60
10.01
10.58
11.00
10.99
10.41
9.23
7.47
5.17
2.39
-0.79
-4.24
-7.86
-11.59
-15.48
-19.67
-24.33
-29.44
-34.76
-39.75
-43.65
-45.69
-45.33
-42.38
-37.17
-30.39
-22.92
-15.56
-8.85
-2.96
2.15
6.62
10.55
13.87
16.43
18.14
18.97
19.06
18.62
17.89
17.13
16.54
16.21
16.16
16.26
16.33
16.13
15.50
14.37
12.79
10.85
8.64
6.26
3.81
1.38
-0.94
-3.14
-5.40
-8.05
-11.55
-16.18
-21.84
-27.86
-33.18
-36.58
-37.13
-34.56
-29.28
-22.26
-14.63
-7.32
-0.83
4.79
9.70
14.08
17.97
21.28
23.89
25.76
26.96
27.68
28.10
28.37
28.54
28.63
28.60
28.43
28.09
27.57
26.86
25.93
24.69
22.98
20.66
17.67
14.15
10.40
6.81
3.67
0.99
-1.51
-4.30
-7.81
-12.26
-17.51
-23.13
-28.49
-32.88
-35.63
-36.22
-34.40
-30.25
-24.24
-17.16
-9.90
-3.21
2.44
6.97
10.55
13.42
15.75
17.56
18.84
19.61
19.99
20.19
20.39
20.60
20.75
20.69
20.36
19.84
19.28
18.82
18.45
18.00
17.20
15.85
13.87
11.36
8.54
5.68
2.96
0.43
-1.99
-4.51
-7.38
-10.80
-14.80
-19.10
-23.12
-26.18
-27.59
-26.99
-24.45
-20.43
-15.62
-10.72
-6.17
-2.16
1.36
4.48
7.24
9.59
11.49
12.91
13.96
14.81
15.60
16.42
17.21
17.89
18.35
18.60
18.69
18.68
18.60
18.37
17.86
16.90
15.36
13.23
10.65
7.88
5.19
2.81
0.80
-0.95
-2.70
-4.78
-7.48
-10.92
-14.94
-19.16
-22.95
-25.66
-26.75
-25.98
-23.43
-19.49
-14.75
-9.84
-5.27
-1.37
1.78
4.25
6.23
7.88
9.26
10.35
11.05
11.35
11.33
11.18
11.12
11.29
11.66
12.09
12.37
12.38
12.05
11.46
10.66
9.71
8.61
7.26
5.63
3.69
1.55
-0.62
-2.64
-4.43
-6.05
-7.73
-9.76
-12.34
-15.50
-18.93
-22.11
-24.40
-25.23
-24.31
-21.69
-17.76
-13.10
-8.30
-3.85
-0.03
3.07
5.51
7.41
8.84
9.89
10.59
11.01
11.24
11.34
11.33
11.18
10.81
10.18
9.34
8.44
7.65
7.08
6.71
6.38
5.91
5.14
4.07
2.76
1.36
-0.05
-1.41
-2.73
-4.09
-5.57
-7.31
-9.46
-12.16
-15.43
-19.03
-22.51
-25.22
-26.55
-26.12
-23.92
-20.30
-15.83
-11.12
-6.63
-2.58
0.95
4.01
6.60
8.68
10.15
10.92
11.00
10.49
9.61
8.63
7.80
7.24
6.96
6.82
6.64
6.31
5.74
4.98
4.05
2.97
1.73
0.27
-1.45
-3.42
-5.55
-7.74
-9.88
-11.86
-13.66
-15.29
-16.84
-18.41
-20.08
-21.80
-23.36
-24.43
-24.63
-23.68
-21.51
-18.33
-14.52
-10.56
-6.81
-3.49
-0.68
1.64
3.51
4.94
5.94
6.51
6.68
6.49
5.99
5.22
4.23
3.10
1.95
0.99
0.45
0.55
1.38
2.86
4.67
6.35
7.41
7.49
6.43
4.33
1.49
-1.66
-4.70
-7.30
-9.31
-10.83
-12.12
-13.58
-15.57
-18.25
-21.44
-24.66
-27.21
-28.41
-27.82
-25.40
-21.46
-16.59
-11.44
-6.46
-1.90
2.21
5.91
9.23
12.05
14.21
15.56
16.05
15.79
14.97
13.79
12.43
10.98
9.54
8.15
6.91
5.86
5.02
4.35
3.78
3.17
2.39
1.28
-0.25
-2.19
-4.37
-6.57
-8.57
-10.30
-11.93
-13.80
-16.33
-19.79
-24.17
-29.16
-34.15
-38.47
-41.51
-42.91
-42.60
-40.87
-38.11
-34.83
-31.38
-27.93
-24.47
-20.93
-17.29
-13.71
-10.49
-7.95
-6.33
-5.69
-5.87
-6.57
-7.48
-8.27
-8.68
-8.51
-7.64
-6.04
-3.82
-1.18
1.61
4.24
6.47
8.07
8.92
9.00
8.36
7.24
5.89
4.55
3.32
2.15
0.83
-0.87
-3.10
-5.87
-8.98
-12.10
-14.82
-16.77
-17.68
-17.47
-16.19
-14.00
-11.10
-7.58
-3.45
1.33
6.78
12.71
18.65
23.94
27.96
30.32
31.09
30.75
30.01
29.56
29.76
30.62
31.84
33.04
33.92
34.39
34.50
34.37
34.08
33.63
33.01
32.24
31.43
30.74
30.33
30.24
30.28
30.09
29.22
27.27
23.98
19.36
13.59
7.04
0.21
-6.33
-11.95
-16.07
-18.22
-18.21
-16.23
-12.81
-8.66
-4.52
-0.91
1.90
3.89
5.11
5.64
5.55
4.91
3.85
2.59
1.33
0.22
-0.65
-1.29
-1.74
-2.05
-2.30
-2.61
-3.10
-3.92
-5.11
-6.65
-8.37
-10.11
-11.71
-13.06
-14.17
-15.11
-16.05
-17.25
-19.02
-21.62
-25.11
-29.27
-33.52
-36.99
-38.77
-38.16
-34.92
-29.34
-22.18
-14.40
-6.91
-0.35
4.96
9.01
11.95
13.98
15.23
15.81
15.79
15.30
14.52
13.62
12.71
11.86
11.08
10.35
9.70
9.19
8.86
8.72
8.65
8.46
7.85
6.62
4.64
1.96
-1.25
-4.76
-8.34
-11.85
-15.27
-18.66
-22.18
-26.01
-30.35
-35.21
-40.37
-45.23
-48.94
-50.56
-49.47
-45.57
-39.39
-31.84
-23.93
-16.38
-9.53
-3.40
2.07
6.91
11.04
14.35
16.86
18.75
20.31
21.80
23.36
24.96
26.43
27.57
28.23
28.37
28.04
27.37
26.42
25.18
23.56
21.39
18.51
14.91
10.70
6.15
1.56
-2.83
-6.93
-10.83
-14.76
-18.95
-23.58
-28.59
-33.60
-37.99
-40.99
-41.89
-40.29
-36.27
-30.34
-23.30
-15.98
-8.94
-2.45
3.54
9.12
14.27
18.83
22.54
25.21
26.86
27.72
28.15
28.47
28.81
29.13
29.29
29.16
28.73
28.05
27.18
26.07
24.53
22.31
19.18
15.12
10.33
5.12
-0.21
-5.51
-10.83
-16.17
-21.38
-26.03
-29.48
-31.07
-30.42
-27.43
-22.26
-15.23
-6.70
2.86
12.82
22.42
30.90
37.74
42.85
46.59
49.53
52.24
55.02
57.89
60.64
63.02
64.73
65.52
65.17
63.52
60.50
56.11
50.39
43.40
35.36
26.71
18.27
11.10
6.11
3.52
2.41
0.70
-4.21
-14.20
-29.56
-48.60
-68.39
-85.96
-99.48
-108.61
-114.01
-116.43
-115.95
-112.01
-104.02
-92.21
-77.91
-63.24
-50.12
-39.43
-30.84
-23.26
-15.79
-8.31
-1.54
3.52
6.32
7.23
7.41
8.13
10.16
13.42
17.19
20.69
23.45
25.50
27.07
28.38
29.43
30.11
30.35
30.22
29.84
29.28
28.45
27.15
25.15
22.25
18.32
13.28
7.24
0.54
-6.26
-12.34
-16.93
-19.41
-19.45
-16.97
-12.09
-5.18
3.11
11.82
19.84
26.17
30.24
32.04
32.16
31.44
30.69
30.39
30.59
31.08
31.64
32.22
33.03
34.29
36.03
37.89
39.32
39.72
38.81
36.61
33.32
29.01
23.55
16.87
9.40
2.21
-3.22
-5.62
-4.60
-0.94
3.65
7.20
8.22
6.15
1.51
-4.49
-10.32
-14.50
-15.86
-13.75
-8.12
0.29
10.14
19.72
27.50
32.64
35.22
35.98
35.69
34.41
31.29
24.96
14.48
0.14
-16.31
-32.29
-45.46
-54.55
-59.64
-61.68
-61.76
-60.51
-57.99
-54.05
-48.86
-43.15
-38.06
-34.66
-33.35
-33.54
-33.81
-32.61
-29.13
-23.91
-18.73
-15.80
-16.55
-20.77
-26.55
-31.13
-32.23
-28.99
-22.09
-13.10
-3.47
6.17
15.94
26.26
37.07
47.68
56.92
63.71
67.60
68.95
68.61
67.50
66.23
65.01
63.83
62.74
61.90
61.52
61.61
61.85
61.63
60.25
57.20
52.20
45.14
36.01
24.89
11.97
-2.19
-16.60
-30.05
-41.40
-50.11
-56.40
-61.04
-64.88
-68.43
-71.68
-74.21
-75.62
-75.59
-74.05
-70.96
-66.24
-59.90
-52.21
-43.86
-35.80
-28.99
-23.96
-20.60
-18.29
-16.22
-13.83
-11.04
-8.22
-5.95
-4.73
-4.66
-5.43
-6.43
-6.97
-6.73
-5.88
-5.10
-5.18
-6.65
-9.33
-12.41
-14.84
-15.91
-15.75
-15.35
-16.10
-19.11
-24.64
-31.94
-39.65
-46.43
-51.43
-54.47
-55.78
-55.73
-54.76
-53.54
-53.07
-54.40
-57.79
-61.83
-63.25
-57.82
-42.11
-15.35
19.83
58.12
93.52
121.45
139.98
149.66
152.31
149.83
143.48
134.20
123.18
112.17
103.12
97.19
93.88
90.91
85.06
73.60
55.78
33.46
10.63
-8.07
-19.06
-21.08
-15.59
-6.22
2.43
6.17
2.41
-9.21
-26.79
-46.81
-65.13
-78.22
-83.97
-81.99
-73.33
-59.94
-44.14
-28.28
-14.60
-4.93
-0.45
-1.30
-6.60
-14.60
-23.26
-30.84
-36.20
-38.79
-38.29
-34.18
-25.82
-12.91
3.67
21.53
37.15
47.11
49.47
44.73
35.42
24.97
16.01
9.49
4.80
0.80
-3.04
-6.09
-7.08
-5.09
-0.56
4.70
8.26
8.41
5.04
-0.11
-4.40
-5.55
-2.74
3.03
9.51
14.39
16.47
16.36
16.24
18.83
26.08
38.10
52.96
67.53
78.72
84.77
85.75
83.21
79.14
74.93
71.00
67.08
62.82
58.14
53.06
47.29
40.03
30.38
18.22
4.91
-6.77
-13.64
-13.54
-6.51
4.97
16.87
25.16
27.29
23.06
14.40
4.47
-3.71
-8.20
-8.57
-5.58
-0.54
5.21
10.52
14.43
16.07
14.69
10.01
2.31
-7.40
-17.72
-27.35
-35.52
-42.14
-47.54
-52.10
-55.83
-58.27
-58.66
-56.43
-51.53
-44.65
-37.01
-29.84
-23.85
-18.90
-14.19
-8.94
-2.97
2.92
7.19
8.28
5.40
-1.10
-9.84
-19.15
-27.76
-35.15
-41.51
-47.25
-52.58
-57.25
-60.65
-62.12
-61.34
-58.61
-54.86
-51.47
-49.83
-50.88
-54.66
-60.24
-65.90
-69.81
-70.64
-68.06
-62.78
-56.19
-49.78
-44.69
-41.40
-39.76
-39.18
-38.87
-37.99
-35.84
-31.94
-26.23
-19.16
-11.74
-5.28
-1.08
-0.01
-2.25
-7.17
-13.58
-20.08
-25.51
-29.25
-31.27
-31.91
-31.68
-31.00
-30.17
-29.35
-28.60
-27.92
-27.25
-26.50
-25.45
-23.88
-21.62
-18.55
-14.72
-10.28
-5.38
-0.11
5.51
11.45
17.51
23.27
28.13
31.48
32.92
32.43
30.32
27.21
23.74
20.45
17.64
15.39
13.57
12.00
10.46
8.74
6.68
4.14
0.99
-2.91
-7.69
-13.43
-19.89
-26.50
-32.37
-36.45
-37.93
-36.52
-32.58
-27.00
-20.78
-14.63
-8.82
-3.14
2.65
8.61
14.37
19.32
22.86
24.76
25.27
24.98
24.55
24.36
24.49
24.76
24.96
24.95
24.77
24.43
23.89
22.99
21.54
19.40
16.58
13.20
9.45
5.54
1.57
-2.41
-6.46
-10.76
-15.50
-20.78
-26.44
-31.88
-36.26
-38.62
-38.27
-35.04
-29.37
-22.13
-14.28
-6.59
0.54
7.05
13.03
18.52
23.39
27.31
29.99
31.35
31.60
31.18
30.60
30.17
29.93
29.73
29.30
28.53
27.42
26.13
24.75
23.22
21.36
18.98
16.00
12.47
8.58
4.51
0.37
-3.85
-8.23
-12.95
-18.12
-23.72
-29.48
-34.85
-39.11
-41.49
-41.48
-38.98
-34.31
-28.10
-21.04
-13.66
-6.36
0.61
6.99
12.51
16.96
20.25
22.44
23.64
23.99
23.56
22.45
20.86
19.17
17.81
17.07
16.87
16.78
16.15
14.48
11.62
7.85
3.76
-0.01
-2.90
-4.54
-4.72
-3.46
-1.17
1.25
2.62
1.83
-1.62
-7.16
-13.39
-18.51
-21.14
-20.67
-17.50
-12.54
-6.82
-1.11
4.18
8.83
12.63
15.40
16.99
17.43
16.88
15.58
13.72
11.31
8.03
3.29
-3.54
-12.79
-24.14
-36.58
-48.60
-58.79
-66.30
-71.18
-74.23
-76.59
-79.18
-82.23
-85.08
-86.34
-84.38
-77.77
-65.77
-48.45
-26.56
-1.28
26.03
53.86
80.43
103.73
121.86
133.59
138.89
139.08
136.39
133.13
131.03
130.80
132.34
135.24
138.98
143.02
146.57
148.38
146.86
140.62
129.06
112.76
93.43
73.35
54.61
38.56
25.56
15.32
7.36
1.29
-3.06
-5.90
-7.69
-9.25
-11.53
-15.31
-20.86
-27.91
-35.85
-43.93
-51.51
-58.16
-63.52
-67.23
-68.83
-67.92
-64.25
-58.01
-49.86
-40.78
-31.78
-23.62
-16.57
-10.48
-4.95
0.43
5.86
11.29
16.37
20.67
23.79
25.57
26.18
26.10
25.91
26.11
26.86
28.00
29.14
29.83
29.77
28.87
27.17
24.78
21.83
18.45
14.73
10.68
6.15
0.79
-5.76
-13.66
-22.52
-31.37
-38.81
-43.47
-44.56
-42.17
-37.29
-31.39
-26.00
-22.19
-20.39
-20.42
-21.55
-22.84
-23.42
-22.80
-21.11
-18.89
-16.75
-15.02
-13.57
-12.07
-10.40
-8.96
-8.55
-10.04
-13.77
-19.41
-25.93
-31.85
-35.41
-34.85
-28.69
-16.36
1.24
21.48
40.48
54.30
60.21
57.60
47.94
34.00
18.80
4.88
-6.08
-13.17
-16.22
-15.82
-13.23
-10.10
-7.97
-7.71
-9.27
-11.82
-14.20
-15.48
-15.32
-14.06
-12.46
-11.32
-11.11
-11.85
-13.17
-14.48
-15.29
-15.36
-14.81
-13.96
-13.25
-13.03
-13.49
-14.70
-16.50
-18.60
-20.57
-21.95
-22.46
-22.16
-21.59
-21.60
-23.03
-26.31
-31.15
-36.52
-41.02
-43.41
-43.10
-40.34
-35.98
-30.94
-25.81
-20.76
-15.73
-10.68
-5.70
-0.90
3.84
8.75
14.07
19.60
24.66
28.28
29.63
28.49
25.37
21.29
17.32
14.25
12.50
12.16
13.18
15.35
18.15
20.87
22.63
22.78
21.09
17.79
13.42
8.49
3.27
-2.29
-8.41
-15.16
-22.23
-28.89
-34.12
-37.03
-37.09
-34.37
-29.36
-22.88
-15.77
-8.86
-2.85
1.75
4.76
6.38
7.26
8.27
10.15
13.24
17.22
21.26
24.28
25.37
24.08
20.54
15.31
9.26
3.30
-1.79
-5.48
-7.59
-8.27
-7.90
-6.98
-5.99
-5.36
-5.45
-6.65
-9.30
-13.60
-19.42
-26.25
-33.21
-39.22
-43.40
-45.20
-44.58
-41.85
-37.58
-32.30
-26.45
-20.31
-14.11
-8.07
-2.41
2.58
6.65
9.67
11.64
12.69
13.09
13.16
13.20
13.48
14.22
15.59
17.72
20.57
23.86
27.13
29.77
31.30
31.48
30.36
28.09
24.70
19.93
13.35
4.65
-5.93
-17.43
-28.27
-36.59
-40.78
-39.94
-34.08
-24.13
-11.66
1.36
13.03
21.85
27.01
28.53
27.16
24.29
21.60
20.79
23.07
28.74
36.88
45.46
51.88
53.90
50.62
42.85
32.81
23.25
16.26
12.44
10.87
9.75
7.37
2.92
-3.28
-10.07
-16.12
-20.50
-23.01
-24.00
-24.04
-23.65
-23.09
-22.50
-22.01
-21.93
-22.63
-24.33
-26.84
-29.52
-31.32
-31.21
-28.54
-23.29
-16.11
-8.01
0.00
7.30
13.69
19.36
24.48
29.06
32.74
34.95
35.20
33.28
29.42
24.30
18.87
14.23
11.31
10.58
11.87
14.33
16.60
17.30
15.55
11.36
5.62
-0.17
-4.44
-6.09
-4.67
-0.54
5.33
11.51
16.44
18.79
17.79
13.54
6.92
-0.69
-7.86
-13.53
-17.19
-18.79
-18.55
-16.72
-13.58
-9.47
-4.88
-0.40
3.43
6.26
8.02
8.86
9.02
8.64
7.78
6.42
4.65
2.68
0.86
-0.51
-1.30
-1.64
-1.80
-2.07
-2.57
-3.26
-3.99
-4.64
-5.18
-5.72
-6.37
-7.26
-8.46
-10.04
-12.10
-14.65
-17.56
-20.47
-22.84
-24.07
-23.73
-21.73
-18.36
-14.16
-9.76
-5.72
-2.39
0.10
1.81
2.86
3.40
3.55
3.39
3.00
2.44
1.81
1.17
0.64
0.31
0.31
0.71
1.52
2.61
3.76
4.65
4.99
4.62
3.57
2.03
0.30
-1.36
-2.80
-3.98
-5.08
-6.38
-8.29
-11.16
-15.07
-19.60
-23.76
-26.08
-25.13
-20.00
-10.78
1.34
14.43
26.40
35.62
41.32
43.57
42.93
40.12
35.75
30.26
24.05
17.56
11.26
5.59
0.77
-3.26
-6.81
-10.32
-14.13
-18.28
-22.56
-26.55
-29.78
-32.01
-33.30
-33.96
-34.45
-35.18
-36.36
-38.04
