1542392296.00
64.000000
-0.00
-0.00
-0.00
-0.00
-0.00
-0.00
-0.00
-0.00
-0.00
-0.00
0.00
0.01
0.01
-0.00
-0.03
-0.05
-0.05
0.00
0.13
0.36
0.66
1.01
1.37
1.72
2.06
2.40
2.79
3.24
3.80
4.42
5.06
5.66
6.20
6.68
7.15
7.68
8.31
9.14
10.09
11.04
11.88
12.56
13.14
13.76
14.65
15.96
17.91
20.32
22.90
25.38
27.58
29.57
31.68
34.32
37.81
42.54
48.15
54.10
59.83
64.97
69.58
74.14
79.34
85.71
93.76
103.00
112.62
121.73
129.77
136.75
143.30
150.75
157.77
166.64
177.95
191.79
206.97
220.57
228.25
225.36
208.53
176.87
132.76
80.05
23.07
-34.94
-92.44
-149.16
-205.23
-260.37
-313.74
-363.87
-409.83
-450.91
-486.50
-515.74
-537.23
-549.22
-549.96
-538.37
-514.21
-478.67
-433.88
-382.45
-327.02
-269.84
-212.63
-156.66
-102.95
-52.37
-5.90
35.58
71.43
101.35
125.50
144.38
158.69
169.15
176.37
180.75
182.57
182.07
179.51
175.23
169.65
163.18
156.15
148.81
141.30
133.69
126.02
118.33
110.69
103.16
95.80
88.68
81.83
75.25
68.95
62.95
57.25
51.86
46.78
42.03
37.59
33.45
29.61
26.07
22.81
19.84
17.14
14.69
12.49
10.50
8.73
7.16
5.79
4.64
3.68
2.89
2.25
1.71
1.24
0.83
0.47
0.17
-0.06
-0.20
-0.29
-0.36
-0.45
-0.59
-0.79
-1.03
-1.23
-1.35
-1.36
-1.30
-1.25
-1.32
-1.56
-1.99
-2.53
-3.03
-3.35
-3.44
-3.34
-3.24
-3.36
-3.86
-4.75
-5.87
-6.93
-7.66
-7.91
-7.79
-7.59
-7.69
-8.38
-9.69
-11.36
-12.98
-14.13
-14.60
-14.48
-14.07
-13.80
-14.10
-15.28
-17.49
-20.57
-23.85
-26.17
-26.01
-22.07
-13.84
-2.05
11.50
24.50
34.98
41.90
45.33
46.06
45.10
43.17
40.64
37.67
34.55
31.69
29.60
28.63
28.74
29.55
30.33
30.34
29.10
26.53
22.96
19.05
15.17
11.51
7.96
4.17
-0.11
-4.94
-10.04
-14.92
-18.99
-21.70
-22.68
-21.78
-19.16
-15.27
-10.81
-6.60
-3.29
-1.27
-0.49
-0.70
-1.54
-2.78
-4.32
-6.08
-7.82
-9.15
-9.59
-8.87
-7.06
-4.63
-2.21
-0.32
0.84
1.42
1.75
2.15
2.76
3.49
4.09
4.40
4.33
4.01
3.76
4.07
5.45
8.29
12.48
17.52
22.48
26.39
28.50
28.63
27.14
24.74
22.14
19.62
17.18
14.67
11.99
9.28
6.85
4.85
3.12
1.88
0.84
-0.33
-1.82
-3.56
-5.30
-6.80
-8.01
-9.13
-10.57
-12.93
-16.67
-21.95
-28.47
-35.41
-41.51
-45.41
-46.03
-42.98
-36.80
-28.71
-20.28
-12.84
-7.19
-3.48
-1.38
-0.33
0.12
0.20
-0.04
-0.59
-1.38
-2.26
-3.04
-3.62
-4.04
-4.44
-5.05
-5.91
-6.90
-7.73
-8.17
-8.21
-8.18
-8.67
-10.26
-13.17
-17.00
-20.69
-22.88
-22.41
-18.77
-12.32
-4.24
4.03
11.20
16.48
19.70
21.10
21.03
19.88
17.89
15.33
12.49
9.72
7.32
5.43
3.98
2.76
1.47
-0.07
-1.86
-3.74
-5.54
-7.26
-9.06
-11.34
-14.49
-18.73
-23.87
-29.32
-34.07
-36.97
-37.07
-33.84
-27.49
-18.90
-9.35
-0.24
7.41
13.05
16.67
18.59
19.22
18.98
18.14
16.97
15.69
14.47
13.43
12.54
11.72
10.83
9.80
8.60
7.26
5.81
4.23
2.46
0.31
-2.44
-6.00
-10.38
-15.32
-20.09
-23.68
-24.99
-23.28
-18.39
-10.98
-2.23
6.48
13.94
19.48
22.88
24.33
24.22
22.98
21.02
18.74
16.47
14.47
12.84
11.53
10.33
9.03
7.47
5.62
3.56
1.46
-0.55
-2.48
-4.52
-7.01
-10.38
-14.87
-20.31
-26.02
-30.85
-33.53
-33.03
-29.04
-22.03
-13.18
-3.94
4.37
10.96
15.55
18.30
19.58
19.72
18.99
17.57
15.66
13.48
11.25
9.12
7.12
5.21
3.33
1.46
-0.34
-1.99
-3.47
-4.90
-6.51
-8.71
-11.85
-16.11
-21.42
-27.21
-32.57
-36.27
-37.18
-34.61
-28.61
-20.01
-10.19
-0.68
7.35
13.26
17.01
18.94
19.50
19.07
17.95
16.35
14.52
12.72
11.13
9.78
8.62
7.50
6.40
5.31
4.36
3.59
2.91
2.04
0.58
-1.89
-5.63
-10.62
-16.46
-22.34
-27.14
-29.66
-28.96
-24.70
-17.30
-7.89
2.03
11.07
18.32
23.47
26.67
28.34
28.80
28.34
27.12
25.34
23.30
21.30
19.61
18.34
17.41
16.66
15.89
14.99
13.95
12.81
11.55
10.00
7.83
4.65
0.21
-5.37
-11.43
-16.86
-20.32
-20.68
-17.38
-10.60
-1.23
9.46
20.12
29.71
37.56
43.42
47.29
49.37
49.94
49.41
48.29
47.17
46.61
46.90
47.90
49.01
49.24
47.58
43.33
36.47
27.61
17.81
8.13
-0.76
-8.78
-16.34
-24.01
-32.06
-40.22
-47.59
-53.03
-55.53
-54.67
-50.76
-44.70
-37.71
-30.81
-24.68
-19.48
-15.16
-11.59
-8.84
-7.12
-6.65
-7.46
-9.29
-11.64
-13.97
-15.94
-17.45
-18.70
-19.91
-21.24
-22.57
-23.69
-24.38
-24.64
-24.77
-25.25
-26.59
-29.14
-32.89
-37.38
-41.69
-44.63
-45.03
-42.09
-35.72
-26.60
-16.00
-5.31
4.29
12.17
18.17
22.40
25.00
26.05
25.61
23.90
21.32
18.48
15.95
14.11
13.06
12.56
12.28
11.86
11.17
10.22
9.20
8.26
7.40
6.36
4.69
1.85
-2.57
-8.55
-15.54
-22.48
-27.95
-30.61
-29.54
-24.64
-16.65
-6.87
3.20
12.35
19.82
25.35
28.93
30.69
30.78
29.41
26.98
24.02
21.15
18.82
17.17
16.02
15.02
13.78
12.13
10.10
7.89
5.72
3.71
1.83
-0.11
-2.41
-5.41
-9.38
-14.43
-20.32
-26.35
-31.46
-34.38
-34.09
-30.26
-23.37
-14.60
-5.38
3.07
10.05
15.31
18.90
20.91
21.37
20.47
18.72
16.94
16.09
16.85
19.26
22.68
26.03
28.25
28.68
27.27
24.46
20.95
17.38
14.08
11.03
7.89
4.14
-0.66
-6.73
-13.81
-21.14
-27.52
-31.62
-32.41
-29.50
-23.36
-15.19
-6.52
1.27
7.33
11.46
13.93
15.15
15.45
14.88
13.46
11.31
8.76
6.27
4.18
2.54
1.07
-0.68
-3.02
-5.97
-9.20
-12.25
-14.74
-16.56
-17.93
-19.24
-20.92
-23.30
-26.51
-30.38
-34.40
-37.70
-39.26
-38.18
-34.04
-27.13
-18.38
-9.09
-0.46
6.73
12.32
16.60
19.99
22.82
25.19
27.05
28.43
29.53
30.68
32.22
34.22
36.39
38.14
38.83
38.04
35.79
32.48
28.75
25.13
21.88
18.89
15.76
12.01
7.25
1.26
-5.88
-13.70
-21.36
-27.71
-31.59
-32.14
-29.19
-23.41
-16.03
-8.52
-2.00
2.96
6.34
8.38
9.27
8.98
7.44
4.74
1.38
-1.84
-4.09
-4.88
-4.38
-3.25
-2.43
-2.63
-4.06
-6.38
-8.96
-11.19
-12.79
-13.91
-15.00
-16.65
-19.28
-23.04
-27.73
-32.72
-37.10
-39.81
-39.96
-37.12
-31.53
-24.08
-15.99
-8.41
-1.99
3.19
7.49
11.31
14.76
17.59
19.38
19.86
19.18
17.91
16.76
16.23
16.34
16.66
16.56
15.57
13.61
11.01
8.27
5.83
3.81
1.99
0.05
-2.41
-5.67
-9.84
-14.80
-20.13
-25.04
-28.51
-29.57
-27.60
-22.66
-15.46
-7.17
1.10
8.52
14.70
19.54
23.03
25.07
25.54
24.44
22.09
19.07
16.10
13.78
12.39
11.79
11.54
11.08
9.97
8.08
5.57
2.85
0.34
-1.71
-3.37
-4.98
-7.00
-9.88
-13.83
-18.81
-24.43
-30.01
-34.61
-37.25
-37.07
-33.71
-27.40
-18.99
-9.73
-0.87
6.68
12.52
16.68
19.38
20.83
21.07
20.16
18.28
15.80
13.28
11.23
9.88
9.09
8.43
7.37
5.60
3.10
0.17
-2.76
-5.33
-7.37
-9.04
-10.68
-12.71
-15.54
-19.38
-24.21
-29.67
-34.99
-39.15
-41.02
-39.79
-35.23
-27.85
-18.75
-9.27
-0.57
6.68
12.27
16.31
18.92
20.12
19.88
18.32
15.87
13.18
10.92
9.49
8.86
8.57
8.09
6.98
5.23
3.14
1.15
-0.41
-1.55
-2.56
-3.90
-6.03
-9.21
-13.49
-18.74
-24.65
-30.63
-35.80
-39.08
-39.43
-36.24
-29.69
-20.73
-10.85
-1.53
6.21
11.95
15.83
18.18
19.32
19.39
18.50
16.88
14.92
13.09
11.74
10.96
10.52
10.02
9.04
7.33
4.90
1.96
-1.14
-4.10
-6.77
-9.21
-11.75
-14.91
-19.24
-25.07
-32.29
-40.12
-47.21
-51.98
-53.13
-50.10
-43.22
-33.62
-22.78
-12.06
-2.38
5.82
12.44
17.41
20.69
22.20
22.06
20.64
18.61
16.74
15.63
15.48
16.04
16.73
16.89
16.17
14.61
12.61
10.66
9.11
7.92
6.73
5.02
2.36
-1.49
-6.54
-12.54
-19.00
-25.09
-29.73
-31.79
-30.40
-25.39
-17.34
-7.45
2.84
12.39
20.54
27.05
31.89
34.98
36.17
35.42
32.97
29.49
25.85
22.92
21.17
20.52
20.42
20.09
18.88
16.54
13.28
9.60
6.06
2.97
0.28
-2.40
-5.60
-9.80
-15.24
-21.86
-29.22
-36.50
-42.57
-46.18
-46.25
-42.27
-34.49
-23.96
-12.19
-0.71
9.35
17.47
23.61
27.90
30.40
31.05
29.88
27.25
23.96
21.05
19.42
19.41
20.60
22.01
22.54
21.51
18.93
15.40
11.77
8.66
6.22
4.06
1.51
-2.10
-7.20
-13.89
-21.89
-30.47
-38.54
-44.71
-47.56
-46.12
-40.24
-30.70
-19.02
-6.89
4.30
13.82
21.49
27.38
31.47
33.61
33.60
31.62
28.29
24.64
21.70
20.14
19.94
20.50
20.91
20.42
18.70
15.98
12.81
9.74
7.06
4.65
2.11
-1.05
-5.25
-10.74
-17.51
-25.25
-33.21
-40.21
-44.74
-45.41
-41.43
-32.98
-21.25
-8.02
4.94
16.39
25.76
33.01
38.23
41.46
42.60
41.71
39.17
35.71
32.24
29.55
27.99
27.39
27.16
26.59
25.14
22.65
19.37
15.79
12.39
9.41
6.77
4.05
0.74
-3.68
-9.49
-16.71
-24.92
-33.29
-40.62
-45.52
-46.80
-43.88
-37.01
-27.23
-16.06
-4.99
4.94
13.22
19.81
24.75
28.06
29.61
29.36
27.54
24.75
21.79
19.41
18.00
17.46
17.32
16.96
15.89
13.99
11.44
8.63
5.88
3.32
0.83
-1.87
-5.06
-8.90
-13.45
-18.65
-24.39
-30.42
-36.20
-40.90
-43.46
-42.92
-38.78
-31.29
-21.48
-10.78
-0.57
8.15
14.99
19.95
23.20
24.88
25.06
23.90
21.76
19.25
16.99
15.48
14.85
14.84
14.97
14.72
13.78
12.12
9.93
7.49
5.04
2.68
0.34
-2.18
-5.16
-8.86
-13.49
-19.04
-25.23
-31.47
-36.81
-40.17
-40.56
-37.49
-31.11
-22.29
-12.28
-2.40
6.39
13.70
19.51
23.99
27.18
28.92
28.99
27.37
24.46
21.10
18.23
16.61
16.44
17.30
18.34
18.69
17.87
15.89
13.27
10.62
8.33
6.39
4.49
2.21
-0.68
-4.23
-8.32
-12.82
-17.55
-22.13
-25.86
-27.74
-26.76
-22.44
-15.06
-5.74
4.00
12.78
19.75
24.69
27.77
29.21
29.12
27.57
24.73
21.05
17.16
13.70
11.09
9.40
8.40
7.70
6.87
5.61
3.78
1.45
-1.18
-3.83
-6.31
-8.58
-10.83
-13.36
-16.53
-20.55
-25.42
-30.83
-36.18
-40.56
-42.99
-42.66
-39.21
-32.95
-24.76
-15.88
-7.47
-0.28
5.43
9.81
13.05
15.24
16.26
15.98
14.50
12.25
9.89
8.12
7.37
7.62
8.47
9.29
9.49
8.74
7.01
4.57
1.81
-0.90
-3.37
-5.63
-7.92
-10.65
-14.17
-18.68
-24.07
-29.89
-35.35
-39.47
-41.35
-40.34
-36.35
-29.88
-21.91
-13.65
-6.11
0.14
5.02
8.75
11.55
13.47
14.41
14.25
13.13
11.47
9.88
8.94
8.88
9.54
10.42
10.92
10.63
9.43
7.53
5.30
3.02
0.82
-1.46
-4.12
-7.45
-11.65
-16.73
-22.48
-28.51
-34.20
-38.75
-41.30
-41.15
-38.00
-32.10
-24.22
-15.43
-6.76
1.05
7.64
12.90
16.84
19.38
20.45
20.10
18.60
16.54
14.65
13.54
13.39
13.91
14.47
14.39
13.33
11.38
9.03
6.79
4.94
3.36
1.63
-0.74
-4.13
-8.62
-14.07
-20.20
-26.56
-32.51
-37.16
-39.54
-38.82
-34.70
-27.59
-18.50
-8.77
0.38
8.21
14.45
19.16
22.46
24.41
24.96
24.21
22.46
20.28
18.35
17.18
17.00
17.58
18.38
18.74
18.20
16.67
14.41
11.88
9.45
7.22
4.92
2.10
-1.74
-6.95
-13.55
-21.18
-29.10
-36.21
-41.28
-43.26
-41.59
-36.41
-28.50
-19.09
-9.36
-0.20
7.89
14.71
20.12
23.91
25.85
25.93
24.47
22.21
20.05
18.77
18.71
19.74
21.32
22.74
23.42
23.11
21.87
20.03
17.98
16.00
14.12
12.08
9.43
5.71
0.61
-5.93
-13.59
-21.66
-29.10
-34.70
-37.29
-36.13
-31.17
-23.20
-13.60
-3.92
4.60
11.41
16.49
20.10
22.39
23.29
22.60
20.28
16.71
12.61
8.85
6.02
4.26
3.24
2.35
1.07
-0.86
-3.34
-6.06
-8.68
-11.01
-13.16
-15.43
-18.20
-21.71
-26.05
-31.14
-36.72
-42.37
-47.41
-50.87
-51.63
-48.78
-42.00
-31.81
-19.54
-6.89
4.57
13.87
20.68
25.17
27.64
28.38
27.62
25.70
23.12
20.55
18.56
17.43
17.09
17.12
17.01
16.42
15.28
13.87
12.57
11.72
11.34
11.13
10.52
8.92
5.87
1.21
-4.94
-12.23
-20.02
-27.39
-33.16
-36.12
-35.34
-30.52
-22.27
-11.85
-0.90
9.14
17.41
23.67
28.04
30.78
32.00
31.72
30.00
27.14
23.69
20.37
17.79
16.22
15.50
15.18
14.70
13.66
11.96
9.77
7.35
4.94
2.55
0.02
-2.94
-6.63
-11.26
-16.91
-23.38
-30.14
-36.28
-40.62
-42.03
-39.77
-33.78
-24.83
-14.21
-3.38
6.46
14.64
21.02
25.73
28.94
30.69
30.97
29.81
27.55
24.78
22.24
20.58
20.10
20.59
21.44
21.87
21.32
19.59
16.94
13.84
10.73
7.80
4.94
1.78
-2.04
-6.79
-12.51
-19.07
-26.05
-32.80
-38.38
-41.75
-42.02
-38.79
-32.34
-23.62
-13.92
-4.46
3.91
10.78
16.10
19.90
22.18
22.91
22.15
20.22
17.77
15.55
14.17
13.83
14.28
14.89
14.99
14.11
12.17
9.44
6.40
3.50
1.03
-1.04
-2.97
-5.21
-8.20
-12.26
-17.42
-23.42
-29.61
-35.05
-38.69
-39.60
-37.24
-31.65
-23.52
-13.95
-4.15
4.91
12.69
19.05
24.04
27.66
29.82
30.39
29.44
27.39
24.95
22.92
21.94
22.24
23.64
25.60
27.52
28.83
29.27
28.80
27.63
25.99
24.04
21.77
19.07
15.81
11.91
7.35
2.21
-3.28
-8.65
-13.19
-16.00
-16.29
-13.75
-8.72
-2.24
4.32
9.71
13.22
14.79
14.85
13.88
12.20
9.85
6.83
3.32
-0.22
-3.17
-4.97
-5.45
-4.91
-4.04
-3.62
-4.21
-5.94
-8.52
-11.45
-14.16
-16.35
-17.97
-19.30
-20.79
-22.88
-25.96
-30.10
-35.01
-39.96
-43.87
-45.53
-44.03
-39.09
-31.29
-21.88
-12.36
-3.94
2.75
7.67
11.13
13.42
14.67
14.83
13.95
12.28
10.31
8.65
7.69
7.55
7.98
8.52
8.73
8.34
7.32
5.90
4.39
3.09
2.09
1.25
0.28
-1.20
-3.48
-6.73
-10.92
-15.83
-21.02
-25.83
-29.46
-31.09
-30.17
-26.61
-20.93
-14.08
-7.16
-1.09
3.73
7.34
10.05
12.14
13.62
14.33
14.09
13.03
11.58
10.33
9.72
9.79
10.09
9.98
8.97
7.00
4.50
2.10
0.35
-0.58
-0.90
-1.10
-1.70
-3.07
-5.40
-8.73
-12.97
-17.89
-23.04
-27.67
-30.87
-31.78
-29.91
-25.45
-19.21
-12.37
-6.03
-0.86
3.02
5.89
8.10
9.78
10.74
10.71
9.60
7.75
5.86
4.73
4.86
6.23
8.25
10.03
10.81
10.26
8.59
6.39
4.28
2.62
1.36
0.19
-1.33
-3.52
-6.53
-10.32
-14.69
-19.18
-23.09
-25.49
-25.46
-22.49
-16.71
-8.96
-0.51
7.44
14.13
19.33
23.19
25.87
27.36
27.52
26.29
23.92
20.95
18.03
15.62
13.76
12.09
10.02
7.10
3.17
-1.53
-6.50
-11.16
-15.07
-18.06
-20.24
-22.01
-23.82
-26.18
-29.36
-33.42
-38.04
-42.59
-46.14
-47.76
-46.74
-42.94
-36.83
-29.38
-21.68
-14.57
-8.39
-3.09
1.59
5.72
9.12
11.40
12.31
11.90
10.57
8.99
7.75
7.23
7.47
8.25
9.20
9.98
10.35
10.26
9.81
9.22
8.69
8.27
7.84
7.12
5.75
3.42
0.01
-4.25
-8.76
-12.53
-14.49
-13.78
-10.09
-3.80
4.06
12.27
19.74
25.88
30.62
34.13
36.58
37.92
37.99
36.73
34.41
31.70
29.35
27.94
27.53
27.68
27.65
26.72
24.53
21.18
17.10
12.80
8.64
4.68
0.79
-3.23
-7.59
-12.41
-17.77
-23.66
-29.90
-36.02
-41.25
-44.66
-45.53
-43.64
-39.44
-33.89
-28.17
-23.22
-19.52
-17.09
-15.69
-15.08
-15.10
-15.70
-16.74
-17.96
-18.96
-19.40
-19.09
-18.18
-17.06
-16.27
-16.25
-17.07
-18.46
-19.92
-20.96
-21.37
-21.34
-21.44
-22.36
-24.68
-28.70
-34.29
-40.81
-47.19
-52.14
-54.37
-53.04
-48.00
-39.88
-29.89
-19.45
-9.72
-1.39
5.30
10.47
14.24
16.71
17.93
18.02
17.32
16.35
15.64
15.48
15.80
16.17
16.06
15.09
13.22
10.80
8.30
6.11
4.27
2.46
0.13
-3.35
-8.44
-15.29
-23.56
-32.40
-40.40
-45.97
-47.73
-45.08
-38.35
-28.68
-17.65
-6.68
3.36
12.12
19.54
25.54
29.86
32.14
32.16
30.18
26.91
23.39
20.53
18.84
18.21
18.07
17.71
16.60
14.68
12.23
9.73
7.45
5.34
2.95
-0.36
-5.16
-11.73
-19.91
-29.02
-37.87
-44.94
-48.69
-47.99
-42.55
-33.03
-20.88
-7.86
4.48
15.21
24.01
30.91
36.01
39.25
40.49
39.80
37.63
34.77
32.07
30.10
28.95
28.21
27.28
25.64
23.15
20.03
16.66
13.41
10.39
7.44
4.15
0.01
-5.44
-12.45
-20.90
-30.20
-39.18
-46.32
-50.06
-49.20
-43.38
-33.20
-20.08
-5.83
7.85
19.78
29.36
36.43
40.99
43.06
42.68
40.12
36.02
31.40
27.36
24.65
23.39
23.02
22.60
21.32
18.82
15.35
11.51
7.91
4.77
1.82
-1.56
-6.09
-12.30
-20.35
-29.88
-39.99
-49.23
-55.83
-58.11
-54.99
-46.45
-33.61
-18.37
-2.79
11.52
23.68
33.45
40.82
45.70
47.89
47.36
44.54
40.48
36.49
33.71
32.59
32.74
33.19
32.85
31.06
27.78
23.53
19.00
14.74
10.88
7.07
2.67
-3.07
-10.69
-20.28
-31.25
-42.20
-51.16
-56.08
-55.46
-48.93
-37.41
-22.75
-7.16
7.55
20.38
31.03
39.55
45.92
49.87
51.04
49.37
45.41
40.31
35.45
31.96
30.25
29.93
30.06
29.64
28.01
25.13
21.42
17.49
13.81
10.50
7.28
3.61
-1.19
-7.66
-16.06
-26.16
-37.04
-47.10
-54.28
-56.64
-52.95
-43.19
-28.63
-11.40
6.18
22.27
35.86
46.63
54.58
59.72
61.94
61.22
57.92
52.90
47.36
42.47
38.95
36.86
35.62
34.38
32.37
29.22
25.08
20.40
15.70
11.33
7.25
3.17
-1.37
-6.78
-13.32
-21.08
-29.93
-39.42
-48.60
-56.09
-60.20
-59.50
-53.31
-42.12
-27.43
-11.32
4.22
17.85
28.94
37.40
43.17
46.14
46.17
43.47
38.78
33.33
28.52
25.31
23.98
24.00
24.41
24.21
22.80
20.13
16.55
12.64
8.79
5.17
1.59
-2.30
-6.91
-12.58
-19.52
-27.65
-36.49
-45.10
-52.05
-55.73
-54.80
-48.66
-37.80
-23.67
-8.25
6.56
19.42
29.70
37.34
42.51
45.39
46.11
44.84
42.03
38.40
34.81
32.01
30.37
29.70
29.45
28.93
27.75
25.92
23.85
22.01
20.65
19.60
18.30
16.07
12.36
6.90
-0.30
-8.91
-18.35
-27.66
-35.53
-40.51
-41.38
-37.59
-29.54
-18.50
-6.21
5.73
16.21
24.80
31.53
36.51
39.76
41.13
40.53
38.20
34.81
31.32
28.63
27.22
26.91
26.96
26.41
24.43
20.68
15.35
9.02
2.39
-3.95
-9.71
-14.90
-19.79
-24.77
-30.23
-36.42
-43.24
-50.17
-56.21
-60.14
-60.81
-57.63
-50.79
-41.24
-30.43
-19.81
-10.41
-2.61
3.60
8.40
11.79
13.55
13.49
11.76
8.95
6.08
4.13
3.74
4.90
7.08
9.45
11.26
12.10
11.90
10.87
9.28
7.34
5.15
2.71
-0.05
-3.27
-7.06
-11.57
-16.84
-22.72
-28.71
-33.97
-37.45
-38.21
-35.79
-30.39
-22.92
-14.64
-6.81
-0.23
4.81
8.43
10.88
12.35
12.87
12.47
11.33
9.82
8.44
7.66
7.68
8.33
9.17
9.68
9.44
8.36
6.65
4.72
2.97
1.61
0.55
-0.54
-2.13
-4.64
-8.36
-13.29
-19.13
-25.26
-30.77
-34.68
-36.10
-34.58
-30.25
-23.78
-16.25
-8.78
-2.26
2.83
6.37
8.50
9.41
9.29
8.38
7.01
5.60
4.59
4.25
4.56
5.21
5.67
5.46
4.38
2.62
0.64
-1.02
-2.07
-2.54
-2.84
-3.54
-5.11
-7.81
-11.62
-16.30
-21.38
-26.28
-30.22
-32.39
-32.14
-29.24
-24.10
-17.65
-11.07
-5.37
-1.05
1.95
4.02
5.56
6.71
7.32
7.17
6.18
4.63
3.05
2.00
1.74
2.11
2.57
2.54
1.65
-0.03
-2.07
-3.93
-5.28
-6.14
-6.90
-8.02
-9.85
-12.50
-15.85
-19.72
-23.84
-27.92
-31.49
-33.94
-34.56
-32.83
-28.74
-22.82
-16.08
-9.60
-4.24
-0.34
2.26
3.94
5.06
5.67
5.64
4.78
3.09
0.92
-1.19
-2.68
-3.24
-2.91
-2.09
-1.25
-0.80
-0.93
-1.61
-2.67
-3.94
-5.32
-6.81
-8.51
-10.55
-13.09
-16.20
-19.90
-24.04
-28.27
-32.02
-34.53
-35.07
-33.17
-28.84
-22.65
-15.59
-8.68
-2.70
2.05
5.67
8.45
10.58
12.00
12.56
12.16
11.02
9.61
8.48
7.98
8.09
8.46
8.54
7.96
6.63
4.81
2.92
1.30
0.09
-0.86
-1.85
-3.21
-5.16
-7.78
-10.99
-14.69
-18.68
-22.67
-26.16
-28.47
-28.87
-26.86
-22.39
-15.98
-8.57
-1.20
5.35
10.68
14.75
17.66
19.44
20.08
19.60
18.27
16.59
15.14
14.32
14.19
14.44
14.59
14.24
13.23
11.67
9.87
8.15
6.68
5.43
4.20
2.66
0.45
-2.74
-7.09
-12.60
-19.01
-25.76
-31.99
-36.64
-38.72
-37.57
-33.11
-25.93
-17.09
-7.80
0.88
8.30
14.23
18.67
21.73
23.42
23.77
22.90
21.12
19.01
17.15
15.97
15.50
15.39
15.03
13.84
11.56
8.29
4.46
0.51
-3.30
-7.00
-10.82
-15.04
-19.87
-25.40
-31.73
-38.83
-46.44
-53.84
-59.84
-62.98
-62.06
-56.63
-47.22
-35.25
-22.44
-10.34
0.11
8.51
14.86
19.23
21.69
22.31
21.31
19.15
16.45
13.91
12.14
11.44
11.76
12.70
13.62
13.88
13.09
11.23
8.59
5.67
2.81
0.09
-2.78
-6.27
-10.86
-16.86
-24.22
-32.54
-40.96
-48.29
-53.18
-54.40
-51.25
-43.79
-32.94
-20.25
-7.46
3.99
13.27
20.16
24.87
27.65
28.62
27.83
25.40
21.80
17.89
14.64
12.76
12.34
12.78
13.12
12.48
10.52
7.54
4.24
1.27
-1.14
-3.26
-5.75
-9.28
-14.31
-21.00
-29.11
-38.04
-46.75
-53.77
-57.47
-56.43
-50.00
-38.62
-23.77
-7.46
8.37
22.37
33.93
42.89
49.20
52.70
53.22
50.90
46.38
40.84
35.61
31.77
29.70
29.03
28.87
28.23
26.44
23.41
19.55
15.52
11.85
8.62
5.47
1.74
-3.30
-10.11
-18.79
-29.00
-39.81
-49.82
-57.21
-60.19
-57.52
-49.00
-35.65
-19.42
-2.58
13.02
26.30
36.96
45.02
50.53
53.32
53.23
50.44
45.70
40.22
35.34
32.05
30.60
30.49
30.73
30.32
28.62
25.53
21.42
16.84
12.21
7.67
3.04
-2.10
-8.26
-15.87
-25.10
-35.72
-46.84
-56.93
-64.02
-66.22
-62.35
-52.44
-37.76
-20.43
-2.75
13.51
27.38
38.58
47.16
53.15
56.44
57.03
55.23
51.90
48.20
45.22
43.56
43.17
43.36
43.25
42.09
39.54
35.76
31.23
26.47
21.80
17.20
12.34
6.72
-0.08
-8.30
-17.90
-28.49
-39.36
-49.33
-56.90
-60.40
-58.56
-50.94
-38.32
-22.57
-6.07
9.00
21.32
30.52
36.91
40.90
42.71
42.34
39.88
35.82
31.12
26.98
24.34
23.48
23.94
24.76
24.88
23.66
21.01
17.39
13.45
9.73
6.42
3.33
0.04
-3.96
-9.08
-15.59
-23.45
-32.29
-41.23
-48.91
-53.72
-54.20
-49.61
-40.25
-27.38
-12.86
1.45
14.21
24.76
33.05
39.24
43.50
45.93
46.68
46.12
44.90
43.83
43.57
44.42
46.21
48.33
49.98
50.41
49.13
46.03
41.33
35.43
28.81
21.85
14.78
7.67
0.42
-7.22
-15.49
-24.54
-34.10
-43.36
-51.00
-55.46
-55.47
-50.56
-41.29
-29.15
-16.07
-3.79
6.59
14.71
20.73
24.98
27.64
28.78
28.41
26.79
24.42
22.00
20.20
19.39
19.52
20.17
20.76
20.77
19.96
18.36
16.22
13.83
11.36
8.81
6.03
2.85
-0.88
-5.21
-10.15
-15.68
-21.78
-28.23
-34.50
-39.69
-42.66
-42.39
-38.44
-31.21
-21.86
-11.94
-2.87
4.52
9.99
13.78
16.24
17.63
18.03
17.50
16.20
14.44
12.61
11.06
9.95
9.24
8.76
8.32
7.76
7.00
5.95
4.52
2.65
0.32
-2.36
-5.18
-7.94
-10.51
-12.89
-15.25
-17.87
-21.06
-24.98
-29.50
-34.08
-37.79
-39.55
-38.50
-34.31
-27.42
-18.94
-10.24
-2.55
3.43
7.57
10.17
11.61
12.18
12.01
11.16
9.75
8.04
6.40
5.20
4.65
4.76
5.28
5.79
5.90
5.33
4.09
2.34
0.30
-1.85
-4.07
-6.43
-8.98
-11.73
-14.59
-17.52
-20.57
-23.85
-27.40
-30.99
-34.05
-35.75
-35.32
-32.37
-27.15
-20.43
-13.30
-6.75
-1.37
2.69
5.64
7.77
9.22
9.99
10.04
9.39
8.27
7.06
6.15
5.78
5.97
6.48
6.95
7.04
6.49
5.22
3.28
0.81
-1.96
-4.82
-7.56
-10.06
-12.26
-14.27
-16.32
-18.71
-21.70
-25.29
-29.13
-32.53
-34.59
-34.52
-31.97
-27.09
-20.55
-13.30
-6.23
-0.00
5.02
8.72
11.17
12.49
12.86
12.49
11.65
10.60
9.54
8.62
7.98
7.70
7.81
8.19
8.62
8.82
8.55
7.80
6.67
5.38
4.03
2.60
0.96
-0.97
-3.18
-5.59
-8.18
-11.12
-14.61
-18.70
-23.03
-26.80
-28.93
-28.64
-25.64
-20.39
-13.84
-7.08
-0.96
4.04
7.80
10.38
11.93
12.58
12.47
11.78
10.74
9.60
8.58
7.83
7.45
7.43
7.67
7.97
8.07
7.75
6.90
5.55
3.85
2.00
0.10
-1.79
-3.73
-5.80
-8.07
-10.62
-13.52
-16.88
-20.73
-24.94
-29.05
-32.33
-33.91
-33.09
-29.71
-24.25
-17.69
-11.17
-5.60
-1.40
1.48
3.36
4.57
5.22
5.31
4.84
3.92
2.85
1.93
1.41
1.36
1.70
2.25
2.80
3.21
3.33
3.05
2.31
1.15
-0.29
-1.79
-3.20
-4.53
-5.93
-7.73
-10.20
-13.51
-17.58
-22.10
-26.48
-29.98
-31.84
-31.47
-28.66
-23.67
-17.23
-10.31
-3.85
1.56
5.74
8.90
11.33
13.22
14.54
15.14
14.87
13.80
12.25
10.69
9.53
9.02
9.02
9.20
9.08
8.30
6.72
4.43
1.71
-1.11
-3.82
-6.34
-8.79
-11.39
-14.34
-17.85
-22.05
-26.94
-32.32
-37.70
-42.27
-45.00
-44.98
-41.68
-35.29
-26.65
-17.11
-8.03
-0.40
5.36
9.36
11.99
13.68
14.73
15.26
15.34
15.01
14.38
13.60
12.81
12.11
11.51
10.94
10.28
9.40
8.22
6.69
4.86
2.78
0.49
-1.98
-4.69
-7.67
-10.96
-14.64
-18.83
-23.72
-29.44
-35.75
-41.95
-46.79
-48.86
-47.05
-41.04
-31.47
-19.79
-7.71
3.33
12.56
19.81
25.25
29.13
31.56
32.60
32.45
31.50
30.29
29.35
29.00
29.23
29.72
30.00
29.61
28.29
25.97
22.78
18.98
14.84
10.55
6.20
1.72
-3.07
-8.40
-14.43
-21.33
-29.18
-37.87
-46.99
-55.63
-62.43
-65.82
-64.52
-58.01
-46.87
-32.70
-17.56
-3.35
8.72
18.29
25.64
31.17
35.15
37.57
38.37
37.69
35.97
33.88
32.10
31.08
30.84
31.02
31.08
30.51
28.97
26.37
22.90
18.84
14.54
10.28
6.13
1.95
-2.60
-7.99
-14.69
-22.98
-32.67
-42.93
-52.26
-58.75
-60.64
-56.90
-47.65
-34.17
-18.48
-2.72
11.51
23.31
32.46
39.10
43.41
45.47
45.37
43.37
40.04
36.25
32.92
30.77
30.07
30.56
31.51
32.05
31.47
29.45
26.13
21.99
17.59
13.29
9.17
5.04
0.56
-4.57
-10.64
-17.90
-26.49
-36.22
-46.35
-55.40
-61.37
-62.25
-56.78
-44.99
-28.34
-9.30
9.47
25.88
38.83
48.22
54.48
58.17
59.67
59.17
56.83
52.94
48.04
42.86
38.11
34.25
31.33
28.96
26.55
23.49
19.44
14.41
8.68
2.59
-3.56
-9.74
-16.02
-22.55
-29.42
-36.68
-44.45
-52.84
-61.86
-71.07
-79.41
-85.19
-86.50
-81.88
-70.90
-54.47
-34.64
-13.95
5.33
21.68
34.56
44.11
50.77
54.92
56.83
56.73
55.04
52.43
49.74
47.72
46.77
46.78
47.26
47.53
47.16
46.06
44.55
43.07
41.93
41.10
40.23
38.82
36.46
32.99
28.46
22.95
16.39
8.63
-0.32
-9.94
-18.93
-25.46
-27.70
-24.59
-16.28
-4.14
9.74
23.32
35.15
44.58
51.58
56.31
58.84
59.09
56.99
52.67
46.70
39.96
33.52
28.33
24.90
23.15
22.36
21.51
19.60
16.07
10.96
4.77
-1.82
-8.33
-14.61
-20.81
-27.22
-34.02
-41.29
-48.94
-56.81
-64.51
-71.32
-76.11
-77.49
-74.26
-65.91
-52.98
-36.96
-19.87
-3.69
10.16
20.97
28.61
33.29
35.36
35.16
33.18
30.06
26.56
23.40
21.03
19.60
18.88
18.46
17.88
16.82
15.15
12.93
10.31
7.48
4.57
1.61
-1.49
-4.93
-8.96
-13.78
-19.52
-26.16
-33.45
-40.82
-47.40
-52.02
-53.58
-51.32
-45.20
-36.03
-25.23
-14.39
-4.78
2.95
8.83
13.29
16.78
19.52
21.56
22.86
23.52
23.86
24.25
25.01
26.20
27.59
28.79
29.36
29.00
27.54
25.05
21.70
17.79
13.63
9.48
5.46
1.56
-2.44
-6.84
-11.96
-18.03
-25.03
-32.53
-39.69
-45.30
-48.18
-47.54
-43.40
-36.58
-28.50
-20.64
-13.98
-8.84
-4.92
-1.77
0.92
3.10
4.54
5.06
4.75
3.99
3.21
2.67
2.27
1.71
0.66
-1.01
-3.09
-5.20
-6.99
-8.25
-9.05
-9.61
-10.17
-10.96
-12.14
-13.89
-16.33
-19.57
-23.53
-27.92
-32.12
-35.30
-36.60
-35.34
-31.30
-24.76
-16.56
-7.79
0.49
7.52
13.00
17.03
19.90
21.86
23.02
23.38
22.98
22.09
21.13
20.67
21.07
22.34
24.07
25.61
26.33
25.89
24.31
21.85
18.86
15.57
12.05
8.33
4.41
0.38
-3.69
-7.92
-12.60
-18.00
-24.12
-30.43
-35.85
-39.10
-39.22
-36.02
-30.27
-23.32
-16.59
-11.04
-6.94
-3.95
-1.56
0.53
2.29
3.46
3.84
3.56
3.02
2.74
3.08
4.04
5.30
6.35
6.79
6.49
5.58
4.31
2.89
1.39
-0.27
-2.22
-4.53
-7.20
-10.13
-13.23
-16.41
-19.66
-23.02
-26.53
-30.03
-33.09
-35.01
-35.03
-32.64
-27.89
-21.44
-14.40
-7.86
-2.55
1.27
3.78
5.30
6.07
6.22
5.84
5.05
4.15
3.48
3.32
3.84
5.01
6.63
8.40
10.02
11.20
11.76
11.67
11.00
9.89
8.41
6.62
4.50
2.05
-0.75
-3.88
-7.41
-11.41
-15.94
-20.85
-25.72
-29.82
-32.35
-32.62
-30.41
-25.97
-20.01
-13.44
-7.11
-1.66
2.57
5.49
7.24
8.12
8.48
8.67
8.95
9.43
10.10
10.92
11.85
12.87
14.00
15.19
16.25
16.95
17.08
16.50
15.29
13.62
11.65
9.48
7.08
4.36
1.30
-2.06
-5.68
-9.55
-13.70
-18.08
-22.34
-25.82
-27.63
-27.02
-23.72
-18.12
-11.20
-4.08
2.30
7.54
11.64
14.86
17.37
19.14
20.02
19.89
18.87
17.37
15.90
14.86
14.38
14.26
14.17
13.82
13.12
12.16
10.99
9.57
7.74
5.31
2.32
-1.00
-4.30
-7.33
-10.19
-13.29
-17.21
-22.34
-28.66
-35.61
-42.19
-47.21
-49.63
-48.88
-45.01
-38.73
-31.13
-23.40
-16.45
-10.75
-6.37
-3.17
-0.92
0.47
1.00
0.76
-0.06
-1.07
-1.83
-1.97
-1.34
-0.08
1.45
2.85
3.77
4.07
3.80
3.13
2.19
1.02
-0.42
-2.19
-4.26
-6.53
-8.88
-11.33
-14.07
-17.49
-21.81
-26.89
-31.95
-35.76
-36.99
-34.84
-29.36
-21.49
-12.67
-4.23
3.03
8.93
13.67
17.48
20.41
22.29
22.96
22.51
21.23
19.61
18.12
17.07
16.58
16.59
16.94
17.39
17.60
17.25
16.04
13.81
10.58
6.58
2.19
-2.16
-6.09
-9.45
-12.32
-15.09
-18.31
-22.50
-27.87
-34.11
-40.27
-45.03
-47.04
-45.45
-40.21
-32.06
-22.30
-12.28
-3.08
4.82
11.35
16.73
21.17
24.73
27.33
28.89
29.35
28.87
27.71
26.22
24.71
23.41
22.33
21.35
20.25
18.73
16.58
13.74
10.35
6.74
3.27
0.18
-2.51
-5.11
-8.11
-12.06
-17.38
-24.10
-31.77
-39.30
-45.22
-47.92
-46.25
-39.89
-29.57
-16.86
-3.63
8.50
18.57
26.36
32.13
36.28
39.04
40.46
40.50
39.21
36.84
33.83
30.69
27.79
25.29
23.05
20.78
18.13
14.95
11.24
7.22
3.18
-0.70
-4.37
-8.01
-11.88
-16.29
-21.51
-27.75
-35.07
-43.29
-51.87
-59.76
-65.54
-67.75
-65.35
-58.19
-47.06
-33.49
-19.28
-5.94
5.60
14.99
22.30
27.69
31.37
33.50
34.35
34.31
33.85
33.45
33.44
33.99
35.04
36.33
37.49
38.14
37.96
36.84
34.86
32.29
29.45
26.59
23.78
20.87
17.61
13.74
9.08
3.61
-2.50
-8.79
-14.45
-18.43
-19.65
-17.38
-11.62
-3.19
6.45
15.64
23.12
28.29
31.21
32.35
32.18
30.96
28.77
25.66
21.86
17.87
14.31
11.75
10.45
10.23
10.55
10.72
10.18
8.71
6.38
3.50
0.33
-3.04
-6.66
-10.62
-14.98
-19.69
-24.75
-30.30
-36.58
-43.71
-51.33
-58.43
-63.43
-64.73
-61.33
-53.27
-41.67
-28.34
-15.12
-3.29
6.55
14.38
20.34
24.51
26.79
27.10
25.63
22.96
19.93
17.43
16.02
15.80
16.34
16.99
17.10
16.30
14.56
12.14
9.39
6.60
3.84
0.96
-2.33
-6.34
-11.29
-17.32
-24.39
-32.25
-40.33
-47.63
-52.78
-54.36
-51.33
-43.43
-31.45
-16.99
-2.00
11.78
23.25
32.01
38.19
42.13
44.14
44.43
43.26
41.00
38.24
35.63
33.71
32.68
32.27
31.85
30.73
28.42
24.92
20.64
16.22
12.18
8.69
5.48
2.07
-2.12
-7.52
-14.40
-22.81
-32.44
-42.48
-51.48
-57.59
-58.98
-54.56
-44.42
-29.97
-13.49
2.69
16.77
27.88
35.92
41.18
43.96
44.44
42.77
39.30
34.69
29.82
25.55
22.44
20.57
19.51
18.57
17.07
14.61
11.25
7.39
3.54
0.10
-2.89
-5.69
-8.74
-12.46
-17.11
-22.79
-29.42
-36.74
-44.16
-50.72
-55.08
-55.86
-52.09
-43.63
-31.41
-17.10
-2.64
10.41
21.18
29.46
35.37
39.03
40.39
39.42
36.36
31.92
27.19
23.27
20.81
19.79
19.59
19.30
18.19
15.94
12.73
9.01
5.26
1.74
-1.56
-4.93
-8.72
-13.29
-18.88
-25.55
-33.11
-41.00
-48.22
-53.45
-55.34
-52.94
-46.02
-35.31
-22.23
-8.49
4.46
15.73
24.97
32.15
37.23
40.09
40.61
38.97
35.76
31.94
28.57
26.37
25.54
25.65
25.91
25.54
24.02
21.33
17.82
13.98
10.22
6.63
3.06
-0.88
-5.55
-11.30
-18.25
-26.26
-34.78
-42.81
-48.97
-51.88
-50.49
-44.59
-34.94
-23.00
-10.53
1.01
10.76
18.49
24.30
28.37
30.74
31.36
30.29
27.81
24.55
21.31
18.82
17.48
17.20
17.43
17.41
16.49
14.43
11.44
8.05
4.85
2.11
-0.29
-2.82
-6.04
-10.42
-16.13
-23.03
-30.63
-38.05
-44.12
-47.50
-47.09
-42.39
-33.82
-22.66
-10.66
0.60
10.13
17.69
23.53
27.90
30.81
32.06
31.50
29.41
26.53
23.85
22.16
21.73
22.19
22.81
22.84
21.85
19.84
17.11
14.06
10.99
8.07
5.33
2.66
-0.16
-3.45
-7.67
-13.17
-20.02
-27.71
-35.13
-40.81
-43.36
-41.99
-36.76
-28.58
-18.82
-8.89
0.18
7.87
14.06
18.78
22.06
23.83
24.06
22.88
20.62
17.90
15.41
13.72
13.08
13.32
13.85
14.02
13.31
11.54
8.98
6.06
3.24
0.72
-1.56
-3.90
-6.62
-10.00
-14.21
-19.21
-24.76
-30.25
-34.75
-37.11
-36.33
-31.91
-24.10
-13.87
-2.67
8.07
17.32
24.62
29.97
33.55
35.51
35.88
34.72
32.35
29.35
26.51
24.55
23.79
24.02
24.55
24.56
23.44
20.97
17.46
13.50
9.70
6.46
3.82
1.56
-0.78
-3.61
-7.26
-11.90
-17.48
-23.69
-29.94
-35.27
-38.56
-38.83
-35.60
-29.14
-20.52
-11.25
-2.77
3.99
8.80
11.97
14.09
15.56
16.53
16.88
16.54
15.57
14.22
12.92
11.98
11.55
11.47
11.39
10.90
9.81
8.16
6.22
4.33
2.65
1.16
-0.40
-2.36
-4.95
-8.29
-12.37
-17.18
-22.60
-28.28
-33.52
-37.31
-38.54
-36.47
-31.10
-23.22
-14.22
-5.51
1.89
7.59
11.80
14.99
17.55
19.63
21.11
21.82
21.74
21.04
20.06
19.18
18.61
18.35
18.16
17.72
16.79
15.31
13.40
11.32
9.28
7.44
5.74
4.06
2.23
0.12
-2.39
-5.36
-8.94
-13.19
-17.94
-22.69
-26.50
-28.30
-27.24
-23.13
-16.54
-8.69
-1.03
5.30
9.69
12.12
12.94
12.62
11.45
9.61
7.16
4.24
1.13
-1.70
-3.82
-4.95
-5.18
-5.00
-5.10
-6.12
-8.32
-11.51
-15.17
-18.66
-21.56
-23.78
-25.49
-26.95
-28.27
-29.46
-30.49
-31.49
-32.66
-34.15
-35.76
-36.90
-36.67
-34.30
-29.51
-22.71
-14.88
-7.18
-0.54
4.64
8.42
11.10
12.93
14.02
14.32
13.86
12.82
11.60
10.65
10.34
10.74
11.65
12.61
13.15
12.96
11.96
10.33
8.38
6.42
4.57
2.80
0.90
-1.35
-4.15
-7.56
-11.60
-16.19
-21.14
-26.10
-30.41
-33.19
-33.51
-30.83
-25.21
-17.46
-8.94
-1.03
5.26
9.53
12.02
13.26
13.66
13.46
12.66
11.29
9.59
8.03
7.10
7.11
7.97
9.24
10.30
10.68
10.17
8.92
7.26
5.50
3.81
2.14
0.35
-1.77
-4.34
-7.42
-10.96
-14.92
-19.27
-23.89
-28.52
-32.58
-35.20
-35.51
-32.96
-27.66
-20.48
-12.71
-5.64
-0.07
3.86
6.52
8.41
9.86
10.89
11.38
11.33
10.89
10.42
10.28
10.60
11.24
11.85
12.06
11.63
10.56
9.04
7.30
5.50
3.63
1.61
-0.67
-3.23
-6.07
-9.16
-12.56
-16.43
-20.90
-25.88
-30.87
-34.99
-37.24
-36.83
-33.54
-27.87
-20.79
-13.43
-6.70
-1.07
3.39
6.78
9.16
10.49
10.63
9.60
7.65
5.34
3.35
2.25
2.37
3.57
5.37
7.01
7.82
7.46
5.99
3.84
1.57
-0.41
-2.05
-3.58
-5.42
-7.95
-11.45
-15.99
-21.43
-27.35
-33.00
-37.35
-39.33
-38.16
-33.65
-26.38
-17.48
-8.28
0.11
7.08
12.54
16.72
19.87
22.09
23.30
23.38
22.36
20.56
18.55
16.91
16.01
15.75
15.63
15.01
13.40
10.71
7.32
3.78
0.65
-1.87
-3.92
-5.89
-8.26
-11.43
-15.66
-21.01
-27.31
-34.05
-40.34
-45.02
-46.97
-45.49
-40.54
-32.83
-23.51
-13.83
-4.78
3.08
9.53
14.48
17.83
19.49
19.49
18.07
15.76
13.20
11.00
9.60
9.12
9.38
9.94
10.27
9.91
8.64
6.56
4.02
1.44
-0.88
-2.95
-5.05
-7.68
-11.34
-16.38
-22.85
-30.42
-38.39
-45.64
-50.91
-52.98
-51.01
-44.85
-35.10
-22.95
-9.85
2.86
14.21
23.57
30.65
35.31
37.56
37.59
35.84
32.98
29.80
27.01
25.02
23.88
23.28
22.70
21.69
20.00
17.65
14.90
12.10
9.51
7.24
5.17
3.05
0.59
-2.52
-6.55
-11.72
-18.02
-25.00
-31.68
-36.58
-38.20
-35.50
-28.43
-17.96
-5.77
6.37
17.22
26.19
33.31
38.80
42.73
45.07
45.72
44.91
43.19
41.33
40.06
39.70
40.07
40.61
40.66
39.76
37.84
35.19
32.29
29.51
26.95
24.40
21.46
17.69
12.68
6.23
-1.64
-10.60
-19.79
-27.94
-33.54
-35.25
-32.36
-25.17
-14.90
-3.29
7.92
17.55
25.09
30.62
34.41
36.63
37.24
36.12
33.40
29.56
25.40
21.74
19.09
17.43
16.26
14.89
12.81
9.89
6.44
2.94
-0.17
-2.74
-4.95
-7.19
-9.98
-13.74
-18.71
-24.87
-31.81
-38.63
-44.09
-46.84
-45.80
-40.55
-31.56
-20.02
-7.53
4.38
14.64
22.72
28.56
32.31
34.10
34.07
32.40
29.44
25.82
22.29
19.49
17.75
16.93
16.55
16.01
14.85
12.91
10.38
7.59
4.86
2.33
-0.11
-2.73
-5.87
-9.85
-14.85
-20.86
-27.47
-33.87
-38.92
-41.44
-40.54
-36.03
-28.48
-19.07
-9.17
-0.01
7.71
13.75
18.20
21.29
23.11
23.68
23.01
21.31
19.05
16.92
15.57
15.33
16.02
17.01
17.45
16.75
14.82
12.07
9.20
6.78
4.99
3.54
1.83
-0.73
-4.56
-9.79
-16.19
-23.18
-29.86
-35.09
-37.78
-37.22
-33.29
-26.62
-18.30
-9.57
-1.39
5.61
11.21
15.32
17.86
18.76
18.01
15.93
13.03
9.98
7.36
5.44
4.13
3.07
1.89
0.33
-1.61
-3.81
-6.09
-8.36
-10.63
-13.01
-15.60
-18.44
-21.62
-25.26
-29.47
-34.18
-39.05
-43.30
-46.00
-46.34
-43.97
-39.20
-32.81
-25.80
-19.05
-13.15
-8.39
-4.94
-2.92
-2.38
-3.23
-5.10
-7.41
-9.52
-11.00
-11.75
-12.05
-12.36
-13.09
-14.34
-15.90
-17.35
-18.26
-18.38
-17.73
-16.61
-15.45
-14.73
-14.92
-16.37
-19.21
-23.16
-27.45
-30.87
-32.09
-30.16
-24.86
-16.82
-7.30
2.28
10.87
17.93
23.43
27.51
30.29
31.75
31.89
30.92
29.35
27.83
26.97
27.07
27.99
29.31
30.46
31.05
30.98
30.39
29.55
28.59
27.41
25.70
23.10
19.32
14.31
8.31
1.80
-4.55
-10.00
-13.79
-15.37
-14.48
-11.27
-6.30
-0.32
5.86
11.63
16.53
20.32
22.81
23.91
23.63
22.19
19.98
17.53
15.23
13.28
11.62
9.98
8.14
5.95
3.52
1.09
-1.08
-2.82
-4.11
-5.05
-5.89
-6.93
-8.56
-11.09
-14.62
-18.84
-23.06
-26.26
-27.45
-26.06
-22.08
-16.12
-9.04
-1.68
5.40
11.93
17.72
22.54
26.07
28.03
28.37
27.44
25.90
24.46
23.63
23.57
24.05
24.69
25.07
24.97
24.37
23.37
22.07
20.52
18.59
16.08
12.67
8.10
2.20
-4.92
-12.81
-20.60
-27.18
-31.49
-32.82
-31.11
-26.91
-21.21
-15.04
-9.19
-4.08
0.14
3.40
5.55
6.37
5.74
3.81
1.05
-1.87
-4.40
-6.30
-7.71
-9.00
-10.54
-12.41
-14.36
-16.01
-17.08
-17.62
-18.01
-18.85
-20.66
-23.73
-28.04
-33.22
-38.64
-43.41
-46.51
-46.98
-44.19
-38.11
-29.39
-19.15
-8.60
1.30
10.04
17.43
23.40
27.82
30.55
31.50
30.88
29.20
27.05
24.92
22.98
21.10
19.00
16.50
13.63
10.67
8.06
6.11
4.95
4.38
3.98
3.15
1.31
-2.00
-6.89
-13.07
-19.75
-25.80
-29.99
-31.40
-29.68
-25.11
-18.57
-11.12
-3.76
2.75
7.98
11.66
13.70
14.09
13.05
11.01
8.53
6.21
4.44
3.31
2.67
2.28
1.89
1.44
0.99
0.64
0.41
0.17
-0.26
-1.09
-2.56
-4.86
-8.05
-11.97
-16.03
-19.23
-20.37
-18.44
-12.99
-4.36
6.37
17.78
28.46
37.35
43.80
47.55
48.65
47.34
44.08
39.43
34.05
28.52
23.25
18.41
13.96
9.72
5.48
1.09
-3.47
-8.11
-12.61
-16.88
-20.92
-24.93
-29.22
-34.06
-39.52
-45.27
-50.62
-54.57
-56.02
-54.10
-48.44
-39.32
-27.66
-14.76
-1.92
9.88
20.03
28.30
34.62
38.97
41.41
42.10
41.42
39.93
38.18
36.53
35.09
33.76
32.37
30.82
29.09
27.21
25.18
22.89
20.20
16.91
12.79
7.55
0.93
-7.14
-16.24
-25.40
-33.17
-38.11
-39.23
-36.46
-30.59
-22.92
-14.80
-7.16
-0.46
5.19
9.71
12.92
14.59
14.64
13.34
11.27
9.11
7.42
6.36
5.74
5.20
4.43
3.28
1.74
-0.19
-2.59
-5.71
-9.87
-15.42
-22.67
-31.76
-42.47
-54.03
-65.10
-73.98
-79.12
-79.67
-75.75
-68.48
-59.47
-50.29
-42.05
-35.36
-30.43
-27.36
-26.18
-26.80
-28.89
-31.85
-34.90
-37.31
-38.58
-38.52
-37.18
-34.84
-31.88
-28.75
-25.93
-23.84
-22.75
-22.70
-23.64
-25.55
-28.47
-32.47
-37.30
-42.16
-45.60
-45.95
-41.89
-33.09
-20.42
-5.65
9.13
22.24
32.74
40.41
45.43
48.09
48.71
47.64
45.40
42.62
39.86
37.52
35.68
34.27
33.09
32.02
30.93
29.73
28.26
26.29
23.66
20.19
15.78
10.40
4.16
-2.54
-8.93
-13.81
-15.91
-14.17
-8.24
1.34
13.31
26.08
38.16
48.51
56.58
62.24
65.57
66.76
66.11
64.03
60.99
57.49
53.95
50.57
47.42
44.47
41.62
38.82
36.02
33.22
30.37
27.33
23.81
19.38
13.72
6.79
-0.79
-7.76
-12.44
-13.24
-9.25
-0.64
11.46
25.26
39.00
51.34
61.53
69.33
74.80
78.02
79.10
78.16
75.40
71.06
65.47
58.93
51.75
44.23
36.74
29.71
23.58
18.67
15.09
12.65
10.91
9.23
6.92
3.37
-1.71
-8.18
-15.28
-21.73
-25.95
-26.59
-22.88
-14.97
-3.88
8.85
21.65
33.28
43.07
50.72
56.15
59.36
60.40
59.39
56.71
52.86
48.40
43.76
39.17
34.67
30.20
25.76
21.45
17.40
13.69
10.26
6.89
3.30
-0.81
-5.71
-11.48
-17.95
-24.42
-29.78
-32.66
-31.93
-27.16
-18.84
-8.25
3.02
13.67
22.93
30.61
36.74
41.41
44.52
46.02
45.94
44.49
42.00
38.71
34.74
30.08
24.66
18.55
11.98
5.31
-1.10
-7.06
-12.65
-18.20
-24.23
-31.33
-39.87
-49.91
-60.93
-71.82
-81.06
-87.04
-88.56
-85.15
-77.31
-66.31
-53.84
-41.51
-30.58
-21.83
-15.54
-11.70
-10.07
-10.24
-11.63
-13.62
-15.62
-17.26
-18.43
-19.27
-20.06
-21.04
-22.30
-23.69
-24.99
-25.98
-26.63
-27.16
-28.01
-29.67
-32.47
-36.46
-41.27
-46.11
-49.90
-51.50
-50.08
-45.39
-37.92
-28.73
-19.14
-10.33
-3.07
2.41
6.17
8.42
9.31
8.98
7.66
5.72
3.66
1.84
0.40
-0.93
-2.61
-5.09
-8.53
-12.71
-17.12
-21.25
-24.84
-27.98
-31.09
-34.63
-38.94
-44.03
-49.62
-55.17
-59.86
-62.81
-63.08
-60.03
-53.51
-44.04
-32.72
-20.84
-9.60
0.31
8.67
15.58
21.10
25.16
27.57
28.24
27.46
25.85
24.18
23.01
22.43
22.13
21.51
20.09
17.75
14.73
11.46
8.33
5.52
2.96
0.38
-2.53
-6.04
-10.35
-15.48
-21.16
-26.74
-31.22
-33.49
-32.75
-28.77
-22.05
-13.67
-4.90
3.17
9.92
15.17
19.01
21.56
22.90
23.00
21.99
20.21
18.24
16.75
16.22
16.75
18.00
19.35
20.26
20.46
20.09
19.55
19.17
19.02
18.81
18.02
16.11
12.72
7.74
1.25
-6.47
-14.93
-23.37
-30.76
-35.93
-37.95
-36.55
-32.22
-26.16
-19.82
-14.34
-10.23
-7.33
-5.15
-3.25
-1.47
0.09
1.25
1.99
2.53
3.15
4.09
5.32
6.57
7.42
7.54
6.74
5.13
3.00
0.75
-1.29
-2.95
-4.33
-5.70
-7.39
-9.71
-12.83
-16.77
-21.34
-26.08
-30.24
-32.88
-33.08
-30.34
-24.78
-17.26
-9.11
-1.68
4.18
8.24
10.86
12.59
13.81
14.54
14.55
13.64
11.86
9.61
7.52
6.09
5.54
5.64
5.90
5.81
5.06
3.65
1.77
-0.34
-2.57
-4.96
-7.64
-10.63
-13.91
-17.40
-21.09
-25.05
-29.34
-33.82
-37.93
-40.79
-41.46
-39.32
-34.36
-27.24
-19.05
-10.99
-3.91
1.69
5.70
8.16
9.15
8.80
7.33
5.15
2.77
0.77
-0.43
-0.70
-0.18
0.66
1.27
1.21
0.29
-1.31
-3.18
-4.86
-6.14
-7.12
-8.17
-9.79
-12.31
-15.75
-19.86
-24.29
-28.68
-32.71
-35.94
-37.79
-37.54
-34.62
-28.92
-20.96
-11.86
-2.96
4.62
10.31
14.11
16.38
17.56
17.92
17.55
16.48
14.81
12.78
10.75
9.06
7.95
7.49
7.52
7.70
7.67
7.12
5.98
4.42
2.74
1.15
-0.37
-2.09
-4.39
-7.51
-11.49
-16.14
-21.29
-26.77
-32.42
-37.82
-42.15
-44.27
-43.12
-38.23
-30.05
-19.90
-9.42
-0.01
7.63
13.49
17.86
20.98
22.83
23.22
22.12
19.82
17.02
14.52
12.95
12.51
13.01
13.89
14.55
14.48
13.44
11.44
8.72
5.64
2.44
-0.83
-4.34
-8.37
-13.21
-18.97
-25.62
-32.96
-40.57
-47.79
-53.68
-57.11
-57.08
-53.06
-45.34
-34.97
-23.46
-12.22
-2.21
6.20
13.04
18.42
22.25
24.27
24.25
22.23
18.76
14.70
11.04
8.55
7.46
7.45
7.74
7.53
6.29
4.05
1.18
-1.77
-4.51
-7.17
-10.17
-14.01
-19.03
-25.34
-32.83
-41.18
-49.75
-57.49
-62.92
-64.43
-60.88
-52.07
-38.95
-23.29
-7.11
8.02
21.18
32.07
40.60
46.67
50.07
50.66
48.64
44.62
39.64
34.84
31.12
28.86
27.79
27.10
25.86
23.43
19.69
15.14
10.54
6.46
2.96
-0.43
-4.51
-10.04
-17.51
-26.92
-37.82
-49.21
-59.63
-67.27
-70.37
-67.71
-59.08
-45.42
-28.57
-10.68
6.44
21.66
34.47
44.75
52.32
56.91
58.28
56.55
52.42
47.10
42.01
38.27
36.31
35.80
35.88
35.59
34.34
32.05
29.06
25.88
22.76
19.61
16.00
11.41
5.46
-1.98
-10.75
-20.40
-30.13
-38.75
-44.72
-46.42
-42.68
-33.25
-19.05
-1.94
15.84
32.36
46.42
57.59
65.89
71.35
73.87
73.35
69.98
64.49
58.11
52.24
47.94
45.52
44.51
43.90
42.67
40.19
36.48
32.01
27.42
23.13
19.10
14.90
9.88
3.39
-5.01
-15.42
-27.43
-40.03
-51.59
-60.10
-63.68
-61.14
-52.48
-38.97
-22.74
-6.12
9.02
21.64
31.37
38.22
42.21
43.29
41.57
37.58
32.36
27.23
23.34
21.17
20.38
20.05
19.16
17.11
13.96
10.27
6.79
4.02
1.92
0.01
-2.41
-6.06
-11.40
-18.57
-27.27
-36.73
-45.61
-52.22
-54.84
-52.24
-44.17
-31.53
-16.10
-0.04
14.83
27.37
37.11
44.01
48.05
49.18
47.42
43.21
37.52
31.69
26.97
24.08
22.90
22.66
22.37
21.32
19.35
16.73
13.94
11.25
8.60
5.66
1.97
-2.83
-8.99
-16.55
-25.26
-34.39
-42.66
-48.43
-50.08
-46.68
-38.35
-26.31
-12.45
1.31
13.54
23.52
30.99
35.92
38.29
38.14
35.78
31.86
27.38
23.38
20.58
19.14
18.68
18.52
17.98
16.73
14.85
12.71
10.67
8.86
7.06
4.74
1.29
-3.69
-10.32
-18.30
-26.93
-35.16
-41.69
-45.16
-44.51
-39.31
-30.03
-17.92
-4.70
7.98
18.93
27.55
33.78
37.70
39.41
38.96
36.50
32.53
27.85
23.46
20.11
18.05
16.96
16.14
14.89
12.85
10.10
7.03
4.04
1.31
-1.28
-4.06
-7.41
-11.60
-16.79
-22.87
-29.49
-35.91
-41.05
-43.74
-43.00
-38.44
-30.40
-19.90
-8.24
3.31
13.78
22.59
29.40
33.91
35.92
35.36
32.55
28.33
23.83
20.13
17.87
16.93
16.55
15.71
13.60
9.96
5.12
-0.26
-5.43
-9.92
-13.66
-16.94
-20.28
-24.30
-29.47
-35.94
-43.35
-50.76
-56.83
-60.11
-59.51
-54.64
-46.02
-34.84
-22.70
-11.02
-0.78
7.58
14.03
18.66
21.51
22.59
21.98
20.02
17.31
14.60
12.55
11.49
11.31
11.60
11.79
11.41
10.29
8.57
6.54
4.47
2.42
0.19
-2.53
-6.05
-10.51
-15.81
-21.63
-27.35
-32.11
-34.89
-34.77
-31.18
-24.21
-14.65
-3.77
7.05
16.75
24.76
30.87
35.02
37.09
36.95
34.65
30.63
25.71
20.91
17.04
14.43
12.90
11.85
10.67
8.96
6.71
4.16
1.66
-0.59
-2.57
-4.55
-6.93
-10.15
-14.55
-20.23
-26.95
-34.04
-40.42
-44.85
-46.21
-43.85
-37.87
-29.08
-18.78
-8.33
1.25
9.43
16.12
21.42
25.32
27.65
28.19
26.91
24.22
20.95
18.11
16.47
16.22
16.91
17.65
17.60
16.34
14.02
11.19
8.47
6.14
4.08
1.85
-1.05
-4.92
-9.86
-15.76
-22.28
-28.88
-34.72
-38.71
-39.80
-37.30
-31.29
-22.62
-12.72
-3.11
5.09
11.41
15.91
18.96
20.80
21.52
21.05
19.40
16.90
14.12
11.72
10.22
9.70
9.80
9.89
9.37
7.87
5.45
2.45
-0.65
-3.54
-6.13
-8.61
-11.26
-14.36
-18.07
-22.50
-27.63
-33.32
-39.17
-44.35
-47.72
-48.08
-44.69
-37.62
-27.87
-17.07
-6.89
1.49
7.68
11.89
14.57
16.02
16.31
15.45
13.59
11.18
8.86
7.17
6.36
6.29
6.53
6.64
6.25
5.27
3.81
2.10
0.36
-1.24
-2.73
-4.24
-6.08
-8.51
-11.76
-15.94
-21.01
-26.72
-32.55
-37.62
-40.84
-41.15
-37.91
-31.30
-22.24
-12.19
-2.61
5.50
11.74
16.21
19.20
20.87
21.26
20.38
18.41
15.78
13.14
11.10
9.98
9.76
10.00
10.09
9.46
7.82
5.24
2.09
-1.18
-4.20
-6.85
-9.24
-11.66
-14.48
-18.06
-22.68
-28.45
-35.24
-42.52
-49.32
-54.41
-56.56
-54.97
-49.54
-41.00
-30.66
-20.04
-10.46
-2.66
3.19
7.40
10.45
12.70
14.29
15.18
15.31
14.78
13.93
13.22
13.05
13.54
14.44
15.30
15.70
15.43
14.66
13.80
13.26
13.26
13.66
14.09
14.02
13.04
10.90
7.51
2.88
-2.98
-9.85
-17.15
-23.80
-28.33
-29.33
-26.00
-18.57
-8.35
2.72
12.76
20.56
25.81
28.89
30.43
30.94
30.63
29.56
27.81
25.62
23.38
21.47
20.13
19.38
19.11
19.08
19.09
18.97
18.61
17.89
16.72
15.01
12.70
9.80
6.38
2.56
-1.57
-5.95
-10.69
-15.97
-21.94
-28.46
-34.88
-39.98
-42.30
-40.62
-34.54
-24.72
-12.74
-0.54
10.20
18.52
24.24
27.70
29.30
29.36
27.97
25.29
21.62
17.47
13.45
10.11
7.78
6.48
6.01
5.94
5.79
5.14
3.79
1.78
-0.70
-3.45
-6.33
-9.39
-12.80
-16.68
-21.07
-25.98
-31.47
-37.63
-44.51
-51.72
-58.31
-62.82
-63.75
-60.14
-52.07
-40.71
-27.90
-15.49
-4.81
3.63
9.91
14.39
17.28
18.64
18.40
16.68
13.93
10.92
8.50
7.35
7.68
9.19
11.19
12.90
13.75
13.52
12.37
10.68
8.76
6.72
4.40
1.51
-2.22
-6.92
-12.57
-19.13
-26.53
-34.56
-42.62
-49.58
-53.87
-54.00
-49.21
-39.89
-27.53
-14.22
-1.81
8.57
16.68
22.84
27.38
30.40
31.74
31.29
29.28
26.31
23.22
20.78
19.43
19.17
19.62
20.18
20.26
19.44
17.61
14.95
11.85
8.66
5.59
2.55
-0.73
-4.60
-9.31
-14.99
-21.67
-29.27
-37.52
-45.73
-52.67
-56.73
-56.40
-50.89
-40.58
-26.96
-12.19
1.75
13.60
22.98
30.12
35.36
38.84
40.47
40.20
38.32
35.48
32.59
30.45
29.44
29.43
29.89
30.11
29.48
27.75
25.00
21.60
18.04
14.71
11.73
8.93
5.89
2.20
-2.53
-8.48
-15.70
-23.99
-32.84
-41.30
-48.01
-51.43
-50.30
-44.17
-33.69
-20.50
-6.73
5.69
15.56
22.60
27.16
29.86
31.17
31.32
30.39
28.54
26.16
23.79
22.01
21.16
21.17
21.66
22.02
21.82
20.86
19.26
17.30
15.21
13.05
10.73
8.08
4.97
1.32
-2.97
-8.18
-14.63
-22.52
-31.47
-40.41
-47.62
-51.29
-50.18
-44.15
-34.27
-22.43
-10.71
-0.66
6.90
11.93
14.67
15.41
14.25
11.25
6.62
0.94
-4.94
-10.15
-14.06
-16.59
-18.17
-19.50
-21.25
-23.72
-26.77
-29.99
-32.89
-35.25
-37.11
-38.75
-40.51
-42.63
-45.26
-48.54
-52.52
-57.17
-62.09
-66.34
-68.62
-67.54
-62.17
-52.42
-39.19
-24.02
-8.57
5.82
18.44
29.02
37.50
43.73
47.45
48.50
47.10
44.04
40.50
37.72
36.50
36.95
38.46
40.02
40.70
39.96
37.79
34.51
30.51
26.06
21.23
16.02
10.45
4.66
-1.18
-6.95
-12.56
-17.85
-22.31
-25.01
-24.76
-20.50
-11.80
0.83
16.03
32.03
47.21
60.55
71.74
80.87
88.12
93.53
96.95
98.34
97.97
96.45
94.61
93.08
92.10
91.30
89.95
87.29
82.80
76.46
68.63
59.82
50.43
40.61
30.22
19.05
6.95
-6.05
-19.74
-33.71
-47.34
-59.74
-69.74
-76.07
-77.69
-74.21
-66.16
-54.87
-42.13
-29.55
-18.20
-8.42
-0.05
7.17
13.33
18.30
21.95
24.39
26.00
27.27
28.44
29.29
29.21
27.43
23.49
17.49
10.13
2.37
-4.92
-11.28
-16.81
-21.97
-27.38
-33.57
-40.78
-48.78
-56.80
-63.58
-67.64
-67.68
-63.07
-54.10
-41.99
-28.43
-15.06
-2.91
7.68
16.92
25.14
32.43
38.54
43.09
45.83
46.96
47.03
46.72
46.51
46.47
46.25
45.38
43.62
41.07
38.14
35.27
32.58
29.71
25.93
20.43
12.56
2.08
-10.76
-25.21
-40.00
-53.48
-63.88
-69.77
-70.51
-66.50
-59.14
-50.23
-41.39
-33.50
-26.62
-20.31
-14.14
-8.03
-2.31
2.47
5.95
8.15
9.42
10.28
11.08
11.85
12.32
12.08
10.82
8.58
5.73
2.81
0.24
-2.00
-4.41
-7.85
-13.12
-20.62
-30.08
-40.50
-50.39
-58.02
-61.92
-61.18
-55.71
-46.26
-34.17
-20.98
-8.02
3.88
14.44
23.71
31.86
38.89
44.72
49.23
52.46
54.64
56.08
57.00
57.45
57.28
56.30
54.37
51.56
48.14
44.46
40.80
37.23
33.54
29.32
24.08
17.37
8.85
-1.62
-13.89
-27.34
-40.76
-52.44
-60.63
-64.06
-62.53
-56.96
-49.14
-40.95
-33.72
-27.83
-22.96
-18.54
-14.22
-10.10
-6.51
-3.69
-1.56
0.24
2.13
4.23
6.27
7.69
7.92
6.63
3.96
0.39
-3.49
-7.18
-10.55
-13.74
-17.12
-21.03
-25.74
-31.37
-37.88
-44.98
-52.01
-57.92
-61.42
-61.36
-57.19
-49.29
-38.83
-27.33
-16.10
-5.76
3.75
12.86
21.86
30.56
38.30
44.29
48.02
49.54
49.48
48.69
47.87
47.27
46.62
45.37
43.00
39.35
34.62
29.29
23.76
18.15
12.24
5.64
-1.98
-10.82
-20.86
-31.94
-43.66
-55.30
-65.69
-73.38
-77.03
-75.92
-70.34
-61.48
-51.04
-40.46
-30.55
-21.37
-12.56
-3.89
4.49
12.07
18.30
22.89
25.99
28.04
29.59
31.00
32.32
33.25
33.28
31.96
29.14
25.11
20.54
16.19
12.58
9.76
7.34
4.64
1.12
-3.56
-9.50
-16.55
-24.39
-32.30
-39.18
-43.58
-44.18
-40.35
-32.49
-21.97
-10.55
0.24
9.69
17.88
25.30
32.38
39.10
45.05
49.66
52.46
53.37
52.59
50.51
47.60
44.29
40.91
37.66
34.60
31.60
28.44
24.94
21.00
16.57
11.59
5.85
-1.01
-9.34
-19.35
-31.04
-44.17
-58.40
-73.27
-88.06
-101.57
-112.08
-117.61
-116.64
-108.62
-94.46
-76.34
-57.04
-39.10
-24.14
-12.62
-4.14
2.05
6.53
9.48
10.73
10.16
7.91
4.56
0.94
-2.25
-4.80
-7.03
-9.65
-13.29
-18.12
-23.71
-29.30
-34.14
-37.76
-40.20
-41.88
-43.42
-45.50
-48.78
-53.73
-60.38
-68.08
-75.41
-80.42
-81.23
-76.68
-66.86
-53.04
-37.25
-21.50
-7.18
5.22
15.84
25.03
32.92
39.32
43.86
46.32
46.95
46.42
45.60
45.16
45.33
45.76
45.88
45.12
43.26
40.42
36.96
33.35
29.93
26.95
24.40
22.11
19.77
16.93
13.16
8.22
2.23
-4.17
-9.96
-13.84
-14.66
-11.78
-5.26
4.07
14.87
25.74
35.59
43.99
51.05
57.20
62.84
68.01
72.36
75.31
76.31
75.05
71.65
66.54
60.36
53.71
46.97
40.31
33.64
26.75
19.54
12.08
4.66
-2.27
-8.27
-13.05
-16.69
-19.57
-22.23
-25.21
-28.97
-33.76
-39.62
-46.24
-52.85
-58.19
-60.66
-58.75
-51.59
-39.41
-23.57
-6.17
10.63
25.26
37.03
46.04
52.69
57.36
60.14
60.92
59.63
56.38
51.55
45.69
39.36
33.00
26.77
20.67
14.58
8.38
2.07
-4.27
-10.48
-16.46
-22.27
-28.06
-34.02
-40.18
-46.39
-52.38
-57.96
-63.07
-67.69
-71.61
-74.13
-74.13
-70.38
-62.14
-49.63
-34.07
-17.31
-1.22
12.93
24.62
33.92
41.13
46.39
49.76
51.22
50.95
49.34
46.99
44.41
41.97
39.82
37.85
35.85
33.54
30.67
27.15
23.06
18.64
14.15
9.76
5.45
1.04
-3.64
-8.68
-14.07
-19.73
-25.66
-31.77
-37.73
-42.72
-45.47
-44.61
-39.33
-29.78
-17.19
-3.47
9.53
20.59
29.25
35.65
40.12
42.77
43.53
42.31
39.15
34.45
28.80
22.90
17.33
12.49
8.51
5.33
2.71
0.34
-1.98
-4.37
-6.72
-8.85
-10.60
-11.88
-12.76
-13.42
-14.06
-14.89
-16.25
-18.57
-22.27
-27.52
-33.88
-40.16
-44.63
-45.61
-42.11
-34.28
-23.37
-11.30
0.08
9.51
16.52
21.31
24.38
26.27
27.38
27.97
28.13
27.83
26.91
25.20
22.61
19.29
15.61
12.05
9.10
7.02
5.80
5.19
4.76
4.12
2.95
1.21
-0.99
-3.40
-5.84
-8.28
-11.00
-14.48
-19.28
-25.65
-33.27
-41.07
-47.45
-50.75
-49.90
-44.84
-36.60
-26.87
-17.32
-9.07
-2.42
2.94
7.64
12.16
16.70
21.17
25.39
29.16
32.40
35.08
37.30
39.22
41.01
42.77
44.44
45.89
46.93
47.46
47.48
47.01
46.07
44.51
42.06
38.47
33.53
27.14
19.35
10.26
0.11
-10.59
-20.98
-29.86
-35.94
-38.32
-36.73
-31.77
-24.68
-17.03
-10.13
-4.82
-1.32
0.62
1.41
1.40
0.79
-0.36
-1.93
-3.63
-4.97
-5.43
-4.62
-2.58
0.25
3.07
5.00
5.40
4.08
1.35
-2.14
-5.70
-8.86
-11.53
-14.00
-16.70
-19.93
-23.74
-28.00
-32.54
-37.29
-42.20
-46.93
-50.73
-52.48
-51.08
-45.97
-37.53
-26.96
-15.88
-5.72
2.70
9.13
13.73
16.68
18.09
18.03
16.69
14.48
11.94
9.60
7.85
6.91
6.73
7.16
7.87
8.51
8.70
8.22
7.07
5.48
3.80
2.38
1.34
0.58
-0.22
-1.53
-3.75
-7.19
-11.94
-17.85
-24.34
-30.54
-35.29
-37.50
-36.47
-32.18
-25.31
-17.05
-8.67
-1.15
5.04
9.86
13.50
16.12
17.65
17.86
16.54
13.71
9.84
5.76
2.52
0.92
1.29
3.25
5.96
8.46
10.12
10.83
10.97
11.01
11.20
11.33
10.79
9.00
5.65
0.91
-4.71
-10.71
-16.76
-22.76
-28.63
-33.97
-37.98
-39.63
-38.06
-33.10
-25.33
-15.98
-6.39
2.42
9.99
16.29
21.34
24.97
26.76
26.28
23.39
18.44
12.26
5.86
0.12
-4.51
-8.01
-10.68
-12.88
-14.84
-16.53
-17.77
-18.31
-18.01
-16.92
-15.26
-13.33
-11.45
-9.90
-8.97
-8.90
-9.79
-11.41
-13.02
-13.47
-11.50
-6.28
2.16
12.93
24.54
35.51
44.87
52.37
58.25
62.93
66.70
69.54
71.22
71.44
69.95
66.72
61.94
56.06
49.79
43.86
38.82
34.83
31.58
28.48
24.96
20.76
16.05
11.27
6.92
3.25
0.19
-2.64
-5.71
-9.44
-14.04
-19.39
-25.02
-30.12
-33.65
-34.57
-32.16
-26.27
-17.50
-7.00
3.80
13.63
21.74
27.94
32.48
35.76
38.05
39.30
39.28
37.77
34.79
30.71
26.18
21.99
18.76
16.74
15.81
15.49
15.12
13.97
11.39
6.97
0.57
-7.63
-17.16
-27.40
-37.75
-47.72
-56.96
-65.14
-71.81
-76.36
-78.09
-76.51
-71.56
-63.71
-53.93
-43.35
-32.98
-23.44
-14.99
-7.55
-0.98
4.84
9.83
13.83
16.69
18.43
19.32
19.79
20.34
21.24
22.33
23.06
22.66
20.51
16.38
10.62
3.98
-2.65
-8.65
-13.82
-18.52
-23.43
-29.36
-36.95
-46.36
-57.13
-68.13
-77.81
-84.61
-87.37
-85.73
-80.12
-71.60
-61.39
-50.61
-39.97
-29.85
-20.45
-11.98
-4.67
1.17
5.43
8.20
9.83
10.81
11.63
12.58
13.66
14.59
14.94
14.39
12.88
10.72
8.48
6.78
5.93
5.87
6.07
5.74
4.10
0.59
-4.91
-12.01
-19.81
-26.97
-31.99
-33.62
-31.30
-25.38
-17.11
-8.13
0.12
6.98
12.75
18.33
24.59
31.81
39.42
46.22
50.89
52.50
50.82
46.21
39.32
30.85
21.41
11.66
2.36
-5.57
-11.33
-14.60
-15.76
-15.94
-16.61
-19.10
-24.14
-31.72
-41.09
-51.06
-60.16
-66.99
-70.35
-69.59
-64.75
-56.65
-46.62
-36.11
-26.17
-17.28
-9.43
-2.47
3.56
8.35
11.47
12.76
12.50
11.39
10.28
9.72
9.83
10.25
10.40
9.79
8.22
5.84
3.05
0.30
-2.13
-4.22
-6.31
-9.01
-13.03
-18.80
-26.12
-33.89
-40.27
-43.13
-40.76
-32.51
-18.96
-1.76
16.93
34.98
50.67
62.88
71.03
75.03
75.19
72.20
67.02
60.70
54.24
48.41
43.59
39.85
36.91
34.29
31.49
28.20
24.45
20.49
16.65
13.00
9.26
4.84
-0.96
-8.78
-18.95
-31.43
-45.57
-60.02
-72.80
-81.72
-85.07
-82.28
-74.13
-62.52
-49.59
-37.00
-25.46
-14.95
-5.30
3.33
10.26
14.68
16.18
15.00
12.05
8.39
4.84
1.65
-1.42
-4.77
-8.67
-13.10
-17.77
-22.23
-26.18
-29.52
-32.45
-35.40
-39.03
-44.03
-50.98
-60.00
-70.49
-81.01
-89.52
-93.91
-92.73
-85.63
-73.51
-58.03
-41.10
-24.15
-7.98
7.14
21.18
33.91
44.88
53.52
59.39
62.47
63.19
62.27
60.39
57.99
55.11
51.51
46.90
41.29
35.03
28.76
23.10
18.36
14.34
10.46
6.01
0.39
-6.69
-15.34
-25.49
-36.75
-48.28
-58.56
-65.61
-67.49
-63.08
-52.61
-37.68
-20.65
-3.76
11.55
24.88
36.45
46.53
55.06
61.59
65.63
67.05
66.21
63.81
60.64
57.22
53.68
49.85
45.42
40.18
34.15
27.64
21.13
15.07
9.72
5.04
0.62
-4.19
-10.14
-17.89
-27.80
-39.68
-52.58
-64.83
-74.31
-78.94
-77.36
-69.37
-55.98
-39.03
-20.54
-2.18
15.02
30.56
44.11
55.31
63.67
68.79
70.62
69.60
66.56
62.50
58.22
54.12
50.18
46.05
41.36
35.98
30.07
24.06
18.40
13.38
8.88
4.46
-0.55
-6.90
-15.21
-25.79
-38.49
-52.44
-65.98
-76.80
-82.50
-81.23
-72.45
-57.10
-37.33
-15.73
5.50
25.06
42.46
57.65
70.47
80.46
87.03
89.76
88.79
84.85
79.02
72.40
65.71
59.22
52.78
46.08
38.87
31.20
23.44
16.07
9.51
3.90
-0.96
-5.54
-10.45
-16.28
-23.58
-32.70
-43.68
-55.86
-67.81
-77.40
-82.36
-80.98
-72.79
-58.65
-40.46
-20.43
-0.45
18.29
35.14
49.75
61.72
70.58
75.88
77.48
75.68
71.23
65.19
58.68
52.58
47.34
42.90
38.80
34.53
29.79
24.63
19.43
14.55
10.12
5.86
1.21
-4.39
-11.28
-19.53
-29.11
-39.96
-51.95
-64.50
-76.32
-85.37
-89.31
-86.33
-75.92
-59.18
-38.49
-16.71
3.66
21.14
35.25
46.18
54.39
60.16
63.61
64.70
63.53
60.43
56.00
51.01
46.09
41.61
37.54
33.55
29.31
24.63
19.60
14.50
9.55
4.83
0.13
-4.88
-10.52
-16.97
-24.36
-32.80
-42.51
-53.56
-65.60
-77.45
-87.11
-92.17
-90.62
-81.68
-66.11
-46.06
-24.29
-3.28
15.39
31.10
43.90
54.00
61.41
65.96
67.53
66.27
62.79
58.00
52.83
48.00
43.78
39.98
36.20
32.05
27.39
22.38
17.34
12.59
8.23
4.11
-0.11
-4.83
-10.35
-16.89
-24.62
-33.66
-44.00
-55.23
-66.35
-75.65
-81.02
-80.56
-73.28
-59.59
-41.26
-20.84
-0.90
16.67
31.05
42.28
50.78
57.04
61.28
63.53
63.79
62.16
58.94
54.62
49.77
44.99
40.68
37.00
33.83
30.85
27.67
24.02
19.82
15.16
10.14
4.85
-0.71
-6.57
-12.80
-19.54
-26.99
-35.42
-44.90
-55.01
-64.57
-71.74
-74.51
-71.37
-61.97
-47.18
-28.94
-9.51
9.06
25.42
38.92
49.43
57.09
62.06
64.51
64.60
62.53
58.67
53.50
47.69
41.96
36.94
32.97
30.03
27.78
25.69
23.26
20.18
16.34
11.80
6.73
1.29
-4.39
-10.19
-16.08
-22.18
-28.76
-36.22
-44.87
-54.57
-64.49
-73.09
-78.38
-78.62
-72.93
-61.67
-46.37
-29.17
-12.19
3.01
15.67
25.70
33.36
39.02
43.01
45.57
46.90
47.13
46.35
44.67
42.32
39.61
36.90
34.50
32.50
30.77
29.04
27.01
24.42
21.16
17.17
12.46
7.12
1.32
-4.66
-10.47
-15.94
-21.13
-26.47
-32.47
-39.39
-46.85
-53.70
-58.26
-58.93
-54.82
-46.15
-34.23
-20.94
-8.14
2.92
11.74
18.44
23.36
26.78
28.72
29.09
27.79
24.99
21.16
16.95
13.02
9.80
7.34
5.40
3.58
1.57
-0.82
-3.62
-6.79
-10.32
-14.13
-18.11
-22.01
-25.59
-28.70
-31.42
-34.07
-37.11
-40.99
-45.93
-51.81
-58.03
-63.55
-67.06
-67.26
-63.28
-55.11
-43.62
-30.41
-17.27
-5.60
3.92
11.31
17.02
21.53
25.08
27.59
28.99
29.29
28.74
27.79
26.89
26.28
25.98
25.78
25.36
24.47
22.93
20.74
18.00
14.91
11.66
8.41
5.23
2.13
-0.97
-4.21
-7.74
-11.82
-16.66
-22.42
-28.96
-35.64
-41.33
-44.63
-44.38
-40.10
-32.30
-22.34
-11.85
-2.23
5.74
11.97
16.69
20.21
22.61
23.87
23.91
22.83
20.94
18.68
16.52
14.87
13.97
13.89
14.50
15.47
16.41
16.91
16.63
15.41
13.25
10.36
7.01
3.53
0.16
-2.93
-5.74
-8.39
-11.18
-14.57
-19.09
-25.12
-32.49
-40.33
-47.11
-51.06
-50.85
-46.14
-37.75
-27.30
-16.68
-7.30
0.14
5.65
9.61
12.44
14.39
15.51
15.84
15.45
14.55
13.44
12.34
11.37
10.52
9.65
8.68
7.61
6.53
5.53
4.63
3.64
2.31
0.37
-2.26
-5.43
-8.80
-12.02
-14.91
-17.55
-20.36
-23.92
-28.75
-35.03
-42.40
-49.83
-55.89
-59.07
-58.31
-53.36
-44.84
-34.13
-22.88
-12.53
-3.96
2.55
7.22
10.41
12.45
13.49
13.61
12.88
11.50
9.77
7.99
6.42
5.18
4.27
3.66
3.30
3.13
3.07
2.90
2.35
1.17
-0.80
-3.54
-6.84
-10.44
-14.09
-17.66
-21.14
-24.70
-28.62
-33.24
-38.76
-44.96
-51.06
-55.78
-57.62
-55.43
-48.92
-38.84
-26.71
-14.36
-3.25
5.85
12.86
18.06
21.84
24.46
26.07
26.79
26.76
26.13
25.03
23.58
21.88
20.13
18.54
17.30
16.41
15.63
14.60
12.96
10.56
7.50
4.04
0.49
-2.97
-6.35
-9.80
-13.50
-17.67
-22.58
-28.45
-35.42
-43.27
-51.24
-57.98
-61.86
-61.51
-56.39
-47.05
-34.94
-21.97
-9.76
0.74
9.30
16.25
22.03
26.87
30.78
33.57
35.09
35.38
34.63
33.19
31.42
29.62
27.98
26.66
25.73
25.21
24.99
24.75
23.97
22.15
18.96
14.45
9.06
3.44
-1.85
-6.57
-10.88
-15.27
-20.35
-26.64
-34.40
-43.34
-52.66
-61.02
-66.80
-68.51
-65.33
-57.38
-45.78
-32.25
-18.58
-6.16
4.33
12.78
19.46
24.66
28.59
31.30
32.86
33.37
33.00
31.92
30.25
28.07
25.43
22.53
19.66
17.15
15.21
13.78
12.48
10.79
8.23
4.63
0.15
-4.84
-9.95
-14.94
-19.77
-24.63
-29.85
-35.84
-43.01
-51.54
-61.15
-70.81
-78.81
-83.09
-81.90
-74.47
-61.38
-44.43
-26.00
-8.32
7.14
19.83
29.90
37.78
43.83
48.21
50.95
52.06
51.71
50.27
48.20
46.02
44.07
42.52
41.35
40.37
39.36
38.11
36.45
34.24
31.38
27.74
23.30
18.14
12.47
6.50
0.36
-6.00
-12.90
-20.76
-29.93
-40.33
-51.21
-61.08
-67.96
-69.92
-65.81
-55.65
-40.73
-23.17
-5.21
11.38
25.71
37.59
47.27
54.94
60.64
64.27
65.83
65.57
63.99
61.68
59.12
56.54
54.01
51.45
48.86
46.33
43.99
41.87
39.84
37.55
34.60
30.67
25.67
19.80
13.45
7.02
0.78
-5.21
-11.16
-17.52
-24.78
-33.30
-42.95
-52.86
-61.41
-66.59
-66.63
-60.70
-49.25
-33.90
-16.85
-0.18
14.75
27.36
37.62
45.71
51.74
55.81
58.06
58.79
58.49
57.61
56.47
55.14
53.53
51.51
49.06
46.33
43.62
41.19
39.10
37.16
34.93
31.90
27.69
22.22
15.77
8.86
2.08
-4.22
-9.95
-15.38
-21.02
-27.43
-35.06
-43.95
-53.54
-62.61
-69.43
-72.26
-69.88
-62.08
-49.76
-34.69
-18.89
-4.13
8.56
18.82
26.80
32.82
37.09
39.75
40.89
40.77
39.78
38.37
36.89
35.49
34.06
32.39
30.39
28.17
26.06
24.39
23.25
22.36
21.12
18.88
15.24
10.25
4.44
-1.53
-7.03
-11.83
-16.06
-20.14
-24.61
-29.87
-36.06
-42.84
-49.37
-54.37
-56.37
-54.18
-47.28
-36.13
-22.06
-6.90
7.57
19.97
29.62
36.42
40.63
42.74
43.30
42.89
42.04
41.19
40.54
40.05
39.49
38.54
36.97
34.75
32.08
29.29
26.72
24.52
22.64
20.78
18.53
15.61
11.98
7.99
4.20
1.15
-0.92
-2.20
-3.38
-5.39
-8.99
-14.45
-21.19
-27.86
-32.46
-32.83
-27.20
-14.83
3.49
25.34
47.05
64.74
75.47
78.15
73.73
64.53
53.28
42.03
31.74
22.49
14.00
6.18
-0.77
-6.51
-10.92
-14.29
-17.14
-19.98
-23.06
-26.33
-29.59
-32.71
-35.75
-38.91
-42.35
-46.05
-49.68
-52.75
-54.82
-55.72
-55.69
-55.38
-55.62
-57.15
-60.16
-64.20
-68.13
-70.52
-70.05
-66.03
-58.63
-48.77
-37.76
-26.91
-17.23
-9.28
-3.24
0.95
3.53
4.82
5.15
4.84
4.20
3.44
2.75
2.30
2.19
2.45
2.98
3.59
4.03
4.15
3.87
3.20
2.14
0.62
-1.40
-3.91
-6.79
-9.86
-12.96
-16.10
-19.40
-23.14
-27.57
-32.78
-38.54
-44.19
-48.71
-50.90
-49.77
-44.88
-36.56
-25.94
-14.54
-3.89
4.97
11.61
16.24
19.31
21.30
22.53
23.03
22.77
21.71
19.96
17.81
15.67
13.97
12.98
12.70
12.93
13.34
13.61
13.53
12.96
11.80
9.96
7.43
4.29
0.79
-2.81
-6.37
-10.00
-14.06
-19.03
-25.13
-32.14
-39.20
-45.01
-48.13
-47.55
-43.00
-35.13
-25.32
-15.26
-6.36
0.52
5.26
8.24
10.07
11.20
11.85
11.96
11.40
10.06
7.96
5.33
2.49
-0.18
-2.35
-3.88
-4.88
-5.60
-6.36
-7.38
-8.67
-10.08
-11.34
-12.31
-13.01
-13.68
-14.64
-16.18
-18.53
-21.77
-25.95
-30.94
-36.35
-41.36
-44.80
-45.39
-42.18
-35.01
-24.62
-12.51
-0.44
10.17
18.52
24.58
28.73
31.46
33.16
34.01
34.12
33.66
32.88
32.05
31.41
31.01
30.80
30.62
30.30
29.62
28.43
26.56
23.93
20.57
16.60
12.22
7.64
2.98
-1.72
-6.42
-11.18
-16.18
-21.73
-28.22
-35.82
-44.17
-52.18
-58.24
-60.72
-58.64
-52.09
-42.22
-30.76
-19.37
-9.10
-0.32
7.06
13.23
18.21
21.83
23.92
24.45
23.65
21.96
19.90
17.90
16.22
14.92
13.92
13.06
12.20
11.23
10.00
8.35
6.04
2.89
-1.18
-6.04
-11.33
-16.62
-21.59
-26.20
-30.79
-35.96
-42.32
-50.09
-58.77
-67.05
-73.04
-74.87
-71.33
-62.40
-49.26
-33.93
-18.55
-4.75
6.69
15.76
22.95
28.78
33.49
37.04
39.22
39.85
39.01
37.03
34.45
31.84
29.61
27.91
26.65
25.57
24.39
22.88
20.89
18.33
15.13
11.26
6.73
1.60
-4.06
-10.17
-16.74
-23.90
-31.86
-40.85
-50.80
-61.06
-70.29
-76.61
-78.14
-73.62
-63.04
-47.69
-29.78
-11.69
4.77
18.71
30.10
39.33
46.79
52.55
56.49
58.49
58.62
57.26
55.01
52.48
50.12
48.10
46.38
44.78
43.11
41.15
38.72
35.57
31.53
26.49
20.54
13.92
6.94
-0.14
-7.26
-14.56
-22.38
-31.17
-41.22
-52.39
-63.82
-73.86
-80.33
-81.17
-75.17
-62.51
-44.81
-24.55
-4.34
13.90
29.24
41.54
51.07
58.14
62.93
65.62
66.51
66.08
64.86
63.28
61.56
59.74
57.78
55.72
53.68
51.76
49.92
47.89
45.23
41.49
36.42
30.08
22.85
15.22
7.60
0.14
-7.29
-15.08
-23.69
-33.56
-44.86
-57.15
-69.25
-79.22
-84.73
-83.78
-75.44
-60.33
-40.53
-18.94
1.66
19.35
33.36
43.91
51.70
57.39
61.39
63.84
64.80
64.38
62.78
60.35
57.43
54.34
51.29
48.40
45.71
43.21
40.82
38.34
35.54
32.12
27.83
22.56
16.41
9.65
2.61
-4.44
-11.46
-18.71
-26.74
-36.03
-46.63
-57.81
-67.89
-74.63
-75.86
-70.35
-58.27
-41.24
-21.81
-2.59
14.44
28.36
39.09
47.09
52.85
56.69
58.76
59.21
58.30
56.45
54.08
51.60
49.21
47.02
45.01
43.16
41.39
39.61
37.59
35.04
31.67
27.32
22.03
16.05
9.78
3.60
-2.21
-7.57
-12.69
-18.07
-24.35
-32.05
-41.12
-50.63
-58.83
-63.54
-62.90
-56.17
-44.09
-28.67
-12.45
2.36
14.55
24.00
31.24
36.90
41.26
44.31
45.95
46.26
45.55
44.23
42.55
40.51
37.96
34.83
31.27
27.66
24.33
21.39
18.68
15.82
12.49
8.59
4.21
-0.43
-5.15
-9.86
-14.51
-19.18
-24.07
-29.48
-35.80
-43.16
-51.17
-58.75
-64.29
-66.11
-63.13
-55.28
-43.69
-30.22
-16.90
-5.30
3.86
10.65
15.61
19.35
22.30
24.59
26.14
26.79
26.46
25.26
23.44
21.36
19.40
17.80
16.60
15.68
14.79
13.67
12.14
10.10
7.57
4.62
1.34
-2.16
-5.80
-9.49
-13.25
-17.20
-21.55
-26.61
-32.54
-39.19
-45.89
-51.50
-54.61
-54.01
-49.14
-40.40
-29.07
-16.91
-5.61
3.74
10.86
16.05
19.89
22.78
24.87
26.05
26.22
25.46
24.09
22.50
21.06
19.91
19.03
18.29
17.58
16.84
15.99
14.90
13.39
11.36
8.91
6.33
4.01
2.19
0.79
-0.66
-2.87
-6.54
-12.16
-19.74
-28.77
-38.18
-46.48
-52.03
-53.54
-50.41
-42.99
-32.54
-20.78
-9.49
0.07
7.32
12.27
15.37
17.16
18.15
18.63
18.79
18.66
18.24
17.49
16.42
15.07
13.49
11.82
10.13
8.48
6.88
5.27
3.56
1.70
-0.28
-2.32
-4.26
-6.00
-7.53
-8.98
-10.65
-12.98
-16.43
-21.38
-27.85
-35.33
-42.75
-48.58
-51.30
-49.93
-44.44
-35.89
-26.01
-16.58
-8.82
-3.11
0.89
3.82
6.17
8.11
9.52
10.25
10.22
9.55
8.43
7.06
5.62
4.25
3.15
2.44
2.14
2.03
1.77
0.92
-0.80
-3.47
-6.89
-10.73
-14.64
-18.30
-21.52
-24.25
-26.61
-28.94
-31.71
-35.35
-39.93
-44.94
-49.22
-51.29
-49.88
-44.48
-35.64
-24.80
-13.78
-4.15
3.24
8.32
11.58
13.61
14.87
15.51
15.52
14.93
13.89
12.69
11.62
10.84
10.33
10.00
9.69
9.33
8.88
8.26
7.37
6.07
4.26
1.92
-0.87
-4.00
-7.42
-11.07
-14.95
-19.05
-23.41
-28.12
-33.21
-38.47
-43.21
-46.25
-46.26
-42.21
-33.95
-22.41
-9.30
3.43
14.31
22.69
28.79
33.33
37.06
40.47
43.66
46.43
48.41
49.13
48.16
45.14
39.92
32.63
23.69
13.77
3.65
-5.90
-14.30
-21.10
-26.14
-29.55
-31.73
-33.31
-34.94
-37.07
-39.84
-43.17
-46.97
-51.39
-56.69
-62.86
-69.23
-74.35
-76.33
-73.59
-65.66
-53.38
-38.68
-23.74
-10.25
0.97
9.98
17.22
23.08
27.68
30.89
32.58
32.76
31.66
29.68
27.26
24.76
22.42
20.38
18.69
17.28
16.00
14.58
12.71
10.13
6.69
2.43
-2.47
-7.72
-13.07
-18.37
-23.68
-29.21
-35.36
-42.51
-50.83
-59.91
-68.68
-75.44
-78.37
-76.11
-68.40
-56.18
-41.33
-25.96
-11.75
0.45
10.53
18.79
25.49
30.67
34.21
36.03
36.26
35.28
33.62
31.78
30.07
28.60
27.31
26.10
24.82
23.40
21.68
19.53
16.74
13.12
8.63
3.41
-2.18
-7.66
-12.66
-17.10
-21.32
-26.03
-32.02
-39.73
-48.82
-57.97
-65.12
-68.00
-64.99
-55.72
-41.23
-23.62
-5.35
11.57
26.01
37.73
47.10
54.57
60.38
64.48
66.70
66.90
65.17
61.85
57.36
52.15
46.50
40.48
34.03
27.06
19.53
11.54
3.31
-4.83
-12.52
-19.52
-25.74
-31.27
-36.31
-41.01
-45.52
-49.94
-54.53
-59.57
-65.24
-71.15
-76.07
-78.14
-75.40
-66.64
-52.06
-33.34
-13.01
6.38
23.14
36.67
47.19
55.29
61.47
66.00
69.00
70.61
71.04
70.49
69.16
67.14
64.58
61.65
58.53
55.41
52.32
49.16
45.76
41.98
37.72
33.01
27.87
22.37
16.62
10.71
4.73
-1.31
-7.54
-14.33
-22.08
-30.97
-40.63
-49.94
-57.07
-60.09
-57.53
-49.02
-35.47
-18.79
-1.32
14.91
28.61
39.36
47.42
53.38
57.79
61.02
63.24
64.49
64.86
64.51
63.77
62.96
62.34
61.98
61.79
61.61
61.27
60.61
59.42
57.37
54.03
49.08
42.51
34.74
26.52
18.58
11.34
4.68
-1.93
-9.21
-17.66
-27.35
-37.70
-47.60
-55.63
-60.40
-61.02
-57.35
-50.11
-40.53
-30.01
-19.64
-10.00
-1.33
6.30
12.63
17.32
19.99
20.55
19.25
16.69
13.51
10.26
7.26
4.60
2.29
0.42
-0.84
-1.28
-0.95
-0.19
0.35
-0.02
-1.77
-4.85
-8.74
-12.73
-16.26
-19.06
-21.21
-22.89
-24.27
-25.56
-27.20
-29.82
-34.01
-39.76
-46.09
-50.98
-51.87
-46.67
-34.64
-16.90
3.99
25.02
43.69
58.56
69.03
74.77
75.35
70.41
60.31
46.53
31.70
18.84
10.18
6.34
6.17
7.55
8.53
8.22
7.07
6.15
6.27
7.24
7.84
6.42
1.82
-5.87
-15.31
-24.63
-32.57
-39.17
-45.65
-53.49
-63.14
-73.30
-81.15
-83.68
-79.04
-67.54
-51.48
-34.19
-18.63
-6.47
2.22
8.66
14.45
20.86
28.40
36.78
45.25
52.93
59.03
63.00
64.51
63.57
60.57
56.34
51.95
48.32
45.76
43.65
40.75
35.80
28.27
18.77
8.79
-0.03
-6.63
-11.03
-14.35
-18.25
-24.31
-33.37
-45.05
-57.75
-69.01
-76.12
-76.78
-69.75
-55.13
-34.50
-10.64
13.03
33.02
46.64
52.67
51.62
45.47
36.91
28.38
21.47
16.77
14.28
13.73
14.66
16.23
17.08
15.54
10.38
1.63
-9.06
-18.87
-24.99
-25.93
-22.18
-15.92
-9.94
-6.45
-6.38
-9.48
-14.85
-21.41
-28.19
-34.15
-38.16
-39.00
-35.85
-28.67
-18.44
-6.98
3.48
10.94
14.24
13.25
8.97
3.10
-2.53
-6.56
-8.57
-9.11
-9.22
-9.71
-10.59
-10.96
-9.57
-5.60
0.60
7.54
13.15
15.72
14.53
10.07
3.50
-4.01
-11.87
-20.18
-29.36
-39.63
-50.61
-61.25
-70.15
-75.96
-77.76
-75.29
-68.89
-59.37
-47.81
-35.35
-23.03
-11.78
-2.46
4.09
7.24
6.85
3.58
-1.21
-5.89
-9.25
-11.02
-11.84
-12.70
-14.36
-16.87
-19.67
-22.10
-23.89
-25.28
-26.86
-29.02
-31.77
-34.87
-38.12
-41.74
-46.37
-52.68
-60.97
-70.75
-80.80
-89.44
-95.00
-96.31
-93.06
-85.77
-75.61
-63.95
-51.95
-40.37
-29.48
-19.31
-9.89
-1.41
5.96
12.20
17.70
23.10
29.05
35.73
42.75
49.14
53.77
55.83
55.18
52.48
48.99
46.15
45.10
46.24
49.07
52.38
54.63
54.52
51.25
44.69
35.33
24.14
12.54
2.33
-4.57
-6.66
-3.41
4.40
14.83
25.46
34.29
40.34
43.70
45.09
45.25
44.52
42.90
40.27
36.79
32.89
29.19
26.12
23.75
21.75
19.58
16.80
13.34
9.55
6.04
3.35
1.69
0.77
-0.02
-1.42
-3.98
-7.96
-13.30
-19.74
-26.83
-33.92
-40.17
-44.66
-46.52
-45.28
-41.00
-34.25
-25.99
-17.24
-8.79
-1.07
5.79
11.79
16.87
20.76
23.14
23.82
23.09
21.73
20.86
21.43
23.80
27.45
31.14
33.48
33.48
30.92
26.32
20.67
14.83
9.19
3.55
-2.72
-10.28
-19.48
-30.07
-41.20
-51.50
-59.50
-63.92
-64.11
-60.12
-52.72
-43.18
-32.83
-22.76
-13.50
-5.03
2.98
10.79
18.20
24.50
28.69
29.98
28.17
23.77
17.71
10.92
3.95
-3.07
-10.28
-17.77
-25.54
-33.42
-41.21
-48.79
-56.11
-63.18
-69.97
-76.40
-82.31
-87.48
-91.44
-93.47
-92.67
-88.14
-79.25
-65.88
-48.46
-27.87
-5.29
18.02
40.79
61.90
80.45
95.81
107.60
115.75
120.53
122.51
122.43
121.09
119.12
116.78
113.86
109.84
104.19
96.79
88.03
78.73
69.83
62.07
55.73
50.75
46.83
43.50
40.19
36.24
31.14
24.86
18.15
12.56
10.00
11.94
18.81
29.67
42.64
55.55
66.63
74.84
79.86
81.80
81.15
78.65
75.32
72.28
70.31
69.36
68.32
65.26
58.22
46.08
29.18
9.21
-11.27
-29.63
-43.73
-52.30
-55.16
-53.40
-49.33
-46.11
-46.66
-52.49
-62.78
-74.51
-83.72
-87.24
-84.06
-75.47
-64.02
-52.15
-41.05
-30.74
-20.71
-10.81
-1.68
5.61
10.06
11.43
10.33
8.00
5.72
4.37
4.20
4.80
5.48
5.64
5.11
4.18
3.43
3.41
4.28
5.81
7.45
8.61
8.85
7.93
5.73
2.23
-2.45
-7.89
-13.32
-17.71
-20.07
-19.81
-16.91
-12.02
-6.22
-0.72
3.50
5.87
6.27
5.02
2.60
-0.36
-3.16
-5.10
-5.49
-3.92
-0.52
3.92
8.20
11.11
12.05
11.30
10.00
9.53
10.80
13.78
17.51
20.56
21.71
20.43
17.05
12.53
8.02
4.45
2.25
1.33
1.28
1.70
2.48
3.82
6.10
9.42
13.44
17.29
19.88
20.29
18.10
13.47
6.98
-0.63
-8.66
-16.46
-23.46
-29.10
-32.85
-34.28
-33.25
-30.00
-25.24
-20.08
-15.77
-13.41
-13.63
-16.43
-21.09
-26.40
-30.95
-33.46
-33.10
-29.62
-23.45
-15.54
-7.13
0.56
6.62
10.67
12.77
13.27
12.59
11.01
8.76
6.02
3.05
0.14
-2.46
-4.69
-6.72
-8.88
-11.43
-14.40
-17.49
-20.24
-22.24
-23.33
-23.76
-23.96
-24.32
-24.96
-25.71
-26.22
-26.18
-25.38
-23.69
-21.00
-17.17
-12.15
-6.13
0.42
6.88
12.69
17.53
21.38
24.30
26.28
27.13
26.63
24.78
21.99
18.98
16.59
15.47
15.86
17.62
20.32
23.34
25.85
26.93
25.66
21.53
14.71
6.15
-2.69
-10.30
-15.66
-18.45
-18.93
-17.55
-14.69
-10.57
-5.42
0.30
5.92
10.67
14.03
15.89
16.43
16.04
14.99
13.41
11.28
8.60
5.50
2.24
-0.85
-3.46
-5.38
-6.48
-6.76
-6.41
-5.80
-5.44
-5.84
-7.37
-10.02
-13.44
-17.06
-20.23
-22.46
-23.50
-23.30
-21.83
-19.08
-15.04
-9.89
-4.07
1.69
6.55
9.83
11.22
10.83
9.18
7.02
5.08
3.93
3.86
4.78
6.21
7.40
7.46
5.70
1.91
-3.41
-9.11
-13.77
-16.27
-16.26
-14.38
-11.95
-10.46
-10.84
-13.13
-16.43
-19.36
-20.62
-19.52
-16.11
-11.02
-5.21
0.40
5.09
8.46
10.37
10.92
10.40
9.19
7.69
6.21
5.00
4.24
4.02
4.34
5.07
5.93
6.51
6.51
5.88
4.85
3.90
3.37
3.28
3.22
2.58
0.89
-1.94
-5.45
-8.87
-11.40
-12.43
-11.79
-9.61
-6.31
-2.37
1.65
5.26
8.03
9.68
10.11
9.38
7.71
5.46
3.10
1.13
-0.07
-0.45
-0.36
-0.44
-1.29
-3.12
-5.62
-8.11
-9.96
-10.98
-11.54
-12.35
-13.98
-16.52
-19.48
-21.98
-23.20
-22.60
-20.11
-15.95
-10.62
-4.68
1.25
6.57
10.82
13.76
15.41
15.99
15.80
15.14
14.19
13.14
12.17
11.46
11.15
11.19
11.38
11.38
10.95
9.98
8.64
7.24
6.12
5.37
4.78
3.82
1.84
-1.62
-6.59
-12.46
-18.08
-22.00
-22.93
-20.22
-14.11
-5.76
3.12
10.73
15.75
17.58
16.44
13.22
9.13
5.45
3.26
3.11
4.84
7.41
9.23
8.69
4.96
-1.46
-8.86
-15.05
-18.36
-18.47
-16.48
-14.24
-13.37
-14.50
-17.17
-20.30
-22.83
-24.17
-24.27
-23.27
-21.28
-18.31
-14.42
-9.88
-5.25
-1.17
1.82
3.46
3.84
3.34
2.49
1.83
1.65
1.91
2.18
1.81
0.34
-2.17
-5.02
-7.09
-7.36
-5.54
-2.27
1.13
3.29
3.37
1.35
-2.01
-5.69
-8.67
-10.14
-9.49
-6.27
-0.33
8.05
18.14
28.88
39.21
48.45
56.30
62.76
67.75
71.00
72.10
70.69
66.76
60.66
52.99
44.44
35.62
27.04
19.11
12.09
6.05
0.84
-3.85
-8.33
-12.74
-17.00
-20.92
-24.29
-27.07
-29.31
-31.14
-32.58
-33.54
-33.86
-33.38
-32.04
-29.93
-27.26
-24.25
-21.07
-17.87
-14.78
-11.96
-9.63
-7.96
-7.03
-6.73
-6.85
-7.13
-7.42
-7.68
-7.90
-8.03
-7.98
-7.55
-6.65
-5.28
-3.57
-1.74
-0.09
1.17
1.81
1.67
0.60
-1.50
-4.59
-8.39
-12.34
-15.70
-17.67
-17.69
-15.62
-11.83
-7.02
-2.02
2.54
6.30
9.21
11.38
12.89
13.74
13.91
13.41
12.33
10.87
9.26
7.77
6.60
5.86
5.57
5.65
5.93
6.26
6.56
6.79
7.03
7.32
7.66
7.94
7.96
7.57
6.79
5.91
5.49
6.14
8.34
12.18
17.42
23.53
29.97
36.29
42.26
47.78
52.80
57.28
61.25
64.77
68.06
71.36
74.94
78.93
83.40
88.26
93.32
98.28
102.82
106.69
109.78
112.17
113.92
114.92
114.65
112.30
107.00
98.18
85.89
70.75
53.77
36.05
18.50
1.79
-13.63
-27.48
-39.62
-50.12
-59.12
-66.81
-73.20
-78.00
-80.70
-80.71
-77.71
-71.86
-63.95
-55.19
-46.93
-40.21
-35.52
-32.69
-30.98
-29.51
-27.53
-24.69
-21.05
-16.90
-12.54
-8.14
-3.82
0.22
3.54
5.58
5.79
4.04
0.81
-2.81
-5.55
-6.34
-4.74
-1.01
4.10
9.72
15.23
20.30
24.78
28.49
31.10
32.16
31.29
28.39
23.83
18.27
12.54
7.38
3.15
-0.21
-3.16
-6.34
-10.33
-15.34
-21.10
-26.85
-31.56
-34.20
-34.17
-31.51
-26.97
-21.83
-17.56
-15.32
-15.58
-17.86
-20.83
-22.75
-22.10
-18.13
-11.15
-2.36
6.65
14.44
20.24
23.97
26.02
26.85
26.70
25.53
23.21
19.76
15.51
11.16
7.48
5.10
4.27
4.76
6.00
7.27
8.02
7.91
6.96
5.37
3.40
1.23
-1.11
-3.73
-6.80
-10.39
-14.52
-19.07
-23.89
-28.68
-32.88
-35.75
-36.44
-34.38
-29.71
-23.41
-17.05
-12.18
-9.68
-9.40
-10.40
-11.60
-12.32
-12.67
-13.27
-14.73
-17.28
-20.70
-24.74
-29.42
-35.08
-42.00
-49.85
-57.35
-62.52
-63.47
-59.27
-50.53
-39.28
-28.17
-19.55
-14.72
-13.87
-16.34
-21.12
-27.18
-33.59
-39.49
-44.14
-46.99
-47.78
-46.55
-43.43
-38.57
-32.07
-24.18
-15.47
-6.86
0.52
5.65
7.88
7.17
3.98
-0.83
-6.35
-11.95
-17.46
-23.15
-29.49
-36.69
-44.28
-50.98
-55.02
-55.00
-50.69
-43.45
-35.97
-31.15
-30.91
-35.45
-43.27
-51.94
-59.13
-63.33
-64.12
-61.82
-57.01
-50.17
-41.58
-31.44
-20.16
-8.37
3.13
13.48
21.90
27.86
31.18
32.02
30.88
28.39
25.09
21.32
17.22
12.92
8.63
4.75
1.68
-0.34
-1.36
-1.65
-1.59
-1.45
-1.44
-1.72
-2.59
-4.57
-8.23
-13.87
-21.21
-29.30
-36.74
-42.14
-44.57
-43.88
-40.53
-35.31
-28.92
-21.87
-14.45
-7.00
0.02
5.95
10.15
12.18
12.08
10.40
7.99
5.67
3.83
2.30
0.38
-2.58
-6.86
-12.05
-17.24
-21.57
-24.63
-26.56
-27.62
-27.90
-27.34
-26.11
-25.13
-25.87
-29.51
-35.92
-43.10
-47.95
-47.87
-42.31
-33.27
-24.10
-17.50
-13.87
-11.20
-6.57
1.73
12.98
24.42
32.89
36.67
36.25
33.64
30.82
28.46
25.68
21.00
13.81
5.07
-2.87
-7.51
-7.53
-3.40
2.81
8.45
11.31
10.32
5.54
-2.02
-10.91
-19.63
-26.75
-31.18
-32.13
-29.21
-22.49
-12.46
0.01
13.66
26.96
38.37
46.72
51.51
53.04
52.08
49.54
45.99
41.62
36.42
30.62
24.80
19.81
16.39
14.78
14.60
15.06
15.36
15.02
14.03
12.59
10.80
8.36
4.61
-1.10
-8.90
-17.93
-26.34
-31.81
-32.38
-27.35
-17.58
-5.21
7.12
17.34
24.51
28.89
31.47
33.29
34.95
36.39
37.18
36.84
35.25
32.73
29.88
27.30
25.18
23.17
20.54
16.67
11.46
5.64
0.39
-3.21
-4.84
-5.14
-5.54
-7.57
-12.09
-18.90
-26.65
-33.31
-36.99
-36.63
-32.37
-25.31
-16.98
-8.71
-1.26
5.16
10.57
14.95
18.07
19.65
19.72
18.66
17.18
15.96
15.37
15.27
15.17
14.50
12.87
10.24
6.90
3.33
0.05
-2.58
-4.45
-5.74
-6.86
-8.38
-10.78
-14.31
-18.84
-23.76
-28.10
-30.77
-30.94
-28.31
-23.21
-16.42
-8.92
-1.55
5.07
10.63
15.05
18.39
20.77
22.34
23.23
23.58
23.55
23.29
22.85
22.10
20.69
18.20
14.48
9.87
5.15
1.25
-1.23
-2.45
-3.18
-4.45
-6.99
-10.89
-15.63
-20.36
-24.14
-26.18
-25.91
-23.00
-17.54
-10.25
-2.36
4.71
9.88
12.90
14.34
15.22
16.40
18.17
20.25
22.19
23.75
25.11
26.62
28.33
29.88
30.57
29.84
27.74
24.93
22.28
20.41
19.19
17.85
15.30
10.61
3.46
-5.76
-16.01
-25.85
-33.80
-38.60
-39.48
-36.25
-29.36
-19.78
-8.84
2.00
11.36
18.22
22.04
22.85
21.12
17.53
12.73
7.24
1.50
-4.02
-8.71
-11.94
-13.33
-12.90
-11.10
-8.57
-5.89
-3.46
-1.50
-0.30
-0.27
-1.91
-5.66
-11.62
-19.40
-28.20
-36.87
-44.12
-48.79
-49.93
-47.08
-40.34
-30.41
-18.40
-5.61
6.81
17.90
26.93
33.26
36.38
36.06
32.65
27.05
20.63
14.70
10.09
6.97
4.96
3.59
2.56
1.90
1.71
1.78
1.47
-0.22
-4.21
-11.02
-20.56
-32.25
-45.21
-58.42
-70.71
-80.70
-86.96
-88.20
-83.84
-74.30
-61.14
-46.52
-32.66
-21.13
-12.58
-6.87
-3.44
-1.68
-1.25
-1.87
-3.27
-4.92
-6.19
-6.60
-6.01
-4.83
-3.82
-3.62
-4.42
-5.76
-6.69
-6.32
-4.23
-0.76
3.09
6.01
6.82
4.86
0.29
-5.83
-11.71
-15.23
-14.74
-9.54
-0.18
11.86
24.84
37.40
48.81
58.98
67.93
75.55
81.44
85.05
86.07
84.56
81.07
76.41
71.47
66.86
62.82
59.19
55.66
52.01
48.35
45.06
42.38
40.22
37.99
34.88
30.35
24.35
17.33
9.88
2.37
-5.06
-12.21
-18.44
-22.56
-23.09
-19.04
-10.40
1.61
14.93
27.37
37.27
43.86
47.08
47.26
44.66
39.41
31.68
21.96
11.24
0.92
-7.71
-13.82
-17.36
-19.08
-20.11
-21.47
-23.70
-26.64
-29.65
-32.00
-33.17
-33.12
-32.22
-31.07
-30.24
-30.13
-30.84
-32.19
-33.58
-34.08
-32.45
-27.67
-19.30
-7.86
5.16
17.77
28.11
35.12
38.61
39.07
37.23
33.73
29.08
23.82
18.71
14.65
12.32
11.91
12.89
14.28
15.02
14.45
12.52
9.74
6.83
4.42
2.72
1.50
0.17
-2.03
-5.78
-11.57
-19.44
-28.93
-38.98
-48.00
-54.16
-55.89
-52.33
-43.75
-31.48
-17.48
-3.78
8.10
17.45
24.17
28.47
30.48
30.14
27.47
22.76
16.71
10.37
4.79
0.60
-2.14
-3.90
-5.35
-7.00
-8.91
-10.68
-11.73
-11.67
-10.55
-8.98
-7.84
-7.98
-9.98
-14.06
-20.20
-28.07
-36.88
-45.33
-51.64
-54.06
-51.50
-44.10
-33.18
-20.80
-8.91
1.30
9.54
16.09
21.27
25.03
27.01
26.83
24.50
20.56
15.91
11.49
7.89
5.15
2.91
0.55
-2.44
-6.30
-10.92
-16.01
-21.27
-26.49
-31.54
-36.28
-40.56
-44.26
-47.42
-50.29
-53.24
-56.41
-59.46
-61.52
-61.36
-57.95
-50.99
-41.04
-29.36
-17.41
-6.35
3.20
10.97
16.83
20.54
21.96
21.19
18.92
16.31
14.63
14.74
16.57
19.25
21.44
21.96
20.32
16.84
12.37
7.85
3.86
0.39
-2.96
-6.75
-11.33
-16.78
-22.92
-29.56
-36.49
-43.31
-49.31
-53.29
-53.84
-49.83
-40.96
-28.00
-12.65
2.95
16.93
28.00
35.56
39.53
40.18
38.05
33.85
28.51
22.91
17.82
13.72
10.73
8.67
7.13
5.62
3.81
1.69
-0.30
-1.35
-0.68
1.98
6.09
10.35
13.14
13.17
9.99
4.12
-3.10
-9.95
-14.63
-15.75
-12.54
-5.09
5.70
18.31
31.09
42.64
52.13
59.15
63.49
64.94
63.24
58.35
50.84
41.95
33.52
27.36
24.68
25.63
29.36
34.35
39.17
42.97
45.61
47.47
48.85
49.61
48.98
45.95
39.62
29.48
15.51
-1.83
-21.40
-41.19
-58.18
-68.87
-70.37
-61.54
-43.77
-20.59
3.48
24.61
40.70
51.57
58.15
61.44
61.82
59.01
52.67
42.97
30.97
18.34
6.86
-2.28
-8.90
-13.72
-17.92
-22.31
-26.93
-30.87
-32.87
-31.98
-28.28
-22.96
-17.94
-15.09
-15.55
-19.37
-25.58
-32.51
-38.22
-40.94
-39.46
-33.42
-23.54
-11.41
0.93
11.64
19.71
25.00
28.04
29.41
29.46
28.14
25.46
21.82
18.20
15.78
15.36
16.89
19.29
20.91
20.22
16.51
10.18
2.52
-5.00
-11.40
-16.74
-21.97
-28.46
-37.27
-48.62
-61.64
-74.49
-84.74
-89.99
-88.42
-79.39
-63.71
-43.46
-21.50
-0.65
16.94
30.11
38.47
42.01
40.77
34.96
25.23
13.03
0.53
-9.83
-16.17
-17.69
-15.00
-9.73
-3.97
0.48
2.68
2.63
1.08
-1.09
-3.41
-6.18
-10.32
-16.90
-26.50
-38.67
-51.77
-63.29
-70.53
-71.33
-64.86
-51.83
-34.35
-15.25
2.73
17.68
28.76
36.00
39.83
40.61
38.46
33.49
26.16
17.62
9.47
3.33
0.18
-0.03
1.77
4.25
6.39
7.98
9.53
11.72
14.81
18.17
20.42
20.05
16.11
8.59
-1.56
-12.76
-23.10
-30.70
-33.95
-31.89
-24.51
-12.94
0.77
14.36
26.10
35.33
42.24
47.37
50.82
52.03
50.10
44.45
35.50
24.78
14.55
6.96
3.27
3.47
6.43
10.50
14.28
17.14
19.20
20.95
22.55
23.47
22.51
18.25
9.70
-3.19
-19.22
-36.04
-50.57
-59.75
-61.35
-54.75
-41.27
-23.69
-5.38
10.88
23.62
32.68
38.61
41.90
42.42
39.54
32.73
22.14
8.96
-4.85
-17.20
-26.54
-32.36
-35.21
-36.28
-36.73
-37.22
-37.71
-37.84
-37.54
-37.38
-38.68
-42.91
-50.99
-62.71
-76.49
-89.74
-99.41
-102.83
-98.27
-85.44
-65.52
-40.89
-14.52
10.77
32.83
50.53
63.57
72.19
76.75
77.65
75.43
70.97
65.43
59.92
55.18
51.30
47.88
44.46
41.00
38.11
36.73
37.64
40.79
45.10
48.70
49.48
45.78
36.97
23.70
7.90
-7.63
-19.75
-25.81
-24.37
-15.69
-1.60
15.10
31.60
45.86
57.04
65.21
70.79
73.98
74.61
72.42
67.49
60.57
52.76
45.11
37.95
30.90
23.19
14.31
4.58
-4.86
-12.58
-17.47
-19.40
-19.24
-18.59
-19.21
-22.45
-28.94
-38.36
-49.32
-59.48
-66.05
-66.59
-59.96
-46.81
-29.43
-10.90
6.09
19.99
30.53
38.14
43.31
46.06
46.05
42.91
36.80
28.56
19.66
11.72
6.01
2.97
2.08
2.07
1.44
-0.81
-4.77
-9.78
-14.94
-19.90
-25.27
-32.39
-42.66
-56.76
-74.08
-92.55
-109.03
-119.95
-122.31
-114.62
-97.58
-73.97
-47.89
-23.41
-3.29
11.60
21.90
28.80
33.05
34.65
33.24
28.84
22.35
15.40
9.72
6.38
5.49
6.40
8.15
10.06
11.87
13.71
15.69
17.72
19.45
20.33
19.79
17.33
12.54
5.22
-4.33
-15.12
-25.40
-33.05
-36.18
-33.89
-26.59
-15.81
-3.66
7.96
17.74
25.04
29.68
31.65
30.90
27.50
21.74
14.21
5.79
-2.54
-9.90
-15.72
-19.84
-22.59
-24.66
-26.83
-29.65
-33.20
-37.04
-40.53
-43.20
-45.04
-46.55
-48.49
-51.46
-55.75
-61.14
-67.02
-72.48
-76.43
-77.79
-75.78
-70.20
-61.71
-51.77
-42.12
-34.26
-28.93
-26.06
-25.12
-25.53
-26.86
-28.82
-30.96
-32.54
-32.73
-30.98
-27.23
-21.95
-15.87
-9.55
-3.24
3.10
9.41
15.38
20.44
23.94
25.43
24.80
22.22
17.82
11.72
3.97
-5.09
-14.54
-22.85
-28.22
-29.12
-24.95
-16.33
-4.88
7.33
18.45
27.40
33.83
37.96
40.07
40.44
39.24
36.76
33.54
30.32
27.82
26.51
26.38
26.99
27.67
27.80
27.07
25.51
23.45
21.27
19.25
17.45
15.70
13.66
11.00
7.42
2.82
-2.58
-8.19
-12.97
-15.68
-15.10
-10.53
-2.03
9.54
22.71
35.75
47.01
55.21
59.61
60.11
57.28
52.24
46.31
40.71
36.21
33.01
30.90
29.42
28.17
26.86
25.43
23.95
22.57
21.41
20.50
19.74
18.86
17.56
15.52
12.47
8.14
2.38
-4.74
-12.69
-20.40
-26.42
-29.36
-28.41
-23.69
-16.28
-7.72
0.53
7.56
13.16
17.62
21.36
24.62
27.39
29.46
30.67
31.08
30.95
30.73
30.76
31.12
31.60
31.83
31.55
30.77
29.78
29.00
28.77
29.18
30.03
30.93
31.35
30.74
28.70
25.02
19.95
14.22
8.93
5.23
3.98
5.35
8.89
13.75
19.07
24.22
28.85
32.78
35.76
37.49
37.70
36.34
33.70
30.35
26.99
24.26
22.61
22.31
23.46
25.96
29.54
33.70
37.76
40.97
42.68
42.50
40.39
36.53
31.23
24.71
17.17
8.87
0.36
-7.54
-13.77
-17.40
-17.94
-15.65
-11.41
-6.39
-1.59
2.47
5.72
8.36
10.44
11.74
11.91
10.82
8.83
6.82
5.83
6.57
9.06
12.59
16.00
18.13
18.16
15.82
11.28
5.04
-2.30
-10.07
-17.73
-24.89
-31.38
-37.26
-42.67
-47.59
-51.78
-54.69
-55.67
-54.24
-50.24
-43.95
-35.95
-26.95
-17.60
-8.48
-0.10
6.98
12.24
15.38
16.47
16.09
15.15
14.53
14.74
15.68
16.68
16.83
15.39
12.14
7.38
1.73
-4.15
-9.84
-15.34
-21.00
-27.33
-34.80
-43.63
-53.44
-63.16
-71.10
-75.40
-74.68
-68.60
-58.09
-45.03
-31.53
-19.24
-8.95
-0.71
5.73
10.46
13.26
13.80
11.97
8.18
3.37
-1.38
-5.15
-7.54
-8.67
-9.04
-9.18
-9.45
-9.89
-10.38
-10.84
-11.30
-12.00
-13.29
-15.47
-18.74
-23.17
-28.55
-34.33
-39.54
-42.87
-43.04
-39.27
-31.73
-21.61
-10.71
-0.86
6.75
11.84
14.82
16.32
16.76
16.21
14.56
11.83
8.43
5.07
2.46
0.99
0.46
0.24
-0.48
-2.19
-4.89
-8.06
-11.05
-13.40
-15.07
-16.45
-18.18
-20.88
-24.93
-30.33
-36.49
-42.33
-46.32
-47.03
-43.57
-36.12
-25.93
-14.90
-4.87
3.03
8.61
12.31
14.61
15.73
15.59
14.12
11.71
9.13
7.35
7.04
8.21
10.25
12.25
13.40
13.33
12.20
10.41
8.45
6.60
4.86
3.03
0.77
-2.21
-6.09
-10.75
-15.69
-20.07
-22.84
-23.09
-20.31
-14.67
-7.00
1.50
9.61
16.42
21.48
24.72
26.26
26.26
24.87
22.31
19.06
15.76
13.07
11.47
10.95
11.07
11.17
10.65
9.26
7.21
4.97
3.01
1.47
0.15
-1.40
-3.61
-6.72
-10.71
-15.26
-19.88
-23.87
-26.43
-26.77
-24.36
-19.21
-11.95
-3.72
4.18
10.72
15.46
18.55
20.44
21.63
22.37
22.69
22.50
21.81
20.73
19.50
18.29
17.20
16.14
14.88
13.20
10.96
8.27
5.42
2.83
0.77
-0.77
-2.22
-4.19
-7.22
-11.49
-16.54
-21.44
-24.90
-25.72
-23.22
-17.42
-9.12
0.37
9.66
17.66
23.81
28.12
30.87
32.32
32.50
31.29
28.55
24.37
19.17
13.52
7.92
2.57
-2.60
-7.76
-12.92
-17.87
-22.34
-26.14
-29.43
-32.66
-36.30
-40.61
-45.43
-50.37
-55.10
-59.50
-63.59
-67.26
-69.96
-70.70
-68.53
-62.99
-54.46
-44.06
-33.24
-23.15
-14.42
-7.07
-0.93
4.12
8.03
10.73
12.42
13.66
15.16
17.49
20.73
24.43
27.83
30.29
31.56
31.93
32.06
32.71
34.32
36.89
40.02
42.87
44.36
43.24
38.41
29.47
17.18
3.63
-8.22
-15.62
-17.22
-13.62
-7.18
-0.81
3.24
4.29
3.10
1.12
-0.47
-1.34
-1.83
-2.36
-2.94
-3.05
-2.08
0.21
3.45
6.82
9.51
11.10
11.64
11.46
10.92
10.22
9.41
8.58
7.90
7.59
7.64
7.62
6.79
4.37
-0.05
-6.26
-13.49
-20.64
-26.61
-30.54
-31.92
-30.70
-27.22
-22.09
-16.07
-9.82
-3.80
1.67
6.24
9.52
11.20
11.33
10.56
10.07
11.16
14.62
20.28
27.11
33.75
39.06
42.57
44.37
44.69
43.57
40.73
35.94
29.34
21.72
14.18
7.77
2.99
-0.38
-2.92
-5.12
-6.90
-7.61
-6.37
-2.61
3.54
11.21
19.09
25.92
30.87
33.66
34.50
33.80
31.95
29.27
26.07
22.75
19.89
18.18
18.19
20.05
23.19
26.36
27.97
26.75
22.27
15.21
7.04
-0.61
-6.57
-10.52
-12.89
-14.45
-15.97
-17.94
-20.59
-23.87
-27.39
-30.22
-30.97
-28.20
-21.07
-10.06
2.95
15.22
24.24
28.70
28.76
25.72
21.13
16.21
11.45
6.91
2.58
-1.36
-4.50
-6.39
-6.83
-5.96
-4.30
-2.60
-1.67
-2.15
-4.24
-7.68
-11.75
-15.70
-19.09
-21.97
-24.76
-27.89
-31.47
-35.29
-38.85
-41.61
-43.13
-42.98
-40.86
-36.58
-30.30
-22.59
-14.34
-6.48
0.32
5.81
10.02
13.11
15.07
15.71
14.84
12.45
8.90
4.79
0.83
-2.44
-4.84
-6.56
-8.06
-9.82
-12.09
-14.80
-17.58
-20.02
-21.81
-22.95
-23.71
-24.45
-25.63
-27.62
-30.87
-35.73
-42.35
-50.40
-58.87
-66.20
-70.71
-71.15
-67.20
-59.55
-49.68
-39.20
-29.42
-21.06
-14.31
-9.14
-5.49
-3.39
-2.81
-3.54
-5.10
-6.82
-8.05
-8.33
-7.58
-6.06
-4.29
-2.91
-2.48
-3.28
-5.25
-7.96
-10.81
-13.37
-15.58
-17.78
-20.54
-24.32
-29.25
-35.07
-41.13
-46.63
-50.67
-52.38
-51.04
-46.25
-38.15
-27.49
-15.56
-3.80
6.55
14.75
20.61
24.29
26.07
26.26
25.10
22.95
20.32
17.82
16.05
15.40
15.89
17.14
18.50
19.28
19.01
17.59
15.27
12.53
9.79
7.28
4.94
2.51
-0.34
-3.94
-8.51
-14.12
-20.54
-27.13
-32.84
-36.42
-36.74
-33.25
-26.19
-16.56
-5.81
4.66
13.79
21.04
26.24
29.43
30.77
30.57
29.28
27.54
26.01
25.22
25.36
26.25
27.46
28.49
28.91
28.57
27.46
25.73
23.59
21.22
18.79
16.37
13.89
11.13
7.73
3.36
-2.19
-8.76
-15.84
-22.49
-27.60
-30.10
-29.25
-24.90
-17.56
-8.30
1.55
10.71
18.35
24.11
28.08
30.49
31.59
31.48
30.19
27.93
25.09
22.34
20.34
19.52
19.84
20.74
21.48
21.36
20.09
17.86
15.14
12.45
10.05
7.79
5.31
2.15
-2.00
-7.24
-13.40
-20.14
-26.85
-32.69
-36.64
-37.75
-35.42
-29.69
-21.30
-11.45
-1.47
7.56
15.01
20.69
24.62
26.92
27.69
27.09
25.39
23.02
20.57
18.57
17.36
17.02
17.30
17.73
17.83
17.24
15.87
13.90
11.64
9.36
7.15
4.96
2.62
-0.06
-3.23
-7.02
-11.47
-16.39
-21.25
-25.11
-26.88
-25.71
-21.43
-14.68
-6.69
1.21
8.12
13.70
18.10
21.53
24.02
25.42
25.55
24.46
22.48
20.15
17.97
16.29
15.22
14.66
14.36
14.05
13.44
12.41
10.96
9.29
7.67
6.30
5.15
3.99
2.41
-0.05
-3.69
-8.55
-14.29
-20.08
-24.82
-27.33
-26.77
-22.98
-16.54
-8.59
-0.41
7.06
13.40
18.60
22.77
25.93
27.92
28.53
27.72
25.81
23.41
21.18
19.63
18.86
18.66
18.56
18.12
17.10
15.48
13.45
11.25
9.08
7.07
5.25
3.60
2.01
0.23
-2.08
-5.27
-9.44
-14.28
-18.99
-22.53
-23.91
-22.53
-18.45
-12.29
-5.02
2.32
8.96
14.48
18.74
21.79
23.68
24.39
23.92
22.33
19.90
17.11
14.50
12.51
11.33
10.82
10.63
10.41
9.91
9.07
8.02
6.91
5.82
4.72
3.52
2.03
0.10
-2.40
-5.50
-9.14
-13.10
-16.92
-19.93
-21.44
-20.88
-18.12
-13.49
-7.72
-1.66
4.06
9.09
13.41
17.01
19.80
21.58
22.16
21.58
20.22
18.72
17.71
17.58
18.30
19.52
20.69
21.36
21.28
20.53
19.38
18.23
17.44
17.18
17.47
18.09
18.73
19.05
18.79
17.88
16.59
15.52
15.55
17.55
22.05
29.10
38.19
48.54
59.41
70.31
81.00
91.25
100.52
107.83
111.85
111.19
104.76
92.08
73.55
50.55
25.26
0.39
-21.53
-38.72
-50.57
-57.61
-61.14
-62.58
-62.99
-62.94
-62.59
-62.04
-61.49
-61.27
-61.71
-62.95
-64.86
-67.03
-68.94
-69.99
-69.65
-67.57
-63.60
-57.87
-50.80
-43.01
-35.21
-28.01
-21.80
-16.73
-12.77
-9.80
-7.72
-6.41
-5.70
-5.27
-4.75
-3.77
-2.21
-0.24
1.74
3.29
4.06
3.96
3.10
1.72
0.08
-1.62
-3.20
-4.55
-5.63
-6.51
-7.40
-8.58
-10.30
-12.65
-15.52
-18.48
-20.95
-22.26
-21.85
-19.47
-15.29
-9.87
-4.03
1.46
6.08
9.65
12.26
14.06
15.12
15.41
14.93
13.77
12.23
10.69
9.50
8.86
8.79
9.08
9.45
9.68
9.62
9.30
8.88
8.53
8.41
8.56
8.89
9.24
9.40
9.15
8.37
7.09
5.57
4.29
3.90
5.07
8.28
13.64
20.91
29.50
38.64
47.69
56.17
63.98
71.29
78.42
85.68
93.19
100.90
108.67
116.45
124.49
133.20
143.07
154.40
167.01
180.20
192.79
203.45
211.01
214.69
214.19
209.61
201.29
189.62
175.06
158.00
138.83
117.97
95.91
73.29
50.96
29.93
11.20
-4.44
-16.55
-25.16
-30.77
-34.25
-36.64
-38.94
-41.80
-45.34
-49.14
-52.50
-54.88
-56.27
-57.24
-58.73
-61.52
-65.81
-71.13
-76.55
-81.19
-84.53
-86.56
-87.65
-88.21
-88.59
-88.90
-89.19
-89.48
-89.86
-90.43
-91.21
-92.04
-92.73
-93.10
-93.15
-93.15
-93.33
-93.57
-93.27
-91.42
-87.00
-79.46
-69.03
-56.59
-43.42
-30.88
-20.32
-12.99
-9.90
-11.63
-17.91
-27.49
-38.30
-48.03
-54.85
-58.03
-58.07
-56.33
-54.48
-53.85
-55.09
-58.11
-62.26
-66.58
-70.11
-72.08
-72.05
-69.95
-66.21
-61.67
-57.52
-54.95
-54.75
-56.86
-60.23
-63.00
-63.18
-59.41
-51.63
-41.12
-30.01
-20.33
-13.27
-8.91
-6.46
-4.97
-3.82
-3.02
-2.86
-3.54
-4.83
-6.11
-6.67
-6.10
-4.56
-2.71
-1.37
-1.12
-1.98
-3.38
-4.33
-3.84
-1.21
3.71
10.61
18.88
27.90
37.08
45.88
53.77
60.29
65.30
69.21
73.05
78.21
85.91
96.68
110.08
124.72
138.75
150.31
158.05
161.20
159.53
153.22
142.79
129.36
114.60
100.46
88.61
79.72
73.16
67.28
60.24
50.82
39.00
25.71
12.19
-0.71
-12.64
-23.64
-33.56
-41.89
-47.94
-51.37
-52.69
-53.22
-54.63
-58.30
-64.77
-73.41
-82.83
-91.34
-97.61
-100.95
-101.44
-99.63
-96.33
-92.33
-88.38
-85.06
-82.82
-81.87
-82.11
-83.22
-84.76
-86.34
-87.74
-88.80
-89.36
-89.23
-88.25
-86.38
-83.84
-80.97
-78.03
-75.08
-71.95
-68.43
-64.48
-60.35
-56.46
-53.28
-50.96
-49.35
-48.05
-46.65
-44.96
-43.10
-41.31
-39.81
-38.58
-37.26
-35.39
-32.54
-28.62
-23.92
-19.04
-14.61
-11.05
-8.54
-7.02
-6.36
-6.47
-7.34
-9.02
-11.44
-14.44
-17.74
-20.99
-23.92
-26.43
-28.58
-30.51
-32.37
-34.15
-35.70
-36.73
-36.97
-36.43
-35.48
-34.94
-35.74
-38.57
-43.40
-49.44
-55.26
-59.31
-60.27
-57.42
-50.64
-40.50
-28.42
-16.61
-7.83
-4.58
-8.17
-17.93
-31.25
-44.56
-54.83
-60.80
-63.21
-63.86
-64.13
-63.83
-61.07
-53.35
-39.09
-18.68
5.40
29.61
50.66
66.70
77.44
83.68
86.33
85.73
81.65
73.73
62.10
47.64
31.86
16.41
2.74
-8.16
-15.66
-19.35
-19.09
-15.04
-7.72
2.00
12.85
23.56
32.85
39.76
43.65
44.21
41.42
35.76
28.40
21.32
16.89
16.90
21.64
29.45
37.22
41.65
40.75
34.59
25.13
15.06
6.39
-0.23
-5.35
-9.99
-14.77
-19.82
-25.09
-30.64
-36.70
-43.20
-49.43
-54.02
-55.57
-53.18
-47.10
-38.67
-29.78
-22.09
-16.34
-12.15
-8.38
-3.87
1.99
8.85
15.64
21.08
24.35
25.49
25.50
25.85
27.89
32.27
38.69
45.80
51.54
53.56
49.90
39.83
24.35
5.95
-12.30
-28.18
-41.24
-52.68
-64.38
-77.59
-92.09
-106.44
-118.90
-128.29
-134.35
-137.16
-136.52
-131.60
-121.37
-105.35
-84.23
-59.90
-34.85
-11.51
8.32
23.59
34.00
39.93
42.29
42.47
41.94
42.06
43.56
46.45
49.98
53.02
54.36
53.22
49.47
43.59
36.54
29.35
22.79
17.20
12.49
8.27
4.01
-0.76
-6.23
-12.21
-17.94
-22.09
-23.09
-19.64
-11.17
1.88
18.15
35.81
53.08
68.50
81.07
90.10
95.08
95.83
92.65
86.49
78.89
71.62
66.17
63.28
62.82
63.80
64.85
64.74
62.87
59.55
55.84
52.85
51.09
49.96
47.90
42.97
33.78
19.96
2.54
-16.38
-34.08
-47.88
-55.75
-56.79
-51.30
-40.74
-27.29
-13.24
-0.44
10.20
18.62
25.34
30.84
35.23
38.22
39.21
37.80
34.13
29.02
23.84
20.08
18.88
20.57
24.44
28.96
32.30
33.01
30.48
25.14
18.15
10.82
4.18
-1.48
-6.45
-11.34
-16.44
-21.46
-25.58
-27.90
-28.04
-26.41
-23.94
-21.36
-18.52
-14.28
-7.08
4.06
18.78
35.17
50.52
62.34
69.19
70.93
68.33
62.58
55.01
46.95
39.67
34.07
30.46
28.39
26.94
25.12
22.28
18.37
13.84
9.33
5.37
2.26
0.03
-1.54
-2.83
-4.31
-6.28
-8.77
-11.44
-13.69
-14.75
-13.96
-10.87
-5.34
2.24
10.96
19.48
26.48
31.06
32.99
32.65
30.76
28.14
25.45
23.26
22.06
22.11
23.38
25.48
27.73
29.41
29.97
29.17
27.13
24.15
20.57
16.67
12.66
8.65
4.66
0.66
-3.35
-7.09
-9.94
-11.03
-9.56
-5.27
1.32
9.04
16.54
22.79
27.40
30.59
32.97
35.17
37.51
39.88
41.96
43.46
44.21
44.18
43.33
41.54
38.65
34.69
29.88
24.52
18.82
12.82
6.41
-0.44
-7.47
-14.22
-20.16
-24.89
-28.26
-30.53
-32.22
-33.92
-36.07
-38.76
-41.61
-43.86
-44.49
-42.71
-38.28
-31.71
-24.13
-16.80
-10.67
-6.11
-2.98
-1.09
-0.35
-0.76
-2.10
-3.60
-3.95
-1.74
3.78
12.14
21.51
29.18
32.66
30.63
23.51
13.21
2.29
-7.22
-14.46
-19.91
-24.80
-30.30
-36.80
-43.67
-49.57
-52.98
-52.86
-48.93
-41.71
-32.29
-21.98
-12.05
-3.55
2.74
6.31
7.04
5.28
1.77
-2.44
-6.32
-9.12
-10.58
-10.89
-10.49
-9.84
-9.23
-8.83
-8.67
-8.79
-9.17
-9.68
-10.11
-10.29
-10.32
-10.66
-11.88
-14.38
-18.00
-21.91
-24.89
-25.83
-24.13
-19.92
-13.85
-6.65
1.19
9.53
18.35
27.36
35.75
42.39
46.26
47.06
45.39
42.40
39.31
36.74
34.70
32.92
31.29
29.99
29.30
29.20
29.37
29.27
28.41
26.70
24.50
22.39
20.74
19.50
18.15
15.98
12.50
7.81
2.68
-1.66
-4.00
-3.72
-0.96
3.40
8.09
11.88
13.93
13.79
11.44
7.31
2.41
-1.85
-4.16
-3.94
-1.76
0.96
2.70
2.55
0.59
-2.29
-5.01
-6.81
-7.50
-7.38
-7.03
-7.04
-7.77
-9.24
-11.34
-13.89
-16.84
-20.09
-23.42
-26.32
-28.11
-28.16
-26.26
-22.72
-18.27
-13.72
-9.72
-6.54
-4.18
-2.53
-1.50
-0.76
0.23
2.03
4.82
8.15
11.14
12.97
13.28
12.41
11.08
10.02
9.74
10.37
11.78
13.68
15.67
17.32
18.19
17.95
16.50
14.01
10.82
7.25
3.53
-0.24
-3.80
-6.48
-7.28
-5.22
0.04
7.68
15.63
21.21
22.06
17.26
7.81
-3.82
-14.68
-22.58
-26.80
-28.08
-28.01
-28.19
-29.69
-32.82
-37.19
-41.90
-45.80
-47.83
-47.41
-44.69
-40.56
-36.20
-32.68
-30.57
-29.90
-30.45
-31.98
-34.27
-36.95
-39.29
-40.34
-39.33
-36.18
-31.63
-26.94
-23.19
-20.74
-18.99
-16.84
-13.39
-8.48
-2.88
2.03
4.95
5.16
2.85
-1.00
-5.02
-7.88
-8.70
-7.24
-3.74
1.17
6.78
12.55
18.15
23.38
27.96
31.40
32.94
31.79
27.59
20.70
12.30
4.04
-2.55
-6.63
-8.31
-8.47
-8.20
-8.25
-8.80
-9.62
-10.50
-11.62
-13.52
-16.76
-21.39
-26.65
-31.17
-33.43
-32.54
-28.58
-22.59
-16.22
-10.99
-7.84
-6.80
-7.16
-7.87
-7.95
-6.96
-5.14
-3.22
-2.17
-2.76
-5.27
-9.38
-14.22
-18.61
-21.31
-21.27
-17.89
-11.08
-1.35
10.29
22.54
34.08
43.89
51.36
56.39
59.26
60.64
61.40
62.67
65.64
71.19
79.39
89.19
98.58
105.21
107.43
105.12
99.83
94.03
89.92
88.43
88.85
89.50
88.73
85.66
80.39
73.69
66.60
60.25
55.64
53.43
53.56
54.91
55.53
53.53
47.97
39.45
29.63
20.25
12.06
4.70
-2.79
-11.03
-19.86
-28.54
-36.45
-43.63
-50.68
-58.18
-66.02
-73.31
-78.87
-81.90
-82.51
-81.61
-80.40
-79.80
-80.15
-81.42
-83.45
-86.22
-89.82
-94.33
-99.40
-104.12
-107.14
-107.15
-103.50
-96.59
-87.88
-79.29
-72.55
-68.69
-67.92
-69.93
-74.44
-81.38
-90.50
-100.67
-109.34
-113.04
-108.76
-95.64
-75.84
-53.91
-34.71
-21.21
-13.09
-7.26
0.36
12.73
30.38
51.60
73.68
94.19
111.77
125.90
136.43
143.20
146.17
145.80
143.27
140.34
138.85
139.99
143.91
149.59
155.20
158.54
157.60
151.03
138.33
120.04
97.57
72.92
48.16
24.92
4.16
-13.79
-28.90
-41.23
-50.89
-58.13
-63.44
-67.51
-70.93
-73.94
-76.38
-77.85
-78.03
-76.92
-74.89
-72.47
-70.09
-67.92
-65.84
-63.68
-61.29
-58.60
-55.48
-51.74
-47.16
-41.59
-35.09
-27.98
-20.77
-14.00
-8.00
-2.87
1.43
4.95
7.67
9.62
11.10
12.76
15.46
19.85
26.06
33.60
41.60
49.21
55.93
61.72
66.81
71.50
76.07
80.75
85.79
91.30
96.89
101.47
103.48
101.44
94.71
83.82
70.20
55.54
41.06
27.18
13.79
0.81
-11.35
-21.77
-29.58
-34.53
-37.43
-39.85
-43.39
-48.96
-56.28
-63.94
-70.06
-73.11
-72.44
-68.62
-63.08
-57.39
-52.62
-48.97
-45.83
-42.28
-37.68
-32.03
-26.04
-20.73
-17.03
-15.47
-16.18
-18.96
-23.42
-28.88
-34.21
-37.82
-37.99
-33.49
-24.22
-11.37
2.91
16.37
27.54
36.09
42.61
48.05
53.09
57.70
61.30
63.00
62.05
58.09
51.30
42.27
31.93
21.24
10.98
1.57
-6.94
-14.75
-22.03
-28.76
-34.71
-39.63
-43.49
-46.66
-49.88
-54.02
-59.59
-66.56
-74.08
-80.89
-85.76
-88.05
-87.98
-86.29
-83.83
-81.22
-78.70
-76.39
-74.48
-73.22
-72.44
-71.16
-67.43
-59.07
-44.80
-25.43
-3.99
15.33
29.00
35.67
36.37
33.45
28.77
22.53
13.39
-0.17
-18.26
-38.85
-58.48
-74.09
-84.61
-91.49
-97.67
-105.68
-116.09
-127.14
-135.64
-138.56
-134.32
-123.26
-107.39
-89.80
-73.66
-61.64
-55.04
-53.38
-54.29
-54.27
-50.08
-40.14
-25.29
-8.34
7.32
19.32
27.13
31.88
35.20
38.16
40.82
42.61
43.14
42.80
42.67
43.90
47.01
51.52
56.12
59.23
59.77
57.54
53.25
48.17
43.47
39.81
37.32
35.79
35.22
36.05
39.03
44.90
53.79
65.08
77.35
88.78
97.50
102.11
101.99
97.59
90.42
82.87
77.43
75.75
77.72
81.41
83.81
82.44
76.74
68.39
60.29
54.53
50.78
46.21
37.08
21.18
-0.41
-23.47
-42.62
-54.17
-57.64
-55.40
-50.61
-45.16
-39.02
-31.35
-21.98
-12.17
-3.86
1.76
5.25
8.43
13.05
19.29
25.67
30.16
31.53
30.17
27.08
22.42
14.78
2.21
-15.86
-37.34
-57.89
-73.13
-81.03
-82.75
-81.52
-80.33
-80.05
-79.43
-76.57
-70.79
-63.42
-56.79
-52.42
-49.71
-46.23
-39.49
-28.61
-15.02
-1.41
9.90
18.39
25.41
33.25
43.55
56.18
69.27
80.17
86.60
87.60
83.70
76.41
67.11
56.47
44.36
30.69
16.32
3.52
-4.83
-6.64
-1.97
6.43
14.17
17.14
13.26
3.25
-9.86
-22.34
-31.28
-35.54
-35.63
-33.15
-29.98
-27.75
-27.42
-28.98
-31.48
-33.41
-33.38
-30.90
-26.68
-22.15
-18.67
-16.82
-16.32
-16.66
-17.74
-20.19
-24.91
-32.14
-40.96
-49.47
-55.64
-58.47
-58.52
-57.59
-57.86
-60.89
-67.09
-75.81
-85.64
-94.92
-101.95
-105.17
-103.37
-96.01
-83.42
-66.90
-48.49
-30.41
-14.47
-1.59
8.22
15.53
20.96
24.78
26.88
27.02
25.30
22.39
19.28
16.92
15.75
15.60
15.99
16.54
17.18
18.10
19.34
20.61
21.31
20.75
18.50
14.46
8.99
2.75
-3.34
-8.15
-10.43
-9.12
-3.70
5.40
16.91
29.18
40.73
50.85
59.63
67.65
75.37
82.56
88.24
91.14
90.32
85.71
78.11
68.84
59.20
50.17
42.34
36.17
32.06
30.22
30.36
31.51
32.25
31.17
27.46
21.24
13.31
4.83
-3.03
-9.28
-12.91
-13.19
-9.83
-3.29
5.16
13.68
20.63
25.05
26.99
27.37
27.40
27.97
29.32
30.98
32.16
32.20
30.93
28.76
26.45
24.76
23.97
23.89
23.95
23.59
22.48
20.58
18.02
14.80
10.75
5.54
-1.12
-9.22
-18.31
-27.50
-35.42
-40.62
-41.85
-38.49
-30.72
-19.52
-6.43
6.95
19.31
29.87
38.35
44.81
49.35
52.07
53.07
52.64
51.43
50.45
50.67
52.62
55.90
59.22
60.85
59.43
54.60
47.30
39.29
32.40
27.70
25.23
24.12
23.17
21.51
18.93
16.00
13.75
13.23
15.01
18.90
23.84
28.39
31.41
32.57
32.56
32.78
34.60
38.76
45.20
53.17
61.95
71.00
79.92
88.17
94.83
98.76
99.14
95.75
88.83
78.71
65.33
48.45
28.32
6.17
-15.56
-34.13
-47.79
-56.55
-62.13
-66.80
-71.81
-76.49
-78.79
-76.70
-69.84
-60.08
-50.63
-44.41
-42.44
-43.41
-44.55
-43.32
-38.68
-31.52
-23.95
-17.94
-14.35
-12.71
-11.88
-10.94
-9.83
-9.24
-10.10
-12.95
-17.65
-23.57
-29.82
-35.63
-40.64
-44.92
-48.87
-53.01
-57.62
-62.43
-66.62
-68.95
-68.34
-64.39
-57.55
-49.06
-40.47
-33.08
-27.61
-24.30
-23.08
-23.84
-26.41
-30.55
-35.72
-40.96
-44.99
-46.46
-44.32
-38.19
-28.54
-16.66
-4.45
6.10
13.38
16.62
15.91
12.04
6.07
-1.02
-8.51
-15.92
-22.83
-28.78
-33.14
-35.29
-34.84
-31.95
-27.48
-22.88
-19.83
-19.64
-22.76
-28.34
-34.47
-38.71
-38.91
-33.96
-24.08
-10.57
4.80
20.39
34.91
47.46
57.22
63.39
65.35
63.06
57.21
49.21
40.65
32.65
25.57
19.01
12.25
4.76
-3.58
-12.46
-21.29
-29.32
-35.83
-40.11
-41.47
-39.34
-33.33
-23.55
-10.75
3.68
18.00
30.67
40.87
48.69
54.99
60.78
66.54
71.71
74.88
74.36
69.12
59.37
46.65
33.21
21.22
12.06
6.07
2.69
0.97
0.05
-0.53
-1.06
-1.92
-3.77
-7.25
-12.51
-18.68
-24.01
-26.40
-24.44
-18.06
-8.51
2.22
12.37
20.88
27.34
31.48
32.83
30.78
25.22
17.15
8.73
2.59
0.70
3.60
10.08
17.76
23.98
26.81
25.66
21.50
16.41
12.66
11.50
12.34
12.85
10.03
1.78
-11.75
-27.97
-42.92
-53.19
-57.47
-56.81
-53.63
-50.05
-46.82
-43.35
-38.68
-32.62
-26.27
-21.61
-20.41
-23.35
-29.65
-37.44
-44.64
-49.82
-52.61
-53.49
-53.39
-53.11
-53.06
-53.06
-52.51
-50.58
-46.59
-40.30
-32.22
-23.46
-15.57
-9.97
-7.50
-8.02
-10.51
-13.37
-15.03
-14.53
-11.91
-8.12
-4.59
-2.41
-1.84
-2.12
-1.96
-0.29
3.07
7.25
10.83
12.60
12.27
10.52
8.60
7.59
7.82
8.70
9.13
8.12
5.30
1.09
-3.71
-8.45
-13.11
-18.31
-24.87
-33.19
-42.78
-52.24
-59.72
-63.62
-63.10
-58.25
-49.90
-39.27
-27.61
-16.03
-5.38
3.78
11.35
17.54
22.76
27.30
31.25
34.43
36.69
37.99
38.55
38.63
38.43
37.91
36.92
35.35
33.31
31.08
28.92
26.88
24.66
21.72
17.53
11.83
4.77
-3.09
-10.95
-17.89
-22.96
-25.43
-24.83
-21.17
-14.90
-6.92
1.69
9.90
16.90
22.15
25.34
26.39
25.39
22.64
18.61
13.87
9.04
4.75
1.65
0.32
1.13
4.00
8.33
13.03
16.99
19.53
20.75
21.47
22.71
24.92
27.59
29.41
29.13
26.35
21.90
17.32
13.94
12.11
11.06
9.72
7.57
5.19
3.90
4.78
7.79
11.69
14.61
15.18
13.22
9.54
5.39
1.59
-1.79
-5.19
-9.03
-13.37
-17.87
-22.13
-26.00
-29.75
-33.95
-39.20
-45.80
-53.66
-62.28
-70.86
-78.43
-84.07
-87.06
-86.92
-83.46
-76.68
-66.85
-54.43
-40.24
-25.43
-11.34
0.80
10.18
16.60
20.38
22.04
22.16
21.12
19.25
16.94
14.67
12.89
11.81
11.34
11.00
10.22
8.56
5.91
2.48
-1.30
-5.04
-8.53
-11.80
-15.12
-18.76
-22.91
-27.47
-32.03
-35.96
-38.47
-38.88
-36.83
-32.43
-26.29
-19.37
-12.67
-6.96
-2.56
0.59
2.73
4.13
4.95
5.29
5.36
5.35
5.44
5.60
5.47
4.62
2.72
-0.18
-3.63
-6.98
-9.74
-11.78
-13.39
-14.99
-16.92
-19.21
-21.69
-23.98
-25.59
-25.83
-23.80
-18.39
-8.64
5.73
23.99
44.30
64.17
81.24
93.98
101.99
105.74
106.06
103.58
98.77
92.19
84.89
78.36
73.95
72.24
72.53
73.11
72.15
68.81
63.70
58.65
55.64
55.63
57.98
60.76
61.79
59.70
54.56
47.57
40.33
34.04
29.15
25.62
23.39
22.80
24.51
29.03
36.15
44.77
53.22
59.97
64.29
66.38
67.12
67.39
67.55
67.43
66.54
64.61
61.79
58.63
55.89
54.21
54.06
55.71
59.24
64.48
70.98
78.02
84.77
90.38
94.18
95.60
94.29
90.23
84.07
77.04
70.77
66.56
64.81
64.81
65.12
64.49
62.38
58.98
54.61
48.90
40.59
27.99
10.18
-12.14
-36.57
-59.96
-79.60
-94.25
-104.20
-110.65
-114.86
-117.55
-118.87
-118.76
-117.34
-114.99
-112.07
-108.71
-104.79
-100.09
-94.65
-88.80
-82.88
-76.87
-70.05
-61.24
-49.38
-34.23
-16.79
1.07
17.40
31.01
41.79
50.48
57.98
64.89
71.28
76.86
81.14
83.50
83.16
79.41
72.05
61.72
49.98
38.67
29.09
21.32
14.40
7.08
-1.19
-10.00
-18.56
-26.68
-35.41
-46.78
-62.76
-83.83
-108.26
-132.31
-151.54
-162.62
-164.65
-159.50
-150.94
-142.97
-138.20
-136.97
-137.76
-138.38
-137.30
-134.33
-130.33
-126.30
-122.34
-117.41
-109.90
-98.56
-83.42
-65.93
-48.52
-33.61
-22.75
-16.16
-12.91
-11.56
-10.93
-10.56
-10.73
-12.06
-14.94
-19.20
-24.17
-29.02
-33.09
-36.04
-37.78
-38.20
-37.18
-34.50
-30.15
-24.35
-17.61
-10.58
-3.94
1.73
5.98
8.48
9.09
7.98
5.64
2.84
0.39
-1.07
-1.35
-0.71
0.23
0.72
0.18
-1.58
-4.34
-7.53
-10.55
-12.95
-14.65
-15.99
-17.52
-19.84
-23.29
-27.88
-33.17
-38.36
-42.50
-44.72
-44.53
-41.95
-37.52
-32.06
-26.35
-20.88
-15.71
-10.65
-5.46
-0.04
5.59
11.32
17.03
22.60
27.87
32.63
36.67
39.87
42.19
43.74
44.58
44.78
44.36
43.46
42.34
41.33
40.67
40.30
39.86
38.80
36.69
33.50
29.65
25.91
23.13
21.95
22.55
24.65
27.52
30.35
32.39
33.27
33.03
31.97
30.40
28.45
25.98
22.76
18.71
14.15
9.75
6.33
4.40
3.96
4.47
5.11
5.18
4.36
2.81
0.92
-0.96
-2.87
-5.10
-8.13
-12.28
-17.54
-23.51
-29.48
-34.50
-37.64
-38.06
-35.17
-28.74
-18.92
-6.24
8.46
24.16
39.74
54.06
65.98
74.45
78.73
78.61
74.50
67.34
58.28
48.46
38.84
30.18
23.11
18.10
15.46
15.14
16.62
18.91
20.83
21.39
20.15
17.24
13.27
8.78
4.07
-0.89
-6.15
-11.46
-16.08
-18.92
-19.04
-16.29
-11.53
-6.31
-2.16
0.24
1.31
2.26
4.30
7.93
12.60
17.10
20.34
21.94
22.41
22.80
24.09
26.59
29.89
33.08
35.20
35.65
34.39
31.80
28.62
25.78
24.15
24.41
26.77
30.78
35.24
38.39
38.48
34.49
26.67
16.55
6.39
-1.77
-6.88
-9.20
-9.88
-10.26
-11.35
-13.68
-17.44
-22.65
-29.13
-36.26
-42.95
-47.71
-49.23
-46.98
-41.49
-34.24
-27.11
-21.71
-19.00
-19.14
-21.72
-25.95
-30.85
-35.51
-39.19
-41.48
-42.44
-42.55
-42.62
-43.53
-45.98
-50.18
-55.74
-61.64
-66.54
-69.10
-68.42
-64.27
-57.11
-48.01
-38.22
-28.81
-20.47
-13.41
-7.64
-3.08
0.24
2.27
3.08
2.96
2.34
1.63
0.99
0.36
-0.52
-1.81
-3.48
-5.29
-6.93
-8.23
-9.19
-10.00
-10.92
-12.23
-14.19
-17.04
-20.91
-25.67
-30.85
-35.54
-38.63
-39.17
-36.68
-31.39
-24.12
-16.02
-8.11
-1.01
5.08
10.23
14.54
17.90
20.07
20.81
20.08
18.21
15.82
13.64
12.20
11.62
11.62
11.63
11.09
9.64
7.25
4.15
0.66
-2.90
-6.31
-9.34
-11.71
-13.11
-13.40
-12.82
-12.00
-11.73
-12.64
-14.68
-17.12
-18.79
-18.76
-16.80
-13.56
-10.02
-6.92
-4.38
-1.95
0.89
4.38
8.43
12.89
17.75
23.05
28.47
33.03
35.21
33.60
27.77
18.71
8.58
-0.16
-5.75
-7.67
-6.51
-3.48
0.11
3.26
5.28
5.82
4.75
2.26
-1.10
-4.40
-6.46
-6.06
-2.33
4.88
14.88
26.22
37.15
46.05
51.99
54.74
54.69
52.46
48.65
43.70
38.01
31.94
25.91
20.27
15.23
10.85
7.09
3.92
1.32
-0.72
-2.33
-3.71
-5.12
-6.73
-8.60
-10.68
-12.93
-15.37
-18.07
-21.02
-23.87
-25.86
-25.94
-23.11
-16.90
-7.56
4.01
16.60
29.08
40.66
50.90
59.53
66.29
70.90
73.13
72.94
70.60
66.58
61.40
55.51
49.28
43.05
37.19
32.05
27.90
24.89
23.03
22.27
22.47
23.39
24.64
25.61
25.50
23.52
19.17
12.46
4.03
-4.92
-12.97
-18.87
-21.88
-21.99
-19.77
-16.13
-11.99
-8.04
-4.73
-2.34
-1.12
-1.23
-2.67
-5.14
-8.03
-10.61
-12.33
-13.02
-12.98
-12.80
-13.16
-14.49
-16.84
-19.88
-22.99
-25.56
-27.14
-27.71
-27.62
-27.54
-28.20
-30.17
-33.63
-38.37
-43.80
-49.08
-53.27
-55.51
-55.12
-51.81
-45.73
-37.46
-27.82
-17.67
-7.65
1.82
10.52
18.32
24.97
30.16
33.62
35.36
35.71
35.35
34.98
35.09
35.70
36.42
36.68
36.02
34.28
31.73
28.79
25.84
23.06
20.40
17.72
14.94
12.06
9.13
6.20
3.37
0.78
-1.33
-2.66
-2.99
-2.23
-0.55
1.68
4.04
6.21
8.10
9.78
11.44
13.15
14.83
16.20
16.99
17.09
16.70
16.34
16.69
18.28
21.31
25.51
30.36
35.33
40.13
44.81
49.63
54.81
60.29
65.66
70.26
73.41
74.60
73.62
70.56
65.80
59.92
53.59
47.52
42.29
38.23
35.32
33.33
31.88
30.71
29.75
29.09
28.97
29.47
30.53
31.81
32.76
32.80
31.48
28.65
24.58
19.98
15.68
12.48
10.77
10.40
10.73
10.86
9.90
7.23
2.58
-4.03
-12.30
-21.79
-31.94
-42.09
-51.48
-59.32
-65.04
-68.56
-70.45
-71.67
-73.05
-74.68
-75.73
-74.79
-70.71
-63.39
-54.02
-44.53
-36.68
-31.27
-27.98
-25.73
-23.60
-21.19
-18.73
-16.68
-15.30
-14.46
-13.63
-12.19
-9.83
-6.83
-4.02
-2.49
-3.09
-5.87
-10.13
-14.64
-18.22
-20.44
-21.76
-23.17
-25.32
-27.84
-29.33
-28.20
-23.58
-15.95
-6.93
1.44
7.70
11.48
13.30
14.15
14.60
14.52
13.19
10.09
5.64
1.25
-1.26
-0.73
2.58
6.99
10.23
10.56
7.53
2.14
-3.97
-9.45
-13.70
-16.73
-18.59
-19.04
-17.80
-15.03
-11.69
-9.32
-9.26
-11.90
-16.34
-20.94
-24.07
-24.85
-23.47
-20.83
-18.11
-16.17
-15.35
-15.48
-16.01
-16.27
-15.64
-13.72
-10.53
-6.57
-2.67
0.24
1.43
0.56
-2.25
-6.52
-11.58
-16.76
-21.48
-25.34
-28.13
-29.82
-30.60
-30.79
-30.81
-31.08
-31.85
-33.14
-34.66
-35.94
-36.40
-35.45
-32.71
-28.09
-21.88
-14.75
-7.59
-1.23
3.71
7.02
8.95
10.01
10.70
11.34
11.89
12.14
11.95
11.40
10.85
10.73
11.30
12.53
14.07
15.54
16.69
17.55
18.21
18.60
18.24
16.39
12.35
5.98
-1.99
-10.15
-16.93
-21.29
-23.07
-22.83
-21.32
-18.90
-15.43
-10.59
-4.35
2.70
9.55
15.36
19.86
23.43
26.50
29.04
30.30
29.26
25.36
19.09
11.97
5.84
2.03
0.84
1.66
3.56
5.87
8.40
11.20
14.15
16.67
17.98
17.43
14.93
10.85
5.78
0.12
-6.00
-12.48
-18.85
-24.08
-26.76
-25.67
-20.52
-12.16
-2.41
6.67
13.66
18.25
21.20
23.69
26.61
30.04
33.34
35.63
36.39
35.78
34.52
33.39
32.75
32.40
31.80
30.39
27.90
24.31
19.70
14.14
7.65
0.39
-7.22
-14.45
-20.44
-24.39
-25.80
-24.57
-21.10
-16.17
-10.82
-5.91
-1.84
1.66
5.38
10.15
16.29
23.28
29.90
34.74
36.87
36.25
33.76
30.73
28.23
26.67
25.77
24.97
23.93
22.77
21.97
21.82
22.09
22.04
20.81
17.87
13.31
7.81
2.27
-2.61
-6.49
-9.28
-10.98
-11.49
-10.59
-7.99
-3.52
2.80
10.66
19.39
27.90
34.89
39.23
40.38
38.54
34.47
29.11
23.16
17.01
10.90
5.17
0.19
-3.79
-6.86
-9.53
-12.42
-15.89
-19.77
-23.58
-26.91
-29.92
-33.41
-38.54
-46.09
-56.02
-67.38
-78.60
-88.07
-94.59
-97.59
-97.04
-93.26
-86.84
-78.52
-69.13
-59.44
-49.98
-41.02
-32.56
-24.55
-17.04
-10.33
-4.88
-1.14
0.61
0.34
-1.83
-5.63
-10.71
-16.51
-22.23
-26.95
-29.80
-30.22
-28.13
-23.86
-18.00
-11.13
-3.73
3.84
11.12
17.50
22.32
25.04
25.50
24.06
21.41
18.30
15.22
12.38
9.89
7.84
6.52
6.11
6.53
7.33
7.78
7.35
6.04
4.50
3.71
4.54
7.26
11.48
16.31
20.74
23.91
25.18
24.17
20.61
14.41
5.62
-5.52
-18.63
-33.24
-48.71
-64.28
-78.93
-91.49
-100.69
-105.51
-105.49
-100.83
-92.39
-81.40
-69.08
-56.33
-43.74
-31.67
-20.50
-10.75
-2.99
2.40
5.49
6.93
7.74
8.80
10.50
12.45
13.75
13.46
11.08
6.83
1.57
-3.59
-7.71
-10.35
-11.69
-12.35
-13.07
-14.41
-16.44
-18.73
-20.53
-21.08
-19.98
-17.39
-13.94
-10.43
-7.57
-5.68
-4.67
-4.09
-3.25
-1.45
1.75
6.31
11.61
16.63
20.39
22.51
23.31
23.67
24.44
25.82
27.18
27.39
25.53
21.55
16.46
11.87
9.21
9.07
10.99
13.79
16.21
17.36
16.92
15.05
12.11
8.57
4.91
1.76
-0.20
-0.36
1.59
5.58
11.19
17.97
25.61
33.92
42.52
50.71
57.43
61.58
62.44
60.04
55.20
49.20
43.36
38.55
35.05
32.60
30.65
28.69
26.38
23.56
20.19
16.14
11.28
5.49
-1.14
-8.35
-15.64
-22.45
-28.28
-32.84
-35.95
-37.46
-37.15
-34.66
-29.76
-22.53
-13.59
-4.04
4.89
12.21
17.55
21.21
23.84
26.06
28.17
30.06
31.49
32.39
32.94
33.55
34.61
36.24
38.23
40.07
41.21
41.23
40.06
37.99
35.70
34.14
34.08
35.70
38.23
40.07
39.28
34.49
25.55
13.81
1.58
-8.61
-14.95
-16.91
-15.30
-11.90
-8.68
-7.13
-7.70
-9.91
-12.71
-15.03
-16.41
-17.07
-17.69
-18.91
-20.94
-23.49
-26.17
-28.87
-31.93
-35.99
-41.42
-47.95
-54.67
-60.49
-64.83
-67.95
-71.00
-75.46
-82.48
-92.27
-104.09
-116.51
-127.96
-137.13
-143.22
-145.87
-145.05
-140.89
-133.73
-124.12
-112.75
-100.31
-87.29
-73.92
-60.25
-46.38
-32.56
-19.22
-6.83
4.42
14.64
24.17
33.30
42.01
49.91
56.38
60.84
63.01
62.97
61.11
57.89
53.74
48.89
43.40
37.22
30.35
22.89
15.14
7.48
0.34
-5.91
-10.95
-14.45
-16.14
-15.87
-13.73
-10.11
-5.58
-0.75
3.97
8.33
12.20
15.46
17.92
19.40
19.99
20.06
20.21
21.01
22.72
25.17
27.80
29.96
31.14
31.13
30.01
28.08
25.75
23.38
21.29
19.64
18.50
17.77
17.26
16.70
15.90
14.79
13.60
12.74
12.77
14.18
17.18
21.59
26.91
32.38
37.31
41.29
44.19
46.12
47.24
47.57
46.99
45.40
42.89
39.80
36.68
34.04
32.10
30.69
29.37
27.65
25.22
22.09
18.54
14.96
11.67
8.87
6.56
4.62
2.86
1.05
-0.96
-3.18
-5.43
-7.31
-8.31
-7.86
-5.59
-1.40
4.39
11.20
18.31
25.23
31.75
37.96
43.98
49.75
54.89
58.95
61.67
63.33
64.65
66.56
69.67
73.95
78.74
83.05
85.88
86.61
84.98
81.13
75.47
68.60
61.34
54.54
48.87
44.54
41.21
38.02
34.01
28.61
21.90
14.72
8.32
3.93
2.33
3.73
7.84
14.19
22.27
31.54
41.22
50.09
56.43
58.39
54.55
44.33
28.25
7.74
-15.28
-38.76
-60.89
-80.17
-95.49
-106.24
-112.30
-114.08
-112.44
-108.40
-102.94
-96.86
-90.71
-84.89
-79.67
-75.07
-70.75
-66.01
-59.98
-51.93
-41.61
-29.39
-16.02
-2.33
11.16
24.39
37.63
51.08
64.64
77.86
89.89
99.68
105.91
107.24
102.67
92.04
76.41
58.06
39.88
24.26
12.09
2.45
-6.79
-17.65
-30.93
-45.78
-60.24
-72.31
-81.01
-86.61
-90.32
-93.39
-96.68
-100.47
-104.72
-109.46
-114.79
-120.60
-126.22
-130.34
-131.43
-128.35
-121.09
-110.65
-98.85
-87.55
-78.07
-70.92
-65.94
-62.51
-59.80
-56.92
-53.08
-47.88
-41.55
-34.93
-29.07
-24.61
-21.35
-18.23
-13.90
-7.52
0.66
9.29
16.52
20.86
21.88
20.25
17.26
14.04
10.94
7.46
2.75
-3.67
-11.35
-18.85
-24.29
-26.11
-23.68
-17.51
-9.03
0.02
8.05
13.99
17.39
18.40
17.70
16.27
15.08
14.87
15.97
18.32
21.54
25.06
28.13
29.86
29.33
25.93
19.84
12.24
5.10
0.45
-0.46
2.16
6.67
10.57
11.42
7.75
-0.44
-11.72
-23.74
-33.85
-39.90
-40.69
-36.21
-27.65
-17.03
-6.68
1.40
6.17
7.74
7.27
6.40
6.68
8.99
13.34
18.92
24.39
28.35
29.67
27.83
23.12
16.67
10.18
5.44
3.74
5.28
9.10
13.34
15.92
15.31
11.02
3.69
-5.17
-13.71
-20.34
-24.10
-24.80
-22.98
-19.65
-15.89
-12.55
-10.05
-8.32
-6.79
-4.69
-1.37
3.44
9.43
15.92
22.07
27.24
31.05
33.20
33.40
31.35
26.96
20.84
14.36
9.26
6.89
7.59
10.53
14.11
16.75
17.48
16.18
13.16
8.71
2.92
-4.22
-12.32
-20.40
-26.91
-30.33
-29.83
-25.63
-18.92
-11.25
-3.98
2.18
7.12
11.16
14.58
17.46
19.69
21.16
21.99
22.44
22.86
23.46
24.32
25.32
26.32
27.20
27.98
28.84
30.14
32.27
35.38
39.14
42.56
44.18
42.52
36.74
27.01
14.60
1.50
-10.30
-19.41
-25.35
-28.41
-29.14
-27.92
-24.82
-19.82
-13.25
-5.96
0.81
5.93
8.82
9.70
9.26
8.31
7.39
6.68
6.14
5.76
5.60
5.62
5.64
5.38
4.70
3.86
3.35
3.63
4.71
6.03
6.72
6.10
4.01
0.85
-2.72
-6.07
-8.79
-10.59
-11.18
-10.26
-7.63
-3.43
1.89
7.62
13.10
17.86
21.65
24.42
26.36
27.81
29.24
31.00
33.22
35.66
37.88
39.58
40.76
41.81
43.18
45.07
47.32
49.54
51.42
52.96
54.45
56.21
58.17
59.78
60.09
58.16
53.49
46.27
37.34
27.92
19.11
11.59
5.39
0.13
-4.78
-9.70
-14.63
-19.20
-22.95
-25.61
-27.22
-28.08
-28.50
-28.59
-28.26
-27.31
-25.72
-23.73
-21.81
-20.37
-19.48
-18.83
-17.88
-16.16
-13.52
-10.18
-6.61
-3.28
-0.66
0.92
1.21
0.22
-1.69
-3.85
-5.54
-6.27
-6.10
-5.53
-5.16
-5.28
-5.70
-5.84
-5.21
-3.64
-1.41
1.04
3.41
5.74
8.36
11.69
16.02
21.43
27.73
34.57
41.49
48.01
53.65
58.11
61.23
63.05
63.71
63.51
62.84
62.12
61.91
62.92
65.99
71.97
81.39
94.01
108.83
124.39
139.28
152.52
163.64
172.40
178.57
181.93
182.45
180.33
175.84
168.73
157.92
141.62
118.24
87.56
51.46
13.70
-21.43
-50.61
-72.50
-87.77
-98.12
-105.18
-109.82
-112.20
-112.11
-109.56
-105.01
-99.11
-92.37
-84.76
-75.99
-66.09
-56.01
-47.75
-43.64
-45.12
-51.81
-61.28
-69.96
-74.55
-73.25
-66.23
-55.29
-42.96
-31.84
-24.10
-21.32
-24.39
-33.25
-46.70
-62.48
-77.83
-90.22
-98.02
-100.78
-99.05
-93.95
-86.73
-78.48
-70.02
-61.86
-54.28
-47.37
-41.11
-35.33
-29.66
-23.62
-16.74
-8.85
-0.25
8.33
16.03
22.29
27.11
30.99
34.48
37.83
40.89
43.31
44.96
46.14
47.61
50.07
53.84
58.66
63.93
69.02
73.72
78.20
82.87
88.08
93.80
99.54
104.37
107.13
106.64
101.98
92.72
79.06
61.93
42.89
23.98
7.31
-5.34
-12.96
-15.50
-13.88
-9.56
-4.15
1.14
5.65
9.34
12.33
14.67
16.05
15.93
13.83
9.79
4.56
-0.47
-3.72
-4.09
-1.33
3.69
9.31
13.59
14.88
12.29
5.77
-4.03
-16.07
-29.16
-42.26
-54.65
-66.03
-76.62
-87.15
-98.70
-112.35
-128.58
-146.66
-164.62
-179.59
-188.82
-190.85
-186.11
-176.86
-166.22
-157.10
-151.27
-149.09
-149.85
-152.39
-155.63
-158.65
-160.71
-160.98
-158.50
-152.35
-141.94
-127.34
-109.44
-89.97
-71.09
-54.72
-42.00
-32.95
-26.72
-22.18
-18.51
-15.57
-13.63
-13.06
-13.84
-15.49
-17.21
-18.12
-17.63
-15.56
-12.14
-7.87
-3.27
1.33
5.88
10.53
15.41
20.41
25.11
28.93
31.42
32.45
32.29
31.34
29.90
28.02
25.58
22.55
19.01
15.23
11.47
7.96
4.93
2.72
1.67
2.03
3.63
5.93
7.98
8.78
7.49
3.75
-2.22
-9.48
-16.54
-21.68
-23.47
-21.33
-15.73
-8.00
0.35
8.33
15.91
23.75
32.51
42.09
51.32
58.28
61.23
59.40
53.46
45.26
36.98
30.26
25.64
22.73
20.71
19.10
18.10
18.27
19.98
22.86
25.78
27.39
26.83
24.23
20.59
17.05
14.23
11.89
9.28
5.92
2.16
-0.77
-1.39
1.20
6.81
14.26
22.07
29.04
34.62
38.66
40.93
40.84
37.68
31.08
21.52
10.43
-0.29
-9.04
-14.97
-18.16
-19.33
-19.38
-19.03
-18.71
-18.57
-18.54
-18.48
-18.28
-17.96
-17.76
-18.08
-19.38
-21.91
-25.62
-30.08
-34.55
-38.20
-40.23
-39.99
-37.13
-31.59
-23.68
-14.08
-3.76
6.27
15.19
22.62
28.66
33.71
38.35
43.06
48.09
53.28
57.94
60.88
60.66
56.14
47.05
34.38
20.23
7.19
-2.70
-8.66
-11.41
-12.55
-13.70
-15.66
-18.36
-21.11
-23.23
-24.49
-25.06
-25.24
-25.16
-24.63
-23.27
-20.82
-17.35
-13.23
-8.93
-4.82
-1.08
2.38
5.62
8.81
12.11
15.79
20.25
25.92
33.03
41.13
48.96
54.56
55.88
51.66
42.05
28.71
14.18
1.01
-9.15
-15.89
-19.95
-22.62
-25.15
-28.26
-32.08
-36.22
-40.01
-42.72
-43.66
-42.35
-38.52
-32.16
-23.50
-13.08
-1.92
8.60
17.00
22.20
23.92
22.90
20.54
18.36
17.30
17.51
18.44
19.30
19.52
18.96
17.84
16.44
14.88
13.06
10.75
7.80
4.18
0.02
-4.59
-9.57
-14.82
-20.10
-24.80
-27.98
-28.57
-25.80
-19.53
-10.46
0.08
10.59
19.92
27.58
33.72
38.85
43.45
47.84
52.03
55.91
59.26
61.82
63.26
63.24
61.56
58.31
53.89
48.88
43.82
38.98
34.26
29.26
23.42
16.15
7.00
-4.08
-16.54
-29.05
-39.75
-46.86
-49.35
-47.42
-42.42
-36.24
-30.52
-26.08
-22.92
-20.53
-18.49
-16.67
-15.24
-14.35
-13.94
-13.66
-13.08
-11.91
-10.18
-8.16
-6.25
-4.73
-3.72
-3.10
-2.67
-2.21
-1.65
-1.04
-0.61
-0.77
-1.98
-4.67
-8.91
-14.32
-19.91
-24.40
-26.60
-25.86
-22.36
-16.93
-10.69
-4.61
0.77
5.32
9.07
12.07
14.24
15.55
16.11
16.19
16.16
16.33
16.83
17.61
18.55
19.55
20.63
21.96
23.78
26.32
29.52
32.89
35.40
35.67
32.32
24.48
12.23
-3.18
-19.56
-34.39
-45.60
-52.14
-54.15
-52.69
-49.08
-44.36
-39.05
-33.16
-26.62
-19.59
-12.55
-6.19
-0.99
3.05
6.39
9.67
13.28
17.23
21.12
24.55
27.35
29.76
32.08
34.36
36.09
36.33
34.10
28.98
21.37
12.33
3.18
-5.09
-12.04
-17.74
-22.49
-26.50
-29.86
-32.49
-34.14
-34.47
-33.11
-29.78
-24.55
-17.88
-10.63
-3.79
1.90
6.15
9.27
11.96
14.98
18.85
23.69
29.25
35.01
40.42
44.96
48.23
50.02
50.40
49.70
48.52
47.58
47.48
48.43
50.08
51.51
51.63
49.68
45.57
40.01
34.10
28.74
24.16
19.65
13.75
4.64
-8.96
-27.01
-47.63
-67.40
-82.35
-89.25
-86.74
-75.60
-58.32
-38.18
-18.30
-1.17
11.41
18.27
18.91
13.82
4.65
-6.08
-15.79
-22.76
-26.70
-28.56
-29.73
-31.32
-33.63
-36.36
-38.95
-40.96
-42.25
-42.68
-41.90
-39.26
-34.00
-25.71
-14.69
-2.00
10.86
22.43
31.68
38.22
42.17
44.00
44.32
43.79
43.03
42.47
42.37
42.69
43.25
43.85
44.32
44.56
44.45
43.75
42.22
39.74
36.60
33.53
31.34
30.45
30.66
31.23
31.28
29.96
26.56
20.31
10.56
-2.81
-18.73
-34.81
-47.87
-55.19
-55.59
-49.89
-40.28
-29.23
-18.34
-8.04
2.10
12.68
24.04
36.28
49.39
63.22
77.27
90.63
102.02
110.20
114.41
114.48
110.70
103.52
93.39
80.84
66.66
51.91
37.78
25.09
13.99
4.02
-5.59
-15.33
-25.07
-33.95
-40.89
-45.04
-46.26
-45.01
-41.98
-37.55
-31.56
-23.54
-13.20
-1.01
11.75
23.38
32.48
38.49
41.69
42.80
42.51
41.12
38.68
35.19
30.86
26.07
21.24
16.65
12.33
8.11
3.67
-1.25
-6.71
-12.54
-18.22
-23.07
-26.45
-28.04
-28.02
-27.06
-25.89
-25.00
-24.38
-23.65
-22.35
-20.15
-16.89
-12.54
-7.13
-0.93
5.33
10.45
13.04
12.10
7.56
0.58
-6.77
-12.30
-14.44
-12.81
-8.16
-1.86
4.79
11.02
16.68
21.93
26.70
30.40
31.98
30.43
25.40
17.55
8.42
-0.23
-7.07
-11.56
-13.85
-14.37
-13.47
-11.43
-8.69
-6.15
-5.06
-6.64
-11.56
-19.62
-29.95
-41.38
-52.81
-63.30
-71.96
-77.93
-80.48
-79.40
-75.15
-68.79
-61.60
-54.62
-48.40
-43.06
-38.52
-34.80
-32.13
-30.85
-31.25
-33.46
-37.48
-43.18
-50.34
-58.52
-67.20
-75.70
-83.40
-89.92
-95.15
-99.35
-102.97
-106.61
-110.73
-115.42
-120.25
-124.24
-126.18
-124.98
-120.14
-111.88
-101.05
-88.81
-76.36
-64.61
-54.17
-45.33
-38.03
-31.88
-26.26
-20.50
-14.11
-7.01
0.48
7.87
14.81
21.28
27.57
34.04
40.88
47.92
54.76
60.94
66.22
70.59
74.27
77.56
80.74
83.99
87.37
90.81
94.08
96.86
98.81
99.75
99.72
99.02
97.98
96.78
95.35
93.41
90.59
86.75
81.95
76.45
70.55
64.47
58.40
52.63
47.55
43.49
40.53
38.29
36.09
33.17
29.08
23.92
18.31
13.11
9.21
7.24
7.53
10.01
14.28
19.59
24.86
28.68
29.29
24.83
13.83
-3.94
-26.71
-50.65
-70.79
-82.74
-84.44
-76.95
-63.90
-49.66
-37.47
-28.29
-21.13
-14.35
-6.95
0.75
7.55
12.32
14.72
15.46
15.80
16.85
18.89
21.18
22.24
20.45
14.94
5.90
-5.32
-16.80
-26.73
-34.16
-39.17
-42.79
-46.46
-51.39
-58.19
-66.72
-76.07
-84.96
-92.09
-96.57
-98.07
-96.91
-93.60
-88.52
-81.58
-72.35
-60.51
-46.24
-30.21
-13.13
4.81
23.97
44.68
66.15
86.01
100.66
106.69
102.62
89.75
71.72
53.00
37.10
25.49
17.75
12.42
8.02
3.55
-1.61
-7.88
-15.53
-24.50
-34.15
-43.25
-50.48
-54.93
-56.56
-56.28
-55.42
-55.05
-55.38
-55.53
-53.78
-48.21
-37.41
-21.17
-0.84
20.72
39.76
52.67
57.11
52.81
41.55
26.42
10.68
-3.45
-15.12
-24.60
-32.45
-38.88
-43.59
-46.23
-46.96
-46.73
-46.94
-48.76
-52.48
-57.29
-61.63
-63.91
-63.25
-59.90
-55.24
-51.11
-49.12
-49.95
-53.10
-57.07
-59.96
-59.94
-55.72
-46.74
-33.36
-16.97
0.09
15.07
25.62
30.60
30.49
27.02
22.28
17.67
13.52
9.40
4.95
0.56
-2.56
-3.03
-0.08
5.86
13.29
20.30
25.30
27.64
27.67
26.40
24.99
24.19
24.10
24.17
23.51
21.31
17.19
11.37
4.73
-1.40
-5.35
-5.47
-0.49
9.94
24.87
42.03
58.09
69.59
73.89
70.13
59.47
44.71
29.31
16.11
6.54
0.37
-3.71
-7.23
-11.19
-15.76
-20.48
-24.77
-28.31
-31.14
-33.47
-35.35
-36.63
-36.94
-35.77
-32.58
-27.01
-19.02
-9.18
1.28
10.72
17.51
20.69
20.27
17.13
12.51
7.56
2.89
-1.30
-4.97
-7.93
-9.78
-10.06
-8.56
-5.52
-1.57
2.48
5.93
8.36
9.69
10.08
9.87
9.45
9.23
9.50
10.48
12.29
15.10
19.16
24.75
31.95
40.28
48.53
54.69
56.51
52.25
41.45
25.26
6.20
-12.58
-28.31
-39.30
-45.23
-46.96
-45.89
-43.38
-40.36
-37.29
-34.29
-31.52
-29.15
-27.35
-26.01
-24.77
-23.16
-20.95
-18.40
-16.08
-14.51
-13.55
-12.25
-9.20
-3.36
5.12
14.64
22.56
26.24
24.03
15.95
3.46
-11.09
-25.30
-37.19
-45.42
-49.21
-48.27
-42.85
-33.77
-22.41
-10.38
0.90
10.62
18.74
25.81
32.62
39.76
47.36
55.20
62.96
70.50
78.05
86.04
94.90
104.72
115.06
124.86
132.51
136.12
133.88
124.54
107.93
85.05
57.99
29.40
1.83
-22.69
-42.87
-58.00
-67.80
-72.25
-71.63
-66.58
-58.07
-47.24
-35.16
-22.64
-10.15
2.16
14.55
27.63
42.23
58.92
77.47
96.40
113.06
124.27
127.39
121.15
106.06
84.05
57.83
30.07
2.97
-21.86
-43.36
-60.90
-74.36
-84.14
-91.13
-96.38
-100.80
-104.80
-108.16
-110.10
-109.52
-105.27
-96.43
-82.53
-63.69
-40.72
-15.15
10.87
34.73
53.81
65.90
69.75
65.38
54.15
38.47
21.20
4.93
-8.57
-18.58
-25.35
-29.59
-32.05
-33.21
-33.27
-32.43
-31.10
-30.04
-30.12
-31.89
-35.04
-38.35
-39.94
-38.02
-31.60
-21.03
-7.81
5.86
17.97
27.17
33.10
36.11
36.97
36.44
35.14
33.51
31.85
30.42
29.40
28.96
29.26
30.44
32.55
35.45
38.90
42.68
46.87
51.94
58.49
66.76
75.97
84.13
88.32
85.73
74.81
56.11
32.17
6.64
-16.92
-36.14
-50.16
-59.38
-64.72
-67.07
-66.92
-64.56
-60.35
-55.06
-49.81
-45.72
-43.48
-42.93
-43.09
-42.54
-40.11
-35.37
-28.87
-21.82
-15.60
-11.15
-8.79
-8.20
-8.80
-10.00
-11.40
-12.75
-13.94
-14.81
-15.12
-14.51
-12.49
-8.64
-2.79
4.76
13.24
21.63
29.04
35.03
39.67
43.26
46.04
48.01
48.97
48.81
47.71
46.11
44.55
43.32
42.50
42.00
41.86
42.38
44.11
47.55
52.89
59.87
67.85
76.02
83.66
90.39
96.25
101.80
108.00
116.05
126.99
141.16
157.71
174.56
188.75
197.46
198.90
192.90
180.87
165.09
147.89
130.97
115.23
101.05
88.52
77.59
67.91
58.74
48.98
37.45
23.38
6.73
-11.77
-30.82
-48.95
-64.89
-77.89
-87.77
-94.88
-99.82
-103.18
-105.23
-105.80
-104.46
-100.79
-94.84
-87.21
-79.00
-71.37
-65.10
-60.34
-56.70
-53.54
-50.48
-47.63
-45.65
-45.39
-47.46
-51.80
-57.62
-63.71
-68.79
-72.09
-73.52
-73.57
-72.89
-71.97
-71.03
-70.21
-69.77
-70.05
-71.20
-72.68
-73.26
-71.46
-66.40
-58.45
-49.26
-40.92
-34.85
-31.05
-28.17
-24.33
-18.22
-9.59
0.79
11.73
22.22
31.54
39.26
45.01
48.57
50.00
49.84
48.92
48.04
47.61
47.58
47.48
46.75
44.81
41.20
35.51
27.52
17.39
5.81
-6.04
-16.76
-25.20
-30.75
-33.45
-33.87
-32.77
-30.87
-28.67
-26.45
-24.31
-22.32
-20.60
-19.38
-18.93
-19.45
-21.04
-23.64
-27.14
-31.37
-36.10
-40.96
-45.33
-48.42
-49.52
-48.22
-44.73
-39.79
-34.38
-29.36
-25.16
-21.78
-18.92
-16.25
-13.56
-10.80
-8.01
-5.24
-2.52
0.05
2.24
3.59
3.61
1.94
-1.30
-5.45
-9.43
-12.17
-12.99
-11.91
-9.68
-7.35
-5.85
-5.62
-6.48
-7.85
-9.11
-9.90
-10.26
-10.49
-10.99
-11.93
-13.32
-14.92
-16.50
-17.89
-19.13
-20.36
-21.76
-23.38
-25.22
-27.23
-29.44
-31.92
-34.71
-37.61
-40.13
-41.54
-41.14
-38.60
-34.12
-28.39
-22.32
-16.69
-11.94
-8.11
-5.06
-2.62
-0.68
0.84
2.04
3.07
4.06
5.00
5.77
6.20
6.26
6.11
6.05
6.32
7.01
8.01
9.11
10.15
11.12
12.04
12.77
12.95
12.03
9.67
5.99
1.82
-1.53
-2.75
-1.06
3.51
10.13
17.54
24.49
30.08
33.85
35.69
35.69
34.03
30.94
26.79
22.13
17.66
14.11
12.09
11.94
13.61
16.75
20.82
25.32
29.88
34.28
38.19
41.00
41.83
39.81
34.58
26.50
16.65
6.36
-3.32
-11.91
-19.45
-26.15
-32.08
-37.00
-40.53
-42.39
-42.53
-41.16
-38.53
-34.75
-29.80
-23.69
-16.57
-8.98
-1.69
4.33
8.26
9.68
8.77
6.24
3.07
0.19
-1.77
-2.66
-2.56
-1.70
-0.29
1.47
3.28
4.70
5.22
4.35
1.82
-2.37
-7.85
-13.98
-19.88
-24.59
-27.25
-27.39
-25.17
-21.36
-17.18
-13.76
-11.78
-11.26
-11.75
-12.69
-13.82
-15.27
-17.40
-20.35
-23.74
-26.63
-27.85
-26.61
-22.89
-17.41
-11.38
-6.03
-2.17
-0.16
0.08
-1.10
-3.15
-5.44
-7.33
-8.36
-8.46
-7.94
-7.31
-7.03
-7.15
-7.33
-7.03
-5.91
-4.01
-1.68
0.61
2.58
4.19
5.56
6.74
7.58
7.77
7.05
5.46
3.33
1.28
-0.07
-0.34
0.42
1.77
3.07
3.64
3.11
1.48
-0.82
-3.13
-4.83
-5.67
-5.84
-5.92
-6.56
-8.20
-10.75
-13.64
-16.02
-17.11
-16.45
-14.08
-10.43
-6.05
-1.50
2.92
7.07
10.89
14.33
17.23
19.38
20.58
20.77
20.07
18.84
17.48
16.34
15.56
15.02
14.48
13.71
12.69
11.58
10.64
10.07
9.84
9.75
9.50
8.84
7.59
5.66
3.01
-0.34
-4.14
-7.93
-10.97
-12.50
-11.94
-9.29
-5.05
-0.18
4.31
7.69
9.66
10.29
9.81
8.40
6.22
3.49
0.70
-1.40
-2.02
-0.67
2.55
6.98
11.63
15.60
18.29
19.45
19.01
17.00
13.51
8.88
3.74
-1.17
-5.28
-8.41
-10.82
-12.85
-14.54
-15.54
-15.19
-12.96
-8.78
-3.06
3.51
10.26
16.77
22.81
28.12
32.26
34.64
34.78
32.53
28.27
22.74
16.89
11.51
7.09
3.78
1.54
0.22
-0.36
-0.36
-0.06
0.20
0.10
-0.54
-1.75
-3.47
-5.65
-8.31
-11.44
-14.86
-18.04
-20.25
-20.80
-19.43
-16.48
-12.70
-8.92
-5.60
-2.80
-0.31
2.00
4.00
5.38
5.91
5.62
4.91
4.36
4.44
5.37
7.05
9.28
11.83
14.51
17.15
19.46
21.19
22.07
22.09
21.39
20.25
18.87
17.31
15.53
13.54
11.45
9.49
7.93
6.90
6.28
5.73
4.91
3.65
2.02
0.34
-1.04
-1.95
-2.48
-2.91
-3.61
-4.77
-6.37
-8.20
-9.97
-11.51
-12.85
-14.11
-15.41
-16.72
-17.84
-18.51
-18.61
-18.26
-17.87
-17.92
-18.78
-20.48
-22.69
-24.75
-26.00
-25.88
-24.15
-20.95
-16.67
-11.82
-6.94
-2.47
1.33
4.35
6.65
8.36
9.61
10.46
10.98
11.22
11.33
11.47
11.81
12.35
12.95
13.33
13.29
12.81
12.11
11.48
11.14
11.02
10.83
10.16
8.66
6.28
3.28
0.13
-2.58
-4.30
-4.62
-3.39
-0.66
3.21
7.65
11.98
15.51
17.79
18.65
18.20
16.73
14.56
11.95
9.16
6.46
4.20
2.65
1.93
1.80
1.76
1.32
0.24
-1.35
-3.01
-4.28
-4.94
-5.05
-4.97
-5.07
-5.66
-6.86
-8.62
-10.70
-12.65
-13.91
-13.94
-12.40
-9.34
-5.18
-0.63
3.59
6.94
9.19
10.39
10.77
10.70
10.51
10.45
10.63
11.04
11.58
12.13
12.67
13.20
13.78
14.38
15.02
15.66
16.34
17.12
17.98
18.78
19.31
19.39
19.02
18.51
18.36
19.10
21.04
24.21
28.49
33.76
39.97
47.19
55.35
64.19
73.19
81.70
89.05
94.66
98.18
99.45
98.70
96.58
94.17
92.72
93.29
96.28
101.26
107.12
112.44
115.86
116.34
113.07
105.35
92.49
73.90
49.45
19.77
-13.40
-47.31
-78.58
-103.95
-121.01
-128.83
-128.15
-121.04
-110.14
-97.87
-85.75
-74.36
-63.67
-53.66
-44.66
-37.43
-32.75
-30.90
-31.42
-33.11
-34.54
-34.67
-33.18
-30.47
-27.28
-24.19
-21.34
-18.45
-15.11
-11.15
-6.79
-2.63
0.61
2.40
2.55
1.30
-0.84
-3.26
-5.41
-6.90
-7.64
-7.76
-7.54
-7.28
-7.16
-7.28
-7.73
-8.67
-10.36
-13.05
-16.74
-21.20
-25.99
-30.66
-34.88
-38.45
-41.21
-42.88
-43.17
-41.94
-39.35
-35.98
-32.55
-29.66
-27.48
-25.76
-24.07
-22.15
-20.07
-18.22
-17.08
-16.99
-17.97
-19.74
-21.81
-23.64
-24.81
-25.06
-24.44
-23.14
-21.46
-19.69
-17.96
-16.29
-14.59
-12.75
-10.65
-8.32
-5.87
-3.51
-1.51
-0.16
0.37
0.07
-0.83
-1.92
-2.82
-3.29
-3.38
-3.34
-3.50
-4.06
-5.01
-6.10
-7.06
-7.76
-8.34
-9.13
-10.52
-12.66
-15.48
-18.60
-21.53
-23.82
-25.08
-25.07
-23.82
-21.53
-18.58
-15.48
-12.65
-10.37
-8.70
-7.53
-6.69
-6.04
-5.52
-5.12
-4.77
-4.39
-3.90
-3.29
-2.61
-1.97
-1.44
-1.10
-0.96
-1.01
-1.23
-1.56
-1.96
-2.40
-2.90
-3.53
-4.41
-5.57
-6.96
-8.40
-9.67
-10.57
-10.98
-10.84
-10.15
-8.88
-7.04
-4.70
-2.08
0.54
2.86
4.72
6.14
7.27
8.28
9.26
10.10
10.61
10.63
10.18
9.39
8.52
7.80
7.28
6.89
6.47
5.93
5.25
4.57
4.05
3.81
3.86
4.08
4.31
4.38
4.16
3.60
2.73
1.63
0.43
-0.73
-1.62
-2.03
-1.72
-0.58
1.31
3.59
5.74
7.27
7.96
7.95
7.58
7.21
6.92
6.40
5.18
2.92
-0.35
-4.17
-7.87
-10.87
-12.89
-14.02
-14.59
-15.01
-15.61
-16.54
-17.81
-19.28
-20.79
-22.14
-23.20
-23.97
-24.54
-25.07
-25.65
-26.37
-27.21
-28.15
-29.12
-29.96
-30.37
-29.96
-28.32
-25.21
-20.73
-15.33
-9.68
-4.55
-0.55
1.99
3.06
2.92
2.00
0.80
-0.16
-0.36
0.60
2.98
6.74
11.54
16.73
21.54
25.36
27.91
29.31
29.96
30.20
30.09
29.29
27.29
23.68
18.47
12.17
5.54
-0.66
-5.95
-10.11
-13.14
-14.93
-15.26
-13.86
-10.61
-5.73
0.18
6.37
12.20
17.50
22.55
27.83
33.57
39.40
44.24
46.68
45.54
40.45
32.10
21.99
11.98
3.60
-2.24
-5.47
-6.60
-6.51
-6.09
-6.06
-6.87
-8.63
-11.19
-14.18
-17.14
-19.62
-21.21
-21.67
-21.05
-19.74
-18.40
-17.80
-18.46
-20.45
-23.25
-26.01
-27.83
-28.23
-27.25
-25.40
-23.37
-21.62
-20.22
-18.81
-16.86
-13.91
-9.90
-5.15
-0.29
4.11
7.75
10.74
13.39
15.93
18.25
19.86
20.18
18.87
16.14
12.69
9.34
6.69
4.78
3.22
1.35
-1.31
-4.90
-9.21
-13.70
-17.65
-20.23
-20.69
-18.52
-13.73
-6.90
0.86
8.32
14.52
19.02
21.93
